Test Title:	Alpha Wireless Indoor Range						
Date:	28/12/2017						
Time:	10:00						
Operator Name:	FL						
Comment:	1deg downtilt						
Caib. File Name:	C:\Program Files\Midas 2.01d\Calibration Files\test sigma 180900.cal						
							
[Scan Axis] Name: 	Azimuth  [deg]Start: 	0.000000	Stop	359.000000	Increment	1.000000[Step Axis] Name: 	Start: 	0.000000	Stop	0.000000	Increment	0.000000[Tert] Name: 	None [Forth] Name: 	None  [ Freq.]  (List) 	MHz.	2300.000000	2350.000000	2400.000000	2450.000000	2500.000000	2550.000000	2600.000000	2650.000000	2700.000000
 [Switch]  	None [Channel]  	test			 [ Beam] 	None			
Database:			
First Question			
2nd			
3rd			
4th			
			
Frequency	2300.00	MHz	
Channel	test		
Scan Axis name	Azimuth  [deg]		
Scan Axis	Amplitude	Phase	
			
0.00	-15.216	113.193	
1.00	-15.233	113.178	
2.00	-15.244	113.036	
3.00	-15.245	112.695	
4.00	-15.244	112.226	
5.00	-15.238	111.608	
6.00	-15.226	110.832	
7.00	-15.205	109.857	
8.00	-15.170	108.763	
9.00	-15.118	107.582	
10.00	-15.056	106.255	
11.00	-14.981	104.904	
12.00	-14.875	103.465	
13.00	-14.757	101.962	
14.00	-14.628	100.458	
15.00	-14.478	98.939	
16.00	-14.310	97.514	
17.00	-14.131	96.164	
18.00	-13.940	94.818	
19.00	-13.729	93.574	
20.00	-13.524	92.390	
21.00	-13.307	91.335	
22.00	-13.094	90.371	
23.00	-12.881	89.488	
24.00	-12.675	88.721	
25.00	-12.473	88.022	
26.00	-12.271	87.406	
27.00	-12.084	86.902	
28.00	-11.913	86.469	
29.00	-11.745	86.086	
30.00	-11.595	85.801	
31.00	-11.457	85.474	
32.00	-11.337	85.238	
33.00	-11.225	85.050	
34.00	-11.129	84.912	
35.00	-11.049	84.758	
36.00	-10.973	84.664	
37.00	-10.918	84.615	
38.00	-10.875	84.626	
39.00	-10.843	84.637	
40.00	-10.825	84.660	
41.00	-10.815	84.757	
42.00	-10.819	84.841	
43.00	-10.833	85.009	
44.00	-10.858	85.160	
45.00	-10.893	85.393	
46.00	-10.936	85.670	
47.00	-10.985	85.983	
48.00	-11.045	86.359	
49.00	-11.119	86.841	
50.00	-11.190	87.342	
51.00	-11.279	87.924	
52.00	-11.368	88.608	
53.00	-11.462	89.339	
54.00	-11.576	90.083	
55.00	-11.687	91.014	
56.00	-11.801	91.987	
57.00	-11.927	93.059	
58.00	-12.048	94.179	
59.00	-12.181	95.399	
60.00	-12.314	96.720	
61.00	-12.453	98.079	
62.00	-12.597	99.559	
63.00	-12.729	101.045	
64.00	-12.867	102.636	
65.00	-13.009	104.291	
66.00	-13.145	105.991	
67.00	-13.280	107.716	
68.00	-13.408	109.535	
69.00	-13.528	111.277	
70.00	-13.647	113.159	
71.00	-13.774	114.973	
72.00	-13.874	116.791	
73.00	-13.974	118.535	
74.00	-14.057	120.262	
75.00	-14.148	121.993	
76.00	-14.219	123.627	
77.00	-14.293	125.214	
78.00	-14.357	126.711	
79.00	-14.414	128.064	
80.00	-14.465	129.325	
81.00	-14.513	130.489	
82.00	-14.556	131.505	
83.00	-14.590	132.333	
84.00	-14.628	133.148	
85.00	-14.657	133.743	
86.00	-14.673	134.225	
87.00	-14.700	134.500	
88.00	-14.722	134.663	
89.00	-14.739	134.615	
90.00	-14.750	134.488	
91.00	-14.759	134.139	
92.00	-14.769	133.641	
93.00	-14.765	133.046	
94.00	-14.753	132.265	
95.00	-14.743	131.351	
96.00	-14.707	130.318	
97.00	-14.678	129.202	
98.00	-14.632	127.915	
99.00	-14.579	126.577	
100.00	-14.510	125.104	
101.00	-14.430	123.649	
102.00	-14.341	122.099	
103.00	-14.243	120.577	
104.00	-14.132	118.979	
105.00	-14.007	117.404	
106.00	-13.873	115.866	
107.00	-13.732	114.241	
108.00	-13.582	112.771	
109.00	-13.423	111.282	
110.00	-13.267	109.861	
111.00	-13.099	108.540	
112.00	-12.931	107.269	
113.00	-12.767	106.063	
114.00	-12.610	104.920	
115.00	-12.447	103.868	
116.00	-12.285	102.931	
117.00	-12.136	102.060	
118.00	-11.989	101.234	
119.00	-11.842	100.489	
120.00	-11.710	99.851	
121.00	-11.587	99.254	
122.00	-11.470	98.708	
123.00	-11.368	98.275	
124.00	-11.262	97.900	
125.00	-11.183	97.591	
126.00	-11.103	97.287	
127.00	-11.028	97.085	
128.00	-10.979	96.927	
129.00	-10.936	96.827	
130.00	-10.896	96.777	
131.00	-10.872	96.771	
132.00	-10.860	96.845	
133.00	-10.861	96.851	
134.00	-10.871	96.979	
135.00	-10.895	97.128	
136.00	-10.921	97.311	
137.00	-10.963	97.493	
138.00	-11.017	97.744	
139.00	-11.082	98.011	
140.00	-11.155	98.309	
141.00	-11.238	98.680	
142.00	-11.332	99.035	
143.00	-11.436	99.453	
144.00	-11.550	99.911	
145.00	-11.673	100.439	
146.00	-11.806	100.997	
147.00	-11.949	101.591	
148.00	-12.097	102.243	
149.00	-12.254	103.005	
150.00	-12.417	103.782	
151.00	-12.588	104.650	
152.00	-12.763	105.676	
153.00	-12.938	106.670	
154.00	-13.115	107.857	
155.00	-13.297	109.133	
156.00	-13.464	110.431	
157.00	-13.631	111.838	
158.00	-13.795	113.386	
159.00	-13.942	114.947	
160.00	-14.086	116.652	
161.00	-14.205	118.337	
162.00	-14.323	120.012	
163.00	-14.416	121.678	
164.00	-14.493	123.327	
165.00	-14.561	124.972	
166.00	-14.611	126.539	
167.00	-14.651	127.913	
168.00	-14.675	129.263	
169.00	-14.692	130.365	
170.00	-14.703	131.282	
171.00	-14.715	132.124	
172.00	-14.719	132.723	
173.00	-14.724	133.092	
174.00	-14.727	133.295	
175.00	-14.735	133.341	
176.00	-14.749	133.217	
177.00	-14.751	132.934	
178.00	-14.755	132.405	
179.00	-14.763	131.778	
180.00	-14.767	131.039	
181.00	-14.754	130.123	
182.00	-14.733	129.043	
183.00	-14.721	127.866	
184.00	-14.680	126.588	
185.00	-14.622	125.227	
186.00	-14.564	123.916	
187.00	-14.484	122.477	
188.00	-14.380	120.975	
189.00	-14.264	119.493	
190.00	-14.133	117.992	
191.00	-13.993	116.451	
192.00	-13.843	114.925	
193.00	-13.684	113.389	
194.00	-13.509	111.873	
195.00	-13.333	110.345	
196.00	-13.158	108.776	
197.00	-12.972	107.275	
198.00	-12.788	105.739	
199.00	-12.613	104.219	
200.00	-12.436	102.704	
201.00	-12.258	101.168	
202.00	-12.094	99.679	
203.00	-11.935	98.212	
204.00	-11.775	96.717	
205.00	-11.629	95.267	
206.00	-11.486	93.723	
207.00	-11.349	92.364	
208.00	-11.222	91.107	
209.00	-11.100	89.865	
210.00	-10.997	88.601	
211.00	-10.889	87.479	
212.00	-10.795	86.374	
213.00	-10.702	85.394	
214.00	-10.619	84.419	
215.00	-10.555	83.574	
216.00	-10.490	82.770	
217.00	-10.438	82.107	
218.00	-10.395	81.488	
219.00	-10.352	80.942	
220.00	-10.328	80.421	
221.00	-10.314	80.052	
222.00	-10.305	79.758	
223.00	-10.308	79.466	
224.00	-10.319	79.335	
225.00	-10.348	79.199	
226.00	-10.383	79.117	
227.00	-10.431	79.097	
228.00	-10.488	79.135	
229.00	-10.560	79.233	
230.00	-10.643	79.377	
231.00	-10.744	79.575	
232.00	-10.852	79.843	
233.00	-10.977	80.148	
234.00	-11.108	80.538	
235.00	-11.251	80.988	
236.00	-11.402	81.440	
237.00	-11.575	82.013	
238.00	-11.754	82.638	
239.00	-11.938	83.353	
240.00	-12.145	84.178	
241.00	-12.331	84.975	
242.00	-12.549	85.933	
243.00	-12.759	86.960	
244.00	-12.963	88.083	
245.00	-13.194	89.277	
246.00	-13.402	90.540	
247.00	-13.605	91.868	
248.00	-13.812	93.286	
249.00	-14.010	94.809	
250.00	-14.191	96.351	
251.00	-14.368	97.897	
252.00	-14.533	99.496	
253.00	-14.670	101.083	
254.00	-14.806	102.709	
255.00	-14.920	104.258	
256.00	-15.021	105.807	
257.00	-15.100	107.263	
258.00	-15.168	108.631	
259.00	-15.225	109.903	
260.00	-15.264	110.983	
261.00	-15.296	112.060	
262.00	-15.312	112.943	
263.00	-15.321	113.690	
264.00	-15.322	114.279	
265.00	-15.323	114.703	
266.00	-15.318	115.012	
267.00	-15.303	115.051	
268.00	-15.284	115.060	
269.00	-15.267	114.783	
270.00	-15.242	114.430	
271.00	-15.206	113.925	
272.00	-15.179	113.213	
273.00	-15.142	112.438	
274.00	-15.104	111.476	
275.00	-15.058	110.393	
276.00	-15.013	109.184	
277.00	-14.951	107.841	
278.00	-14.885	106.393	
279.00	-14.804	104.876	
280.00	-14.724	103.200	
281.00	-14.634	101.512	
282.00	-14.533	99.776	
283.00	-14.424	98.027	
284.00	-14.303	96.223	
285.00	-14.168	94.342	
286.00	-14.032	92.508	
287.00	-13.891	90.666	
288.00	-13.736	88.861	
289.00	-13.570	87.109	
290.00	-13.408	85.390	
291.00	-13.241	83.716	
292.00	-13.061	82.146	
293.00	-12.892	80.644	
294.00	-12.722	79.152	
295.00	-12.541	77.811	
296.00	-12.377	76.502	
297.00	-12.209	75.252	
298.00	-12.050	74.133	
299.00	-11.892	73.138	
300.00	-11.749	72.124	
301.00	-11.606	71.268	
302.00	-11.478	70.537	
303.00	-11.352	69.787	
304.00	-11.237	69.160	
305.00	-11.132	68.648	
306.00	-11.041	68.178	
307.00	-10.957	67.794	
308.00	-10.890	67.531	
309.00	-10.826	67.286	
310.00	-10.784	67.094	
311.00	-10.752	67.049	
312.00	-10.730	67.013	
313.00	-10.718	67.065	
314.00	-10.725	67.146	
315.00	-10.735	67.340	
316.00	-10.771	67.572	
317.00	-10.815	67.905	
318.00	-10.869	68.282	
319.00	-10.942	68.723	
320.00	-11.017	69.181	
321.00	-11.114	69.732	
322.00	-11.220	70.386	
323.00	-11.334	71.064	
324.00	-11.470	71.767	
325.00	-11.608	72.600	
326.00	-11.753	73.462	
327.00	-11.914	74.417	
328.00	-12.083	75.364	
329.00	-12.255	76.391	
330.00	-12.434	77.566	
331.00	-12.618	78.761	
332.00	-12.805	80.049	
333.00	-12.984	81.345	
334.00	-13.174	82.753	
335.00	-13.361	84.206	
336.00	-13.549	85.670	
337.00	-13.720	87.284	
338.00	-13.889	88.879	
339.00	-14.057	90.520	
340.00	-14.208	92.191	
341.00	-14.347	93.921	
342.00	-14.478	95.620	
343.00	-14.595	97.354	
344.00	-14.701	99.020	
345.00	-14.795	100.819	
346.00	-14.874	102.489	
347.00	-14.941	104.123	
348.00	-15.002	105.680	
349.00	-15.047	107.291	
350.00	-15.096	108.641	
351.00	-15.119	110.002	
352.00	-15.142	111.254	
353.00	-15.169	112.376	
354.00	-15.186	113.361	
355.00	-15.195	114.274	
356.00	-15.206	114.983	
357.00	-15.210	115.632	
358.00	-15.222	115.944	
359.00	-15.237	116.284	
Frequency	2350.00	MHz	
Channel	test		
Scan Axis name	Azimuth  [deg]		
Scan Axis	Amplitude	Phase	
			
0.00	-15.310	-91.957	
1.00	-15.275	-92.299	
2.00	-15.226	-92.852	
3.00	-15.167	-93.450	
4.00	-15.099	-94.181	
5.00	-15.018	-94.982	
6.00	-14.926	-95.889	
7.00	-14.832	-96.883	
8.00	-14.730	-97.888	
9.00	-14.614	-98.971	
10.00	-14.494	-100.046	
11.00	-14.368	-101.146	
12.00	-14.242	-102.217	
13.00	-14.106	-103.333	
14.00	-13.977	-104.439	
15.00	-13.835	-105.556	
16.00	-13.693	-106.634	
17.00	-13.555	-107.723	
18.00	-13.408	-108.773	
19.00	-13.259	-109.847	
20.00	-13.109	-110.868	
21.00	-12.968	-111.855	
22.00	-12.816	-112.835	
23.00	-12.667	-113.780	
24.00	-12.518	-114.694	
25.00	-12.371	-115.563	
26.00	-12.229	-116.392	
27.00	-12.086	-117.225	
28.00	-11.951	-117.909	
29.00	-11.817	-118.615	
30.00	-11.696	-119.256	
31.00	-11.572	-119.864	
32.00	-11.464	-120.359	
33.00	-11.363	-120.871	
34.00	-11.271	-121.282	
35.00	-11.188	-121.618	
36.00	-11.114	-121.942	
37.00	-11.055	-122.161	
38.00	-10.996	-122.282	
39.00	-10.961	-122.420	
40.00	-10.929	-122.465	
41.00	-10.910	-122.408	
42.00	-10.905	-122.311	
43.00	-10.904	-122.121	
44.00	-10.922	-121.911	
45.00	-10.948	-121.623	
46.00	-10.985	-121.236	
47.00	-11.029	-120.814	
48.00	-11.081	-120.261	
49.00	-11.154	-119.694	
50.00	-11.232	-118.981	
51.00	-11.315	-118.214	
52.00	-11.388	-117.425	
53.00	-11.491	-116.522	
54.00	-11.604	-115.572	
55.00	-11.721	-114.503	
56.00	-11.838	-113.338	
57.00	-11.963	-112.112	
58.00	-12.100	-110.851	
59.00	-12.232	-109.435	
60.00	-12.369	-107.961	
61.00	-12.515	-106.442	
62.00	-12.665	-104.912	
63.00	-12.797	-103.241	
64.00	-12.945	-101.514	
65.00	-13.094	-99.739	
66.00	-13.234	-97.937	
67.00	-13.364	-96.075	
68.00	-13.504	-94.159	
69.00	-13.625	-92.267	
70.00	-13.745	-90.366	
71.00	-13.873	-88.454	
72.00	-13.979	-86.588	
73.00	-14.069	-84.670	
74.00	-14.163	-82.838	
75.00	-14.244	-81.113	
76.00	-14.315	-79.348	
77.00	-14.389	-77.745	
78.00	-14.444	-76.194	
79.00	-14.500	-74.765	
80.00	-14.548	-73.456	
81.00	-14.583	-72.299	
82.00	-14.618	-71.263	
83.00	-14.651	-70.322	
84.00	-14.681	-69.561	
85.00	-14.697	-68.938	
86.00	-14.721	-68.513	
87.00	-14.732	-68.233	
88.00	-14.746	-68.093	
89.00	-14.749	-68.112	
90.00	-14.763	-68.388	
91.00	-14.764	-68.710	
92.00	-14.752	-69.247	
93.00	-14.753	-69.922	
94.00	-14.727	-70.789	
95.00	-14.711	-71.782	
96.00	-14.673	-72.881	
97.00	-14.627	-74.139	
98.00	-14.570	-75.510	
99.00	-14.508	-76.901	
100.00	-14.419	-78.477	
101.00	-14.332	-80.012	
102.00	-14.233	-81.625	
103.00	-14.117	-83.346	
104.00	-13.996	-85.014	
105.00	-13.852	-86.694	
106.00	-13.715	-88.346	
107.00	-13.557	-89.971	
108.00	-13.398	-91.636	
109.00	-13.229	-93.221	
110.00	-13.064	-94.738	
111.00	-12.894	-96.169	
112.00	-12.717	-97.593	
113.00	-12.551	-98.929	
114.00	-12.377	-100.166	
115.00	-12.209	-101.350	
116.00	-12.048	-102.473	
117.00	-11.887	-103.482	
118.00	-11.742	-104.469	
119.00	-11.599	-105.362	
120.00	-11.466	-106.163	
121.00	-11.345	-106.899	
122.00	-11.229	-107.584	
123.00	-11.122	-108.208	
124.00	-11.027	-108.741	
125.00	-10.939	-109.249	
126.00	-10.870	-109.640	
127.00	-10.804	-110.020	
128.00	-10.750	-110.323	
129.00	-10.720	-110.537	
130.00	-10.687	-110.722	
131.00	-10.669	-110.840	
132.00	-10.670	-110.892	
133.00	-10.680	-110.915	
134.00	-10.697	-110.897	
135.00	-10.733	-110.791	
136.00	-10.775	-110.666	
137.00	-10.829	-110.450	
138.00	-10.900	-110.186	
139.00	-10.981	-109.897	
140.00	-11.066	-109.529	
141.00	-11.164	-109.145	
142.00	-11.279	-108.658	
143.00	-11.394	-108.148	
144.00	-11.517	-107.568	
145.00	-11.657	-106.847	
146.00	-11.798	-106.147	
147.00	-11.947	-105.349	
148.00	-12.101	-104.450	
149.00	-12.259	-103.493	
150.00	-12.416	-102.443	
151.00	-12.580	-101.371	
152.00	-12.741	-100.158	
153.00	-12.894	-98.912	
154.00	-13.053	-97.629	
155.00	-13.208	-96.212	
156.00	-13.348	-94.753	
157.00	-13.487	-93.294	
158.00	-13.615	-91.748	
159.00	-13.722	-90.157	
160.00	-13.827	-88.595	
161.00	-13.928	-87.035	
162.00	-14.014	-85.563	
163.00	-14.085	-84.176	
164.00	-14.148	-82.779	
165.00	-14.210	-81.376	
166.00	-14.258	-80.129	
167.00	-14.307	-79.084	
168.00	-14.351	-78.074	
169.00	-14.394	-77.222	
170.00	-14.430	-76.491	
171.00	-14.480	-75.915	
172.00	-14.523	-75.552	
173.00	-14.557	-75.189	
174.00	-14.605	-75.066	
175.00	-14.646	-75.097	
176.00	-14.691	-75.253	
177.00	-14.721	-75.516	
178.00	-14.756	-75.885	
179.00	-14.779	-76.503	
180.00	-14.798	-77.130	
181.00	-14.801	-77.997	
182.00	-14.789	-78.831	
183.00	-14.766	-79.883	
184.00	-14.733	-81.082	
185.00	-14.680	-82.305	
186.00	-14.603	-83.566	
187.00	-14.522	-84.894	
188.00	-14.408	-86.333	
189.00	-14.293	-87.824	
190.00	-14.161	-89.357	
191.00	-14.016	-90.856	
192.00	-13.865	-92.499	
193.00	-13.697	-94.049	
194.00	-13.531	-95.630	
195.00	-13.358	-97.280	
196.00	-13.180	-98.878	
197.00	-13.007	-100.550	
198.00	-12.830	-102.170	
199.00	-12.656	-103.757	
200.00	-12.481	-105.285	
201.00	-12.321	-106.920	
202.00	-12.147	-108.416	
203.00	-11.990	-109.872	
204.00	-11.837	-111.293	
205.00	-11.684	-112.697	
206.00	-11.529	-114.245	
207.00	-11.397	-115.463	
208.00	-11.273	-116.655	
209.00	-11.141	-117.786	
210.00	-11.024	-118.857	
211.00	-10.915	-119.846	
212.00	-10.811	-120.788	
213.00	-10.717	-121.596	
214.00	-10.631	-122.369	
215.00	-10.554	-123.076	
216.00	-10.479	-123.684	
217.00	-10.418	-124.224	
218.00	-10.362	-124.717	
219.00	-10.319	-125.093	
220.00	-10.284	-125.521	
221.00	-10.259	-125.778	
222.00	-10.238	-125.984	
223.00	-10.230	-126.191	
224.00	-10.232	-126.331	
225.00	-10.249	-126.422	
226.00	-10.275	-126.487	
227.00	-10.316	-126.503	
228.00	-10.365	-126.481	
229.00	-10.424	-126.410	
230.00	-10.497	-126.253	
231.00	-10.581	-126.138	
232.00	-10.678	-125.937	
233.00	-10.786	-125.686	
234.00	-10.910	-125.368	
235.00	-11.040	-125.026	
236.00	-11.186	-124.642	
237.00	-11.342	-124.176	
238.00	-11.508	-123.635	
239.00	-11.681	-123.042	
240.00	-11.869	-122.366	
241.00	-12.055	-121.639	
242.00	-12.260	-120.803	
243.00	-12.469	-119.902	
244.00	-12.666	-118.932	
245.00	-12.890	-117.848	
246.00	-13.093	-116.676	
247.00	-13.308	-115.468	
248.00	-13.518	-114.173	
249.00	-13.711	-112.766	
250.00	-13.915	-111.320	
251.00	-14.104	-109.849	
252.00	-14.272	-108.322	
253.00	-14.436	-106.774	
254.00	-14.579	-105.139	
255.00	-14.712	-103.606	
256.00	-14.825	-102.117	
257.00	-14.930	-100.669	
258.00	-15.012	-99.261	
259.00	-15.086	-97.950	
260.00	-15.131	-96.768	
261.00	-15.185	-95.750	
262.00	-15.210	-94.795	
263.00	-15.233	-93.993	
264.00	-15.234	-93.355	
265.00	-15.245	-92.899	
266.00	-15.233	-92.642	
267.00	-15.220	-92.527	
268.00	-15.208	-92.549	
269.00	-15.183	-92.788	
270.00	-15.156	-93.165	
271.00	-15.122	-93.717	
272.00	-15.098	-94.365	
273.00	-15.056	-95.267	
274.00	-15.008	-96.277	
275.00	-14.946	-97.423	
276.00	-14.891	-98.675	
277.00	-14.823	-99.998	
278.00	-14.749	-101.464	
279.00	-14.656	-103.017	
280.00	-14.569	-104.648	
281.00	-14.466	-106.351	
282.00	-14.348	-108.072	
283.00	-14.226	-109.783	
284.00	-14.095	-111.552	
285.00	-13.952	-113.295	
286.00	-13.803	-115.090	
287.00	-13.647	-116.800	
288.00	-13.488	-118.474	
289.00	-13.313	-120.145	
290.00	-13.151	-121.647	
291.00	-12.976	-123.158	
292.00	-12.808	-124.590	
293.00	-12.634	-125.969	
294.00	-12.468	-127.286	
295.00	-12.299	-128.498	
296.00	-12.139	-129.650	
297.00	-11.982	-130.693	
298.00	-11.831	-131.706	
299.00	-11.687	-132.583	
300.00	-11.555	-133.438	
301.00	-11.429	-134.219	
302.00	-11.314	-134.930	
303.00	-11.204	-135.499	
304.00	-11.110	-136.049	
305.00	-11.027	-136.567	
306.00	-10.950	-136.992	
307.00	-10.895	-137.337	
308.00	-10.844	-137.627	
309.00	-10.806	-137.901	
310.00	-10.784	-138.106	
311.00	-10.773	-138.213	
312.00	-10.776	-138.306	
313.00	-10.788	-138.343	
314.00	-10.816	-138.279	
315.00	-10.853	-138.161	
316.00	-10.909	-138.016	
317.00	-10.977	-137.786	
318.00	-11.052	-137.512	
319.00	-11.139	-137.149	
320.00	-11.245	-136.728	
321.00	-11.351	-136.224	
322.00	-11.467	-135.690	
323.00	-11.594	-135.066	
324.00	-11.731	-134.349	
325.00	-11.881	-133.546	
326.00	-12.027	-132.706	
327.00	-12.182	-131.789	
328.00	-12.347	-130.775	
329.00	-12.503	-129.717	
330.00	-12.677	-128.481	
331.00	-12.842	-127.218	
332.00	-13.004	-125.931	
333.00	-13.177	-124.451	
334.00	-13.336	-122.981	
335.00	-13.498	-121.394	
336.00	-13.655	-119.763	
337.00	-13.808	-118.068	
338.00	-13.958	-116.331	
339.00	-14.099	-114.523	
340.00	-14.234	-112.655	
341.00	-14.368	-110.782	
342.00	-14.485	-108.882	
343.00	-14.600	-106.986	
344.00	-14.714	-105.077	
345.00	-14.810	-103.200	
346.00	-14.906	-101.367	
347.00	-14.980	-99.615	
348.00	-15.061	-97.912	
349.00	-15.120	-96.268	
350.00	-15.180	-94.804	
351.00	-15.223	-93.467	
352.00	-15.258	-92.214	
353.00	-15.295	-91.165	
354.00	-15.313	-90.306	
355.00	-15.321	-89.561	
356.00	-15.326	-89.030	
357.00	-15.324	-88.688	
358.00	-15.304	-88.666	
359.00	-15.296	-88.611	
Frequency	2400.00	MHz	
Channel	test		
Scan Axis name	Azimuth  [deg]		
Scan Axis	Amplitude	Phase	
			
0.00	-14.728	64.104	
1.00	-14.675	63.892	
2.00	-14.626	63.547	
3.00	-14.566	63.104	
4.00	-14.516	62.607	
5.00	-14.455	61.923	
6.00	-14.396	61.271	
7.00	-14.330	60.488	
8.00	-14.264	59.588	
9.00	-14.195	58.646	
10.00	-14.124	57.607	
11.00	-14.050	56.603	
12.00	-13.966	55.506	
13.00	-13.886	54.383	
14.00	-13.799	53.214	
15.00	-13.704	52.037	
16.00	-13.605	50.750	
17.00	-13.500	49.524	
18.00	-13.396	48.226	
19.00	-13.281	46.917	
20.00	-13.161	45.630	
21.00	-13.041	44.309	
22.00	-12.913	43.034	
23.00	-12.780	41.727	
24.00	-12.652	40.480	
25.00	-12.504	39.255	
26.00	-12.361	38.110	
27.00	-12.221	36.966	
28.00	-12.081	35.920	
29.00	-11.931	34.948	
30.00	-11.796	34.110	
31.00	-11.665	33.309	
32.00	-11.541	32.582	
33.00	-11.423	32.002	
34.00	-11.319	31.500	
35.00	-11.217	31.053	
36.00	-11.127	30.760	
37.00	-11.053	30.492	
38.00	-10.992	30.385	
39.00	-10.943	30.339	
40.00	-10.908	30.396	
41.00	-10.888	30.558	
42.00	-10.881	30.741	
43.00	-10.891	31.038	
44.00	-10.905	31.394	
45.00	-10.948	31.837	
46.00	-10.992	32.360	
47.00	-11.051	32.941	
48.00	-11.128	33.611	
49.00	-11.208	34.314	
50.00	-11.306	35.057	
51.00	-11.407	35.956	
52.00	-11.521	36.851	
53.00	-11.644	37.849	
54.00	-11.773	38.862	
55.00	-11.909	39.984	
56.00	-12.058	41.206	
57.00	-12.205	42.505	
58.00	-12.369	43.811	
59.00	-12.525	45.188	
60.00	-12.683	46.688	
61.00	-12.852	48.194	
62.00	-13.015	49.805	
63.00	-13.184	51.427	
64.00	-13.343	53.134	
65.00	-13.509	54.941	
66.00	-13.660	56.777	
67.00	-13.814	58.607	
68.00	-13.957	60.546	
69.00	-14.094	62.476	
70.00	-14.217	64.409	
71.00	-14.341	66.347	
72.00	-14.451	68.297	
73.00	-14.545	70.181	
74.00	-14.628	72.058	
75.00	-14.705	73.863	
76.00	-14.774	75.663	
77.00	-14.838	77.302	
78.00	-14.887	78.885	
79.00	-14.930	80.327	
80.00	-14.968	81.598	
81.00	-14.994	82.853	
82.00	-15.018	83.884	
83.00	-15.023	84.832	
84.00	-15.038	85.621	
85.00	-15.048	86.195	
86.00	-15.049	86.686	
87.00	-15.056	86.951	
88.00	-15.053	87.120	
89.00	-15.051	87.046	
90.00	-15.048	86.844	
91.00	-15.038	86.487	
92.00	-15.016	85.973	
93.00	-15.009	85.319	
94.00	-14.976	84.501	
95.00	-14.945	83.523	
96.00	-14.908	82.492	
97.00	-14.861	81.286	
98.00	-14.803	79.952	
99.00	-14.737	78.553	
100.00	-14.663	77.113	
101.00	-14.568	75.580	
102.00	-14.480	73.973	
103.00	-14.376	72.368	
104.00	-14.260	70.697	
105.00	-14.127	68.991	
106.00	-13.991	67.322	
107.00	-13.850	65.675	
108.00	-13.695	64.027	
109.00	-13.536	62.435	
110.00	-13.380	60.885	
111.00	-13.212	59.342	
112.00	-13.047	57.877	
113.00	-12.879	56.551	
114.00	-12.712	55.175	
115.00	-12.544	53.868	
116.00	-12.387	52.736	
117.00	-12.226	51.597	
118.00	-12.075	50.535	
119.00	-11.924	49.526	
120.00	-11.786	48.621	
121.00	-11.655	47.738	
122.00	-11.525	46.953	
123.00	-11.415	46.210	
124.00	-11.304	45.554	
125.00	-11.205	44.933	
126.00	-11.116	44.382	
127.00	-11.037	43.905	
128.00	-10.971	43.489	
129.00	-10.921	43.150	
130.00	-10.879	42.860	
131.00	-10.849	42.648	
132.00	-10.834	42.488	
133.00	-10.832	42.357	
134.00	-10.846	42.282	
135.00	-10.869	42.257	
136.00	-10.900	42.330	
137.00	-10.953	42.479	
138.00	-11.015	42.624	
139.00	-11.095	42.837	
140.00	-11.183	43.131	
141.00	-11.284	43.484	
142.00	-11.404	43.913	
143.00	-11.535	44.424	
144.00	-11.678	44.983	
145.00	-11.828	45.569	
146.00	-11.986	46.317	
147.00	-12.160	47.089	
148.00	-12.339	47.942	
149.00	-12.528	48.931	
150.00	-12.717	49.986	
151.00	-12.914	51.098	
152.00	-13.113	52.395	
153.00	-13.310	53.710	
154.00	-13.504	55.146	
155.00	-13.697	56.678	
156.00	-13.875	58.300	
157.00	-14.051	60.061	
158.00	-14.201	61.808	
159.00	-14.341	63.724	
160.00	-14.464	65.542	
161.00	-14.569	67.413	
162.00	-14.652	69.233	
163.00	-14.713	70.938	
164.00	-14.762	72.695	
165.00	-14.785	74.352	
166.00	-14.806	75.861	
167.00	-14.816	77.192	
168.00	-14.814	78.415	
169.00	-14.808	79.447	
170.00	-14.799	80.317	
171.00	-14.791	81.007	
172.00	-14.774	81.520	
173.00	-14.764	81.858	
174.00	-14.763	82.033	
175.00	-14.759	81.950	
176.00	-14.757	81.846	
177.00	-14.754	81.544	
178.00	-14.747	81.048	
179.00	-14.743	80.491	
180.00	-14.741	79.699	
181.00	-14.727	78.805	
182.00	-14.700	77.777	
183.00	-14.675	76.599	
184.00	-14.631	75.372	
185.00	-14.586	73.963	
186.00	-14.517	72.611	
187.00	-14.441	71.013	
188.00	-14.343	69.462	
189.00	-14.224	67.835	
190.00	-14.108	66.102	
191.00	-13.969	64.357	
192.00	-13.831	62.614	
193.00	-13.678	60.792	
194.00	-13.521	58.981	
195.00	-13.359	57.146	
196.00	-13.192	55.314	
197.00	-13.024	53.496	
198.00	-12.856	51.691	
199.00	-12.694	49.911	
200.00	-12.537	48.196	
201.00	-12.382	46.489	
202.00	-12.229	44.828	
203.00	-12.084	43.285	
204.00	-11.942	41.695	
205.00	-11.815	40.198	
206.00	-11.683	38.618	
207.00	-11.565	37.327	
208.00	-11.456	36.057	
209.00	-11.356	34.869	
210.00	-11.262	33.770	
211.00	-11.178	32.728	
212.00	-11.107	31.732	
213.00	-11.035	30.861	
214.00	-10.972	30.051	
215.00	-10.925	29.315	
216.00	-10.887	28.665	
217.00	-10.851	28.142	
218.00	-10.827	27.627	
219.00	-10.804	27.232	
220.00	-10.797	26.847	
221.00	-10.803	26.600	
222.00	-10.811	26.420	
223.00	-10.833	26.247	
224.00	-10.866	26.153	
225.00	-10.907	26.138	
226.00	-10.963	26.176	
227.00	-11.019	26.256	
228.00	-11.089	26.433	
229.00	-11.179	26.629	
230.00	-11.270	26.929	
231.00	-11.372	27.275	
232.00	-11.481	27.690	
233.00	-11.604	28.136	
234.00	-11.734	28.683	
235.00	-11.873	29.283	
236.00	-12.020	29.963	
237.00	-12.170	30.681	
238.00	-12.331	31.513	
239.00	-12.499	32.379	
240.00	-12.673	33.359	
241.00	-12.841	34.365	
242.00	-13.027	35.463	
243.00	-13.196	36.650	
244.00	-13.372	37.862	
245.00	-13.555	39.238	
246.00	-13.730	40.590	
247.00	-13.894	41.999	
248.00	-14.068	43.517	
249.00	-14.216	44.986	
250.00	-14.359	46.502	
251.00	-14.495	48.072	
252.00	-14.613	49.580	
253.00	-14.738	51.153	
254.00	-14.826	52.617	
255.00	-14.928	54.072	
256.00	-14.992	55.446	
257.00	-15.061	56.763	
258.00	-15.112	57.958	
259.00	-15.149	59.070	
260.00	-15.175	60.096	
261.00	-15.202	60.900	
262.00	-15.208	61.670	
263.00	-15.220	62.216	
264.00	-15.213	62.685	
265.00	-15.207	62.981	
266.00	-15.183	63.089	
267.00	-15.178	63.015	
268.00	-15.149	62.858	
269.00	-15.123	62.463	
270.00	-15.091	61.995	
271.00	-15.057	61.346	
272.00	-15.025	60.582	
273.00	-14.978	59.670	
274.00	-14.931	58.566	
275.00	-14.873	57.407	
276.00	-14.815	56.185	
277.00	-14.746	54.807	
278.00	-14.685	53.340	
279.00	-14.595	51.826	
280.00	-14.512	50.269	
281.00	-14.421	48.549	
282.00	-14.318	46.930	
283.00	-14.218	45.249	
284.00	-14.106	43.540	
285.00	-13.982	41.784	
286.00	-13.859	40.120	
287.00	-13.730	38.408	
288.00	-13.595	36.792	
289.00	-13.462	35.175	
290.00	-13.325	33.674	
291.00	-13.187	32.179	
292.00	-13.045	30.701	
293.00	-12.915	29.331	
294.00	-12.782	27.991	
295.00	-12.647	26.743	
296.00	-12.518	25.542	
297.00	-12.400	24.439	
298.00	-12.271	23.393	
299.00	-12.158	22.404	
300.00	-12.050	21.539	
301.00	-11.948	20.655	
302.00	-11.850	19.893	
303.00	-11.761	19.193	
304.00	-11.682	18.545	
305.00	-11.615	17.935	
306.00	-11.546	17.455	
307.00	-11.491	16.992	
308.00	-11.444	16.607	
309.00	-11.400	16.276	
310.00	-11.378	15.998	
311.00	-11.356	15.842	
312.00	-11.353	15.660	
313.00	-11.350	15.574	
314.00	-11.365	15.581	
315.00	-11.395	15.650	
316.00	-11.427	15.810	
317.00	-11.469	16.008	
318.00	-11.537	16.279	
319.00	-11.595	16.599	
320.00	-11.676	17.052	
321.00	-11.768	17.517	
322.00	-11.869	18.096	
323.00	-11.971	18.785	
324.00	-12.096	19.558	
325.00	-12.224	20.377	
326.00	-12.356	21.298	
327.00	-12.502	22.301	
328.00	-12.654	23.452	
329.00	-12.809	24.608	
330.00	-12.966	25.944	
331.00	-13.135	27.335	
332.00	-13.290	28.868	
333.00	-13.458	30.351	
334.00	-13.619	32.059	
335.00	-13.772	33.788	
336.00	-13.930	35.602	
337.00	-14.075	37.451	
338.00	-14.212	39.445	
339.00	-14.347	41.367	
340.00	-14.466	43.382	
341.00	-14.577	45.372	
342.00	-14.667	47.448	
343.00	-14.752	49.403	
344.00	-14.823	51.355	
345.00	-14.880	53.303	
346.00	-14.927	55.152	
347.00	-14.958	56.894	
348.00	-14.978	58.595	
349.00	-14.983	60.176	
350.00	-14.983	61.553	
351.00	-14.981	62.915	
352.00	-14.963	64.076	
353.00	-14.941	65.060	
354.00	-14.913	65.889	
355.00	-14.876	66.614	
356.00	-14.846	67.127	
357.00	-14.812	67.522	
358.00	-14.771	67.707	
359.00	-14.735	67.813	
Frequency	2450.00	MHz	
Channel	test		
Scan Axis name	Azimuth  [deg]		
Scan Axis	Amplitude	Phase	
			
0.00	-14.068	-138.038	
1.00	-14.050	-138.187	
2.00	-14.037	-138.478	
3.00	-14.020	-138.899	
4.00	-14.012	-139.365	
5.00	-13.997	-140.104	
6.00	-13.983	-140.872	
7.00	-13.960	-141.823	
8.00	-13.934	-142.856	
9.00	-13.901	-144.004	
10.00	-13.850	-145.318	
11.00	-13.798	-146.616	
12.00	-13.728	-147.957	
13.00	-13.649	-149.401	
14.00	-13.554	-150.847	
15.00	-13.449	-152.385	
16.00	-13.336	-153.882	
17.00	-13.205	-155.338	
18.00	-13.070	-156.854	
19.00	-12.926	-158.343	
20.00	-12.783	-159.723	
21.00	-12.628	-161.098	
22.00	-12.474	-162.429	
23.00	-12.317	-163.647	
24.00	-12.165	-164.862	
25.00	-12.011	-166.009	
26.00	-11.862	-167.054	
27.00	-11.722	-168.055	
28.00	-11.586	-168.961	
29.00	-11.461	-169.786	
30.00	-11.342	-170.523	
31.00	-11.238	-171.192	
32.00	-11.146	-171.814	
33.00	-11.060	-172.324	
34.00	-10.990	-172.765	
35.00	-10.934	-173.128	
36.00	-10.882	-173.486	
37.00	-10.843	-173.712	
38.00	-10.823	-173.840	
39.00	-10.814	-173.943	
40.00	-10.822	-173.969	
41.00	-10.830	-173.923	
42.00	-10.857	-173.812	
43.00	-10.893	-173.651	
44.00	-10.940	-173.421	
45.00	-11.000	-173.097	
46.00	-11.073	-172.752	
47.00	-11.149	-172.343	
48.00	-11.241	-171.869	
49.00	-11.338	-171.291	
50.00	-11.437	-170.662	
51.00	-11.553	-169.965	
52.00	-11.675	-169.225	
53.00	-11.796	-168.379	
54.00	-11.937	-167.419	
55.00	-12.077	-166.438	
56.00	-12.220	-165.329	
57.00	-12.377	-164.174	
58.00	-12.524	-162.919	
59.00	-12.682	-161.564	
60.00	-12.848	-160.166	
61.00	-13.008	-158.641	
62.00	-13.170	-157.062	
63.00	-13.330	-155.371	
64.00	-13.486	-153.657	
65.00	-13.645	-151.832	
66.00	-13.805	-149.944	
67.00	-13.938	-147.989	
68.00	-14.075	-146.002	
69.00	-14.199	-143.975	
70.00	-14.316	-141.924	
71.00	-14.427	-139.918	
72.00	-14.522	-137.859	
73.00	-14.593	-135.831	
74.00	-14.672	-133.919	
75.00	-14.728	-132.032	
76.00	-14.775	-130.138	
77.00	-14.810	-128.430	
78.00	-14.836	-126.797	
79.00	-14.856	-125.331	
80.00	-14.867	-123.947	
81.00	-14.878	-122.720	
82.00	-14.872	-121.666	
83.00	-14.866	-120.777	
84.00	-14.852	-119.972	
85.00	-14.836	-119.392	
86.00	-14.825	-118.919	
87.00	-14.810	-118.663	
88.00	-14.787	-118.551	
89.00	-14.772	-118.601	
90.00	-14.756	-118.809	
91.00	-14.726	-119.201	
92.00	-14.698	-119.731	
93.00	-14.677	-120.360	
94.00	-14.641	-121.221	
95.00	-14.611	-122.119	
96.00	-14.575	-123.260	
97.00	-14.527	-124.435	
98.00	-14.474	-125.779	
99.00	-14.415	-127.132	
100.00	-14.354	-128.613	
101.00	-14.279	-130.176	
102.00	-14.193	-131.761	
103.00	-14.105	-133.399	
104.00	-13.998	-135.093	
105.00	-13.892	-136.793	
106.00	-13.780	-138.515	
107.00	-13.657	-140.261	
108.00	-13.530	-141.929	
109.00	-13.388	-143.617	
110.00	-13.250	-145.255	
111.00	-13.104	-146.853	
112.00	-12.952	-148.371	
113.00	-12.805	-149.817	
114.00	-12.656	-151.242	
115.00	-12.504	-152.571	
116.00	-12.360	-153.829	
117.00	-12.214	-154.987	
118.00	-12.078	-156.090	
119.00	-11.938	-157.111	
120.00	-11.811	-158.104	
121.00	-11.689	-158.966	
122.00	-11.577	-159.761	
123.00	-11.472	-160.489	
124.00	-11.372	-161.094	
125.00	-11.288	-161.692	
126.00	-11.215	-162.165	
127.00	-11.143	-162.603	
128.00	-11.089	-162.943	
129.00	-11.051	-163.203	
130.00	-11.017	-163.411	
131.00	-10.996	-163.556	
132.00	-10.984	-163.557	
133.00	-10.991	-163.533	
134.00	-11.012	-163.484	
135.00	-11.038	-163.351	
136.00	-11.079	-163.142	
137.00	-11.132	-162.898	
138.00	-11.198	-162.571	
139.00	-11.270	-162.169	
140.00	-11.357	-161.731	
141.00	-11.453	-161.245	
142.00	-11.561	-160.665	
143.00	-11.680	-160.035	
144.00	-11.801	-159.351	
145.00	-11.936	-158.593	
146.00	-12.084	-157.868	
147.00	-12.229	-157.033	
148.00	-12.391	-156.163	
149.00	-12.551	-155.195	
150.00	-12.717	-154.226	
151.00	-12.891	-153.197	
152.00	-13.066	-152.118	
153.00	-13.246	-150.939	
154.00	-13.425	-149.716	
155.00	-13.608	-148.386	
156.00	-13.783	-146.988	
157.00	-13.957	-145.526	
158.00	-14.126	-144.003	
159.00	-14.280	-142.399	
160.00	-14.418	-140.726	
161.00	-14.550	-139.010	
162.00	-14.652	-137.277	
163.00	-14.748	-135.669	
164.00	-14.816	-133.849	
165.00	-14.873	-132.106	
166.00	-14.904	-130.473	
167.00	-14.916	-129.005	
168.00	-14.916	-127.625	
169.00	-14.892	-126.327	
170.00	-14.872	-125.212	
171.00	-14.835	-124.320	
172.00	-14.793	-123.628	
173.00	-14.748	-123.077	
174.00	-14.711	-122.856	
175.00	-14.665	-122.712	
176.00	-14.627	-122.761	
177.00	-14.582	-123.020	
178.00	-14.551	-123.425	
179.00	-14.512	-124.057	
180.00	-14.476	-124.844	
181.00	-14.439	-125.783	
182.00	-14.402	-126.823	
183.00	-14.355	-128.075	
184.00	-14.295	-129.367	
185.00	-14.235	-130.809	
186.00	-14.161	-132.283	
187.00	-14.074	-133.822	
188.00	-13.975	-135.462	
189.00	-13.866	-137.202	
190.00	-13.743	-138.889	
191.00	-13.613	-140.696	
192.00	-13.464	-142.499	
193.00	-13.314	-144.355	
194.00	-13.150	-146.171	
195.00	-12.996	-148.041	
196.00	-12.831	-149.884	
197.00	-12.666	-151.680	
198.00	-12.503	-153.512	
199.00	-12.340	-155.308	
200.00	-12.182	-157.077	
201.00	-12.033	-158.813	
202.00	-11.882	-160.562	
203.00	-11.744	-162.171	
204.00	-11.610	-163.788	
205.00	-11.475	-165.384	
206.00	-11.358	-167.076	
207.00	-11.245	-168.471	
208.00	-11.140	-169.825	
209.00	-11.042	-171.131	
210.00	-10.955	-172.333	
211.00	-10.878	-173.557	
212.00	-10.802	-174.680	
213.00	-10.743	-175.732	
214.00	-10.688	-176.700	
215.00	-10.639	-177.589	
216.00	-10.601	-178.412	
217.00	-10.573	-179.105	
218.00	-10.557	-179.791	
219.00	-10.538	179.626	
220.00	-10.543	179.032	
221.00	-10.557	178.620	
222.00	-10.582	178.235	
223.00	-10.609	177.885	
224.00	-10.663	177.672	
225.00	-10.721	177.485	
226.00	-10.797	177.399	
227.00	-10.878	177.347	
228.00	-10.972	177.420	
229.00	-11.086	177.515	
230.00	-11.212	177.746	
231.00	-11.351	178.045	
232.00	-11.499	178.420	
233.00	-11.659	178.973	
234.00	-11.826	179.574	
235.00	-12.014	-179.749	
236.00	-12.199	-178.939	
237.00	-12.394	-177.982	
238.00	-12.599	-176.937	
239.00	-12.799	-175.768	
240.00	-13.010	-174.499	
241.00	-13.213	-173.104	
242.00	-13.420	-171.547	
243.00	-13.612	-169.959	
244.00	-13.791	-168.218	
245.00	-13.971	-166.391	
246.00	-14.136	-164.505	
247.00	-14.286	-162.570	
248.00	-14.411	-160.545	
249.00	-14.517	-158.568	
250.00	-14.622	-156.560	
251.00	-14.699	-154.601	
252.00	-14.746	-152.705	
253.00	-14.791	-150.838	
254.00	-14.809	-149.152	
255.00	-14.818	-147.446	
256.00	-14.818	-145.989	
257.00	-14.799	-144.571	
258.00	-14.778	-143.349	
259.00	-14.742	-142.258	
260.00	-14.702	-141.316	
261.00	-14.663	-140.527	
262.00	-14.616	-139.885	
263.00	-14.571	-139.468	
264.00	-14.523	-139.115	
265.00	-14.475	-138.951	
266.00	-14.430	-138.957	
267.00	-14.382	-139.112	
268.00	-14.340	-139.383	
269.00	-14.303	-139.860	
270.00	-14.257	-140.390	
271.00	-14.224	-141.122	
272.00	-14.178	-141.931	
273.00	-14.136	-142.861	
274.00	-14.099	-143.950	
275.00	-14.055	-145.168	
276.00	-14.010	-146.419	
277.00	-13.963	-147.767	
278.00	-13.910	-149.230	
279.00	-13.865	-150.783	
280.00	-13.808	-152.469	
281.00	-13.749	-154.097	
282.00	-13.678	-155.885	
283.00	-13.605	-157.671	
284.00	-13.526	-159.493	
285.00	-13.441	-161.317	
286.00	-13.350	-163.171	
287.00	-13.260	-165.060	
288.00	-13.163	-166.889	
289.00	-13.051	-168.696	
290.00	-12.945	-170.480	
291.00	-12.826	-172.190	
292.00	-12.712	-173.857	
293.00	-12.598	-175.517	
294.00	-12.487	-177.076	
295.00	-12.363	-178.574	
296.00	-12.243	180.000	
297.00	-12.127	178.630	
298.00	-12.021	177.340	
299.00	-11.906	176.141	
300.00	-11.804	175.049	
301.00	-11.700	173.994	
302.00	-11.605	173.049	
303.00	-11.518	172.176	
304.00	-11.444	171.454	
305.00	-11.364	170.748	
306.00	-11.302	170.175	
307.00	-11.243	169.647	
308.00	-11.196	169.202	
309.00	-11.155	168.820	
310.00	-11.127	168.551	
311.00	-11.111	168.387	
312.00	-11.106	168.278	
313.00	-11.109	168.248	
314.00	-11.122	168.323	
315.00	-11.145	168.440	
316.00	-11.187	168.697	
317.00	-11.231	168.992	
318.00	-11.300	169.371	
319.00	-11.371	169.827	
320.00	-11.455	170.364	
321.00	-11.557	170.990	
322.00	-11.653	171.657	
323.00	-11.776	172.469	
324.00	-11.902	173.333	
325.00	-12.043	174.310	
326.00	-12.190	175.359	
327.00	-12.348	176.516	
328.00	-12.514	177.743	
329.00	-12.688	179.028	
330.00	-12.862	-179.531	
331.00	-13.035	-177.992	
332.00	-13.220	-176.345	
333.00	-13.388	-174.630	
334.00	-13.560	-172.876	
335.00	-13.730	-170.941	
336.00	-13.891	-168.980	
337.00	-14.045	-166.966	
338.00	-14.179	-164.816	
339.00	-14.301	-162.701	
340.00	-14.402	-160.542	
341.00	-14.487	-158.301	
342.00	-14.555	-156.099	
343.00	-14.599	-154.012	
344.00	-14.632	-151.903	
345.00	-14.649	-149.874	
346.00	-14.637	-147.866	
347.00	-14.623	-146.039	
348.00	-14.592	-144.257	
349.00	-14.550	-142.660	
350.00	-14.510	-141.237	
351.00	-14.455	-139.917	
352.00	-14.401	-138.796	
353.00	-14.353	-137.757	
354.00	-14.300	-136.883	
355.00	-14.258	-136.136	
356.00	-14.213	-135.611	
357.00	-14.183	-135.184	
358.00	-14.143	-134.991	
359.00	-14.123	-134.840	
Frequency	2500.00	MHz	
Channel	test		
Scan Axis name	Azimuth  [deg]		
Scan Axis	Amplitude	Phase	
			
0.00	-14.585	16.672	
1.00	-14.553	16.209	
2.00	-14.523	15.756	
3.00	-14.483	15.086	
4.00	-14.452	14.400	
5.00	-14.410	13.605	
6.00	-14.362	12.698	
7.00	-14.306	11.718	
8.00	-14.242	10.608	
9.00	-14.164	9.487	
10.00	-14.089	8.232	
11.00	-14.001	7.025	
12.00	-13.892	5.765	
13.00	-13.785	4.476	
14.00	-13.668	3.139	
15.00	-13.547	1.789	
16.00	-13.410	0.450	
17.00	-13.273	-0.879	
18.00	-13.133	-2.186	
19.00	-12.991	-3.513	
20.00	-12.853	-4.817	
21.00	-12.707	-6.075	
22.00	-12.570	-7.241	
23.00	-12.437	-8.448	
24.00	-12.302	-9.598	
25.00	-12.178	-10.684	
26.00	-12.059	-11.726	
27.00	-11.949	-12.730	
28.00	-11.843	-13.599	
29.00	-11.753	-14.497	
30.00	-11.663	-15.232	
31.00	-11.594	-15.981	
32.00	-11.531	-16.670	
33.00	-11.479	-17.280	
34.00	-11.436	-17.814	
35.00	-11.397	-18.312	
36.00	-11.367	-18.688	
37.00	-11.350	-19.052	
38.00	-11.336	-19.285	
39.00	-11.332	-19.433	
40.00	-11.343	-19.585	
41.00	-11.356	-19.599	
42.00	-11.374	-19.539	
43.00	-11.405	-19.411	
44.00	-11.444	-19.207	
45.00	-11.483	-18.930	
46.00	-11.540	-18.572	
47.00	-11.597	-18.076	
48.00	-11.669	-17.551	
49.00	-11.749	-16.912	
50.00	-11.830	-16.248	
51.00	-11.930	-15.432	
52.00	-12.029	-14.555	
53.00	-12.135	-13.632	
54.00	-12.250	-12.600	
55.00	-12.374	-11.483	
56.00	-12.511	-10.228	
57.00	-12.647	-8.922	
58.00	-12.785	-7.473	
59.00	-12.935	-6.008	
60.00	-13.083	-4.432	
61.00	-13.233	-2.709	
62.00	-13.390	-0.960	
63.00	-13.546	0.853	
64.00	-13.692	2.805	
65.00	-13.845	4.809	
66.00	-13.982	6.899	
67.00	-14.117	9.026	
68.00	-14.239	11.242	
69.00	-14.348	13.422	
70.00	-14.438	15.636	
71.00	-14.549	17.905	
72.00	-14.608	20.086	
73.00	-14.672	22.248	
74.00	-14.723	24.320	
75.00	-14.759	26.377	
76.00	-14.775	28.337	
77.00	-14.780	30.145	
78.00	-14.786	31.881	
79.00	-14.784	33.473	
80.00	-14.776	34.851	
81.00	-14.754	36.183	
82.00	-14.727	37.339	
83.00	-14.695	38.353	
84.00	-14.676	39.121	
85.00	-14.645	39.753	
86.00	-14.613	40.275	
87.00	-14.582	40.561	
88.00	-14.555	40.722	
89.00	-14.530	40.691	
90.00	-14.507	40.512	
91.00	-14.484	40.152	
92.00	-14.461	39.713	
93.00	-14.443	39.078	
94.00	-14.414	38.239	
95.00	-14.394	37.273	
96.00	-14.366	36.209	
97.00	-14.336	35.024	
98.00	-14.296	33.659	
99.00	-14.257	32.215	
100.00	-14.209	30.710	
101.00	-14.155	29.059	
102.00	-14.089	27.383	
103.00	-14.016	25.627	
104.00	-13.942	23.822	
105.00	-13.844	22.003	
106.00	-13.745	20.164	
107.00	-13.638	18.315	
108.00	-13.530	16.473	
109.00	-13.395	14.618	
110.00	-13.273	12.875	
111.00	-13.145	11.132	
112.00	-13.004	9.395	
113.00	-12.870	7.838	
114.00	-12.726	6.260	
115.00	-12.586	4.805	
116.00	-12.450	3.407	
117.00	-12.321	2.070	
118.00	-12.189	0.815	
119.00	-12.071	-0.344	
120.00	-11.956	-1.451	
121.00	-11.846	-2.446	
122.00	-11.752	-3.395	
123.00	-11.666	-4.250	
124.00	-11.580	-5.047	
125.00	-11.512	-5.808	
126.00	-11.460	-6.417	
127.00	-11.407	-6.974	
128.00	-11.376	-7.465	
129.00	-11.361	-7.856	
130.00	-11.351	-8.209	
131.00	-11.350	-8.457	
132.00	-11.369	-8.599	
133.00	-11.403	-8.772	
134.00	-11.441	-8.794	
135.00	-11.501	-8.759	
136.00	-11.568	-8.609	
137.00	-11.653	-8.408	
138.00	-11.743	-8.056	
139.00	-11.848	-7.722	
140.00	-11.961	-7.247	
141.00	-12.092	-6.698	
142.00	-12.226	-5.995	
143.00	-12.371	-5.260	
144.00	-12.523	-4.399	
145.00	-12.688	-3.442	
146.00	-12.844	-2.421	
147.00	-13.008	-1.263	
148.00	-13.173	-0.016	
149.00	-13.338	1.279	
150.00	-13.494	2.688	
151.00	-13.644	4.151	
152.00	-13.792	5.686	
153.00	-13.939	7.268	
154.00	-14.069	8.878	
155.00	-14.191	10.568	
156.00	-14.305	12.229	
157.00	-14.400	13.906	
158.00	-14.487	15.573	
159.00	-14.571	17.270	
160.00	-14.627	18.877	
161.00	-14.683	20.469	
162.00	-14.733	22.010	
163.00	-14.761	23.336	
164.00	-14.779	24.814	
165.00	-14.805	26.215	
166.00	-14.813	27.467	
167.00	-14.816	28.701	
168.00	-14.822	29.820	
169.00	-14.814	30.809	
170.00	-14.812	31.719	
171.00	-14.803	32.562	
172.00	-14.788	33.230	
173.00	-14.774	33.806	
174.00	-14.758	34.185	
175.00	-14.742	34.517	
176.00	-14.725	34.702	
177.00	-14.710	34.645	
178.00	-14.692	34.542	
179.00	-14.667	34.103	
180.00	-14.653	33.587	
181.00	-14.614	32.939	
182.00	-14.585	32.066	
183.00	-14.557	30.945	
184.00	-14.517	29.801	
185.00	-14.466	28.335	
186.00	-14.408	26.857	
187.00	-14.349	25.219	
188.00	-14.271	23.412	
189.00	-14.186	21.586	
190.00	-14.090	19.642	
191.00	-13.977	17.575	
192.00	-13.870	15.589	
193.00	-13.743	13.465	
194.00	-13.618	11.409	
195.00	-13.473	9.382	
196.00	-13.334	7.366	
197.00	-13.193	5.370	
198.00	-13.046	3.461	
199.00	-12.902	1.587	
200.00	-12.756	-0.190	
201.00	-12.624	-1.945	
202.00	-12.484	-3.649	
203.00	-12.351	-5.284	
204.00	-12.219	-6.816	
205.00	-12.096	-8.356	
206.00	-11.964	-9.950	
207.00	-11.864	-11.298	
208.00	-11.749	-12.564	
209.00	-11.644	-13.806	
210.00	-11.540	-14.986	
211.00	-11.450	-16.102	
212.00	-11.358	-17.192	
213.00	-11.279	-18.209	
214.00	-11.203	-19.172	
215.00	-11.136	-20.046	
216.00	-11.071	-20.914	
217.00	-11.015	-21.722	
218.00	-10.974	-22.487	
219.00	-10.933	-23.149	
220.00	-10.911	-23.863	
221.00	-10.898	-24.413	
222.00	-10.900	-24.915	
223.00	-10.904	-25.374	
224.00	-10.929	-25.774	
225.00	-10.966	-26.141	
226.00	-11.017	-26.395	
227.00	-11.089	-26.639	
228.00	-11.172	-26.782	
229.00	-11.276	-26.826	
230.00	-11.384	-26.838	
231.00	-11.515	-26.695	
232.00	-11.659	-26.511	
233.00	-11.819	-26.224	
234.00	-11.998	-25.841	
235.00	-12.185	-25.312	
236.00	-12.386	-24.726	
237.00	-12.595	-23.934	
238.00	-12.825	-23.039	
239.00	-13.051	-21.989	
240.00	-13.286	-20.821	
241.00	-13.514	-19.536	
242.00	-13.765	-17.962	
243.00	-13.994	-16.334	
244.00	-14.213	-14.664	
245.00	-14.438	-12.670	
246.00	-14.639	-10.692	
247.00	-14.815	-8.560	
248.00	-14.985	-6.319	
249.00	-15.112	-4.047	
250.00	-15.232	-1.773	
251.00	-15.320	0.515	
252.00	-15.386	2.710	
253.00	-15.425	4.911	
254.00	-15.436	6.996	
255.00	-15.433	8.956	
256.00	-15.409	10.725	
257.00	-15.382	12.317	
258.00	-15.324	13.815	
259.00	-15.269	15.114	
260.00	-15.213	16.175	
261.00	-15.151	17.028	
262.00	-15.084	17.777	
263.00	-15.016	18.312	
264.00	-14.950	18.654	
265.00	-14.892	18.842	
266.00	-14.838	18.848	
267.00	-14.791	18.628	
268.00	-14.730	18.325	
269.00	-14.691	17.793	
270.00	-14.656	17.133	
271.00	-14.613	16.344	
272.00	-14.578	15.391	
273.00	-14.549	14.343	
274.00	-14.515	13.095	
275.00	-14.480	11.784	
276.00	-14.450	10.310	
277.00	-14.412	8.778	
278.00	-14.369	7.082	
279.00	-14.322	5.342	
280.00	-14.265	3.517	
281.00	-14.208	1.634	
282.00	-14.134	-0.320	
283.00	-14.056	-2.320	
284.00	-13.963	-4.297	
285.00	-13.864	-6.337	
286.00	-13.760	-8.366	
287.00	-13.644	-10.378	
288.00	-13.521	-12.348	
289.00	-13.385	-14.271	
290.00	-13.254	-16.107	
291.00	-13.117	-17.888	
292.00	-12.965	-19.651	
293.00	-12.825	-21.267	
294.00	-12.679	-22.856	
295.00	-12.537	-24.385	
296.00	-12.399	-25.788	
297.00	-12.265	-27.117	
298.00	-12.130	-28.356	
299.00	-12.010	-29.473	
300.00	-11.894	-30.571	
301.00	-11.792	-31.512	
302.00	-11.692	-32.417	
303.00	-11.604	-33.231	
304.00	-11.527	-33.938	
305.00	-11.466	-34.595	
306.00	-11.407	-35.147	
307.00	-11.373	-35.658	
308.00	-11.337	-36.037	
309.00	-11.324	-36.352	
310.00	-11.320	-36.629	
311.00	-11.329	-36.809	
312.00	-11.344	-36.890	
313.00	-11.378	-36.913	
314.00	-11.423	-36.886	
315.00	-11.474	-36.722	
316.00	-11.545	-36.510	
317.00	-11.623	-36.192	
318.00	-11.714	-35.841	
319.00	-11.814	-35.367	
320.00	-11.919	-34.810	
321.00	-12.044	-34.183	
322.00	-12.169	-33.470	
323.00	-12.304	-32.640	
324.00	-12.448	-31.754	
325.00	-12.601	-30.729	
326.00	-12.757	-29.642	
327.00	-12.921	-28.400	
328.00	-13.082	-27.127	
329.00	-13.261	-25.741	
330.00	-13.431	-24.235	
331.00	-13.602	-22.586	
332.00	-13.775	-20.863	
333.00	-13.940	-19.014	
334.00	-14.101	-17.126	
335.00	-14.255	-15.027	
336.00	-14.407	-12.935	
337.00	-14.545	-10.775	
338.00	-14.667	-8.563	
339.00	-14.780	-6.268	
340.00	-14.863	-3.874	
341.00	-14.949	-1.559	
342.00	-15.006	0.684	
343.00	-15.044	2.941	
344.00	-15.068	5.155	
345.00	-15.080	7.254	
346.00	-15.071	9.240	
347.00	-15.061	11.039	
348.00	-15.031	12.756	
349.00	-14.990	14.301	
350.00	-14.953	15.606	
351.00	-14.898	16.758	
352.00	-14.854	17.733	
353.00	-14.815	18.513	
354.00	-14.764	19.123	
355.00	-14.716	19.562	
356.00	-14.677	19.839	
357.00	-14.639	19.964	
358.00	-14.601	19.794	
359.00	-14.578	19.755	
Frequency	2550.00	MHz	
Channel	test		
Scan Axis name	Azimuth  [deg]		
Scan Axis	Amplitude	Phase	
			
0.00	-14.285	170.296	
1.00	-14.224	170.141	
2.00	-14.154	169.913	
3.00	-14.102	169.622	
4.00	-14.043	169.232	
5.00	-13.994	168.678	
6.00	-13.945	168.079	
7.00	-13.903	167.363	
8.00	-13.861	166.491	
9.00	-13.817	165.605	
10.00	-13.770	164.549	
11.00	-13.718	163.449	
12.00	-13.662	162.249	
13.00	-13.604	160.871	
14.00	-13.538	159.537	
15.00	-13.466	158.108	
16.00	-13.374	156.629	
17.00	-13.288	155.179	
18.00	-13.189	153.717	
19.00	-13.081	152.152	
20.00	-12.978	150.683	
21.00	-12.867	149.228	
22.00	-12.749	147.818	
23.00	-12.634	146.412	
24.00	-12.517	145.121	
25.00	-12.403	143.834	
26.00	-12.290	142.685	
27.00	-12.183	141.567	
28.00	-12.079	140.534	
29.00	-11.976	139.560	
30.00	-11.884	138.755	
31.00	-11.803	137.922	
32.00	-11.720	137.241	
33.00	-11.658	136.626	
34.00	-11.588	136.099	
35.00	-11.532	135.630	
36.00	-11.483	135.283	
37.00	-11.438	134.986	
38.00	-11.414	134.795	
39.00	-11.386	134.723	
40.00	-11.373	134.725	
41.00	-11.370	134.803	
42.00	-11.377	134.973	
43.00	-11.395	135.218	
44.00	-11.422	135.580	
45.00	-11.459	135.967	
46.00	-11.509	136.510	
47.00	-11.571	137.074	
48.00	-11.644	137.753	
49.00	-11.727	138.484	
50.00	-11.812	139.332	
51.00	-11.923	140.220	
52.00	-12.036	141.173	
53.00	-12.162	142.248	
54.00	-12.295	143.363	
55.00	-12.442	144.624	
56.00	-12.588	145.947	
57.00	-12.741	147.365	
58.00	-12.911	148.898	
59.00	-13.076	150.470	
60.00	-13.250	152.195	
61.00	-13.419	153.922	
62.00	-13.588	155.875	
63.00	-13.753	157.805	
64.00	-13.921	159.848	
65.00	-14.083	162.066	
66.00	-14.229	164.189	
67.00	-14.369	166.452	
68.00	-14.498	168.792	
69.00	-14.617	171.139	
70.00	-14.709	173.453	
71.00	-14.801	175.816	
72.00	-14.861	178.093	
73.00	-14.916	-179.610	
74.00	-14.958	-177.524	
75.00	-14.982	-175.427	
76.00	-14.988	-173.367	
77.00	-14.997	-171.481	
78.00	-14.989	-169.743	
79.00	-14.974	-168.102	
80.00	-14.954	-166.726	
81.00	-14.935	-165.409	
82.00	-14.909	-164.244	
83.00	-14.876	-163.316	
84.00	-14.841	-162.512	
85.00	-14.816	-161.866	
86.00	-14.794	-161.477	
87.00	-14.773	-161.170	
88.00	-14.750	-161.026	
89.00	-14.730	-161.116	
90.00	-14.712	-161.338	
91.00	-14.699	-161.712	
92.00	-14.690	-162.255	
93.00	-14.678	-162.945	
94.00	-14.662	-163.870	
95.00	-14.650	-164.900	
96.00	-14.637	-166.008	
97.00	-14.609	-167.243	
98.00	-14.585	-168.774	
99.00	-14.547	-170.289	
100.00	-14.509	-171.894	
101.00	-14.457	-173.590	
102.00	-14.400	-175.343	
103.00	-14.323	-177.166	
104.00	-14.249	-179.049	
105.00	-14.145	179.069	
106.00	-14.051	177.160	
107.00	-13.940	175.291	
108.00	-13.814	173.363	
109.00	-13.691	171.491	
110.00	-13.556	169.614	
111.00	-13.421	167.853	
112.00	-13.279	166.226	
113.00	-13.137	164.560	
114.00	-12.993	162.979	
115.00	-12.842	161.520	
116.00	-12.705	160.127	
117.00	-12.562	158.772	
118.00	-12.434	157.518	
119.00	-12.305	156.330	
120.00	-12.191	155.230	
121.00	-12.074	154.236	
122.00	-11.971	153.300	
123.00	-11.873	152.429	
124.00	-11.792	151.664	
125.00	-11.709	150.869	
126.00	-11.645	150.265	
127.00	-11.583	149.665	
128.00	-11.541	149.149	
129.00	-11.507	148.687	
130.00	-11.477	148.357	
131.00	-11.464	148.009	
132.00	-11.464	147.770	
133.00	-11.469	147.646	
134.00	-11.496	147.496	
135.00	-11.526	147.485	
136.00	-11.572	147.550	
137.00	-11.630	147.628	
138.00	-11.699	147.840	
139.00	-11.785	148.096	
140.00	-11.878	148.436	
141.00	-11.992	148.886	
142.00	-12.121	149.375	
143.00	-12.256	149.988	
144.00	-12.405	150.720	
145.00	-12.574	151.541	
146.00	-12.746	152.454	
147.00	-12.928	153.556	
148.00	-13.114	154.759	
149.00	-13.310	156.062	
150.00	-13.510	157.543	
151.00	-13.706	159.171	
152.00	-13.899	160.936	
153.00	-14.092	162.767	
154.00	-14.265	164.751	
155.00	-14.429	166.890	
156.00	-14.566	169.055	
157.00	-14.691	171.269	
158.00	-14.783	173.421	
159.00	-14.855	175.630	
160.00	-14.906	177.816	
161.00	-14.929	179.859	
162.00	-14.948	-178.216	
163.00	-14.929	-176.551	
164.00	-14.916	-174.885	
165.00	-14.878	-173.397	
166.00	-14.840	-172.088	
167.00	-14.794	-170.946	
168.00	-14.760	-169.920	
169.00	-14.720	-169.094	
170.00	-14.675	-168.384	
171.00	-14.638	-167.808	
172.00	-14.615	-167.340	
173.00	-14.588	-167.024	
174.00	-14.561	-166.925	
175.00	-14.545	-166.802	
176.00	-14.529	-166.840	
177.00	-14.515	-167.006	
178.00	-14.500	-167.275	
179.00	-14.485	-167.730	
180.00	-14.473	-168.348	
181.00	-14.454	-169.066	
182.00	-14.432	-169.942	
183.00	-14.405	-171.090	
184.00	-14.369	-172.328	
185.00	-14.339	-173.732	
186.00	-14.290	-175.301	
187.00	-14.238	-176.999	
188.00	-14.174	-178.887	
189.00	-14.110	179.099	
190.00	-14.035	177.055	
191.00	-13.947	174.841	
192.00	-13.863	172.626	
193.00	-13.762	170.358	
194.00	-13.659	167.998	
195.00	-13.551	165.770	
196.00	-13.434	163.465	
197.00	-13.321	161.228	
198.00	-13.195	159.081	
199.00	-13.073	156.990	
200.00	-12.955	154.981	
201.00	-12.834	153.010	
202.00	-12.723	151.185	
203.00	-12.602	149.436	
204.00	-12.490	147.747	
205.00	-12.382	146.131	
206.00	-12.273	144.408	
207.00	-12.172	143.059	
208.00	-12.079	141.766	
209.00	-11.984	140.492	
210.00	-11.897	139.353	
211.00	-11.814	138.249	
212.00	-11.727	137.187	
213.00	-11.661	136.224	
214.00	-11.588	135.305	
215.00	-11.534	134.468	
216.00	-11.472	133.698	
217.00	-11.432	133.008	
218.00	-11.389	132.352	
219.00	-11.364	131.746	
220.00	-11.353	131.201	
221.00	-11.345	130.792	
222.00	-11.345	130.389	
223.00	-11.363	130.084	
224.00	-11.393	129.829	
225.00	-11.431	129.629	
226.00	-11.482	129.527	
227.00	-11.552	129.513	
228.00	-11.629	129.575	
229.00	-11.719	129.686	
230.00	-11.820	129.878	
231.00	-11.935	130.175	
232.00	-12.057	130.539	
233.00	-12.200	131.003	
234.00	-12.343	131.567	
235.00	-12.511	132.245	
236.00	-12.671	132.992	
237.00	-12.843	133.853	
238.00	-13.033	134.787	
239.00	-13.210	135.910	
240.00	-13.406	137.081	
241.00	-13.594	138.339	
242.00	-13.786	139.716	
243.00	-13.972	141.225	
244.00	-14.150	142.812	
245.00	-14.333	144.531	
246.00	-14.500	146.272	
247.00	-14.652	148.125	
248.00	-14.796	150.017	
249.00	-14.928	151.940	
250.00	-15.036	153.879	
251.00	-15.135	155.837	
252.00	-15.207	157.785	
253.00	-15.258	159.614	
254.00	-15.308	161.409	
255.00	-15.328	163.151	
256.00	-15.334	164.728	
257.00	-15.331	166.199	
258.00	-15.317	167.537	
259.00	-15.284	168.727	
260.00	-15.259	169.698	
261.00	-15.221	170.562	
262.00	-15.178	171.280	
263.00	-15.129	171.773	
264.00	-15.083	172.092	
265.00	-15.035	172.257	
266.00	-14.988	172.289	
267.00	-14.937	172.062	
268.00	-14.897	171.697	
269.00	-14.850	171.161	
270.00	-14.808	170.541	
271.00	-14.764	169.706	
272.00	-14.727	168.805	
273.00	-14.680	167.699	
274.00	-14.638	166.482	
275.00	-14.588	165.105	
276.00	-14.539	163.745	
277.00	-14.489	162.228	
278.00	-14.427	160.596	
279.00	-14.362	158.945	
280.00	-14.295	157.186	
281.00	-14.211	155.403	
282.00	-14.126	153.558	
283.00	-14.032	151.753	
284.00	-13.936	149.928	
285.00	-13.818	148.081	
286.00	-13.711	146.290	
287.00	-13.587	144.468	
288.00	-13.469	142.712	
289.00	-13.340	141.019	
290.00	-13.215	139.392	
291.00	-13.083	137.781	
292.00	-12.957	136.275	
293.00	-12.828	134.838	
294.00	-12.700	133.450	
295.00	-12.573	132.096	
296.00	-12.458	130.822	
297.00	-12.349	129.607	
298.00	-12.242	128.474	
299.00	-12.133	127.403	
300.00	-12.042	126.381	
301.00	-11.956	125.425	
302.00	-11.882	124.514	
303.00	-11.817	123.681	
304.00	-11.762	122.907	
305.00	-11.716	122.159	
306.00	-11.682	121.482	
307.00	-11.657	120.847	
308.00	-11.638	120.243	
309.00	-11.638	119.762	
310.00	-11.641	119.274	
311.00	-11.656	118.907	
312.00	-11.685	118.595	
313.00	-11.719	118.316	
314.00	-11.772	118.154	
315.00	-11.829	118.085	
316.00	-11.895	118.068	
317.00	-11.973	118.167	
318.00	-12.065	118.364	
319.00	-12.162	118.659	
320.00	-12.265	119.058	
321.00	-12.382	119.579	
322.00	-12.510	120.248	
323.00	-12.636	121.009	
324.00	-12.775	121.886	
325.00	-12.923	122.962	
326.00	-13.066	124.097	
327.00	-13.233	125.396	
328.00	-13.387	126.854	
329.00	-13.549	128.369	
330.00	-13.715	130.096	
331.00	-13.871	131.918	
332.00	-14.031	133.818	
333.00	-14.178	135.843	
334.00	-14.325	138.007	
335.00	-14.469	140.138	
336.00	-14.599	142.400	
337.00	-14.723	144.665	
338.00	-14.824	147.027	
339.00	-14.913	149.281	
340.00	-14.993	151.593	
341.00	-15.059	153.853	
342.00	-15.107	156.071	
343.00	-15.140	158.146	
344.00	-15.158	160.197	
345.00	-15.158	162.138	
346.00	-15.141	163.893	
347.00	-15.119	165.543	
348.00	-15.078	167.047	
349.00	-15.029	168.483	
350.00	-14.967	169.703	
351.00	-14.904	170.775	
352.00	-14.826	171.673	
353.00	-14.751	172.430	
354.00	-14.669	173.131	
355.00	-14.587	173.701	
356.00	-14.504	174.055	
357.00	-14.416	174.342	
358.00	-14.337	174.425	
359.00	-14.268	174.560	
Frequency	2600.00	MHz	
Channel	test		
Scan Axis name	Azimuth  [deg]		
Scan Axis	Amplitude	Phase	
			
0.00	-14.147	-29.748	
1.00	-14.123	-29.518	
2.00	-14.102	-29.527	
3.00	-14.102	-29.608	
4.00	-14.108	-29.860	
5.00	-14.116	-30.305	
6.00	-14.125	-30.977	
7.00	-14.130	-31.696	
8.00	-14.145	-32.659	
9.00	-14.140	-33.849	
10.00	-14.141	-35.090	
11.00	-14.122	-36.417	
12.00	-14.095	-37.899	
13.00	-14.058	-39.519	
14.00	-14.006	-41.169	
15.00	-13.943	-42.840	
16.00	-13.872	-44.492	
17.00	-13.783	-46.221	
18.00	-13.694	-47.871	
19.00	-13.591	-49.508	
20.00	-13.484	-51.102	
21.00	-13.375	-52.638	
22.00	-13.258	-54.090	
23.00	-13.140	-55.517	
24.00	-13.032	-56.884	
25.00	-12.919	-58.112	
26.00	-12.809	-59.304	
27.00	-12.701	-60.433	
28.00	-12.604	-61.494	
29.00	-12.506	-62.427	
30.00	-12.412	-63.352	
31.00	-12.316	-64.079	
32.00	-12.251	-64.823	
33.00	-12.171	-65.455	
34.00	-12.103	-66.050	
35.00	-12.043	-66.498	
36.00	-11.988	-66.869	
37.00	-11.950	-67.184	
38.00	-11.911	-67.446	
39.00	-11.888	-67.564	
40.00	-11.878	-67.647	
41.00	-11.873	-67.605	
42.00	-11.883	-67.511	
43.00	-11.909	-67.359	
44.00	-11.942	-67.097	
45.00	-11.991	-66.800	
46.00	-12.054	-66.406	
47.00	-12.128	-65.968	
48.00	-12.212	-65.426	
49.00	-12.310	-64.822	
50.00	-12.418	-64.144	
51.00	-12.540	-63.369	
52.00	-12.677	-62.578	
53.00	-12.806	-61.650	
54.00	-12.958	-60.658	
55.00	-13.118	-59.534	
56.00	-13.289	-58.362	
57.00	-13.457	-57.006	
58.00	-13.638	-55.650	
59.00	-13.817	-54.103	
60.00	-14.000	-52.457	
61.00	-14.182	-50.762	
62.00	-14.354	-48.877	
63.00	-14.543	-46.897	
64.00	-14.706	-44.807	
65.00	-14.873	-42.653	
66.00	-15.020	-40.397	
67.00	-15.151	-38.045	
68.00	-15.269	-35.679	
69.00	-15.373	-33.252	
70.00	-15.460	-30.806	
71.00	-15.536	-28.359	
72.00	-15.585	-25.975	
73.00	-15.617	-23.618	
74.00	-15.634	-21.284	
75.00	-15.638	-19.117	
76.00	-15.634	-17.005	
77.00	-15.601	-15.101	
78.00	-15.562	-13.246	
79.00	-15.526	-11.612	
80.00	-15.486	-10.144	
81.00	-15.438	-8.793	
82.00	-15.382	-7.574	
83.00	-15.326	-6.548	
84.00	-15.273	-5.778	
85.00	-15.222	-5.116	
86.00	-15.180	-4.582	
87.00	-15.135	-4.268	
88.00	-15.094	-4.099	
89.00	-15.054	-4.030	
90.00	-15.019	-4.221	
91.00	-14.991	-4.508	
92.00	-14.964	-4.971	
93.00	-14.937	-5.534	
94.00	-14.910	-6.343	
95.00	-14.878	-7.248	
96.00	-14.860	-8.268	
97.00	-14.834	-9.419	
98.00	-14.801	-10.739	
99.00	-14.777	-12.083	
100.00	-14.741	-13.530	
101.00	-14.690	-15.094	
102.00	-14.641	-16.733	
103.00	-14.596	-18.445	
104.00	-14.533	-20.187	
105.00	-14.460	-22.036	
106.00	-14.381	-23.818	
107.00	-14.295	-25.663	
108.00	-14.198	-27.561	
109.00	-14.099	-29.434	
110.00	-13.994	-31.270	
111.00	-13.892	-33.062	
112.00	-13.773	-34.808	
113.00	-13.657	-36.538	
114.00	-13.539	-38.182	
115.00	-13.422	-39.836	
116.00	-13.308	-41.410	
117.00	-13.183	-42.852	
118.00	-13.072	-44.276	
119.00	-12.958	-45.657	
120.00	-12.854	-46.934	
121.00	-12.755	-48.116	
122.00	-12.658	-49.235	
123.00	-12.570	-50.272	
124.00	-12.483	-51.197	
125.00	-12.412	-52.094	
126.00	-12.352	-52.895	
127.00	-12.291	-53.570	
128.00	-12.245	-54.145	
129.00	-12.213	-54.696	
130.00	-12.184	-55.102	
131.00	-12.162	-55.439	
132.00	-12.154	-55.658	
133.00	-12.155	-55.843	
134.00	-12.169	-55.892	
135.00	-12.187	-55.897	
136.00	-12.222	-55.755	
137.00	-12.267	-55.566	
138.00	-12.316	-55.238	
139.00	-12.385	-54.907	
140.00	-12.451	-54.524	
141.00	-12.534	-54.012	
142.00	-12.631	-53.420	
143.00	-12.729	-52.799	
144.00	-12.846	-52.085	
145.00	-12.967	-51.346	
146.00	-13.098	-50.462	
147.00	-13.245	-49.555	
148.00	-13.397	-48.522	
149.00	-13.556	-47.477	
150.00	-13.735	-46.285	
151.00	-13.905	-45.061	
152.00	-14.097	-43.668	
153.00	-14.278	-42.238	
154.00	-14.477	-40.662	
155.00	-14.660	-38.946	
156.00	-14.844	-37.173	
157.00	-15.014	-35.250	
158.00	-15.176	-33.226	
159.00	-15.315	-31.150	
160.00	-15.433	-28.901	
161.00	-15.529	-26.692	
162.00	-15.592	-24.515	
163.00	-15.619	-22.517	
164.00	-15.634	-20.366	
165.00	-15.614	-18.347	
166.00	-15.584	-16.480	
167.00	-15.520	-14.800	
168.00	-15.458	-13.266	
169.00	-15.369	-11.967	
170.00	-15.291	-10.863	
171.00	-15.205	-9.941	
172.00	-15.123	-9.139	
173.00	-15.050	-8.557	
174.00	-14.971	-8.236	
175.00	-14.913	-7.969	
176.00	-14.858	-7.840	
177.00	-14.801	-7.968	
178.00	-14.759	-8.176	
179.00	-14.721	-8.559	
180.00	-14.694	-9.079	
181.00	-14.659	-9.814	
182.00	-14.618	-10.685	
183.00	-14.598	-11.723	
184.00	-14.564	-12.873	
185.00	-14.526	-14.214	
186.00	-14.477	-15.708	
187.00	-14.423	-17.277	
188.00	-14.358	-19.080	
189.00	-14.286	-20.955	
190.00	-14.209	-22.907	
191.00	-14.121	-25.079	
192.00	-14.025	-27.184	
193.00	-13.927	-29.390	
194.00	-13.814	-31.604	
195.00	-13.710	-33.922	
196.00	-13.596	-36.176	
197.00	-13.481	-38.363	
198.00	-13.357	-40.654	
199.00	-13.241	-42.863	
200.00	-13.126	-44.971	
201.00	-13.017	-47.098	
202.00	-12.904	-49.111	
203.00	-12.792	-51.140	
204.00	-12.685	-53.028	
205.00	-12.585	-54.900	
206.00	-12.481	-56.836	
207.00	-12.388	-58.517	
208.00	-12.296	-60.091	
209.00	-12.211	-61.596	
210.00	-12.125	-63.067	
211.00	-12.046	-64.447	
212.00	-11.968	-65.801	
213.00	-11.906	-67.053	
214.00	-11.844	-68.160	
215.00	-11.801	-69.284	
216.00	-11.758	-70.261	
217.00	-11.726	-71.176	
218.00	-11.708	-72.052	
219.00	-11.701	-72.777	
220.00	-11.705	-73.517	
221.00	-11.729	-74.086	
222.00	-11.765	-74.525	
223.00	-11.807	-74.977	
224.00	-11.867	-75.306	
225.00	-11.944	-75.572	
226.00	-12.033	-75.662	
227.00	-12.137	-75.752	
228.00	-12.256	-75.644	
229.00	-12.387	-75.455	
230.00	-12.521	-75.251	
231.00	-12.669	-74.817	
232.00	-12.820	-74.294	
233.00	-12.997	-73.677	
234.00	-13.162	-72.944	
235.00	-13.338	-72.084	
236.00	-13.515	-71.108	
237.00	-13.696	-70.030	
238.00	-13.875	-68.815	
239.00	-14.048	-67.482	
240.00	-14.227	-66.067	
241.00	-14.377	-64.542	
242.00	-14.554	-62.894	
243.00	-14.702	-61.223	
244.00	-14.835	-59.419	
245.00	-14.964	-57.573	
246.00	-15.070	-55.781	
247.00	-15.160	-53.902	
248.00	-15.243	-51.898	
249.00	-15.307	-50.016	
250.00	-15.354	-48.146	
251.00	-15.387	-46.281	
252.00	-15.406	-44.561	
253.00	-15.410	-42.873	
254.00	-15.401	-41.244	
255.00	-15.386	-39.757	
256.00	-15.357	-38.376	
257.00	-15.318	-37.107	
258.00	-15.274	-35.908	
259.00	-15.220	-34.894	
260.00	-15.171	-34.068	
261.00	-15.114	-33.283	
262.00	-15.060	-32.742	
263.00	-14.995	-32.195	
264.00	-14.927	-31.937	
265.00	-14.867	-31.759	
266.00	-14.810	-31.727	
267.00	-14.759	-31.821	
268.00	-14.696	-32.109	
269.00	-14.645	-32.529	
270.00	-14.597	-33.089	
271.00	-14.540	-33.676	
272.00	-14.496	-34.454	
273.00	-14.449	-35.308	
274.00	-14.405	-36.360	
275.00	-14.364	-37.480	
276.00	-14.318	-38.629	
277.00	-14.277	-39.936	
278.00	-14.227	-41.339	
279.00	-14.177	-42.746	
280.00	-14.130	-44.330	
281.00	-14.083	-45.917	
282.00	-14.030	-47.564	
283.00	-13.968	-49.276	
284.00	-13.916	-50.978	
285.00	-13.850	-52.753	
286.00	-13.796	-54.568	
287.00	-13.727	-56.321	
288.00	-13.653	-58.093	
289.00	-13.584	-59.863	
290.00	-13.513	-61.606	
291.00	-13.425	-63.294	
292.00	-13.354	-65.005	
293.00	-13.274	-66.634	
294.00	-13.193	-68.273	
295.00	-13.113	-69.862	
296.00	-13.031	-71.370	
297.00	-12.944	-72.815	
298.00	-12.865	-74.237	
299.00	-12.796	-75.606	
300.00	-12.716	-76.892	
301.00	-12.640	-78.135	
302.00	-12.567	-79.304	
303.00	-12.506	-80.328	
304.00	-12.442	-81.350	
305.00	-12.380	-82.275	
306.00	-12.332	-83.084	
307.00	-12.291	-83.935	
308.00	-12.250	-84.587	
309.00	-12.213	-85.233	
310.00	-12.197	-85.763	
311.00	-12.177	-86.218	
312.00	-12.171	-86.548	
313.00	-12.175	-86.799	
314.00	-12.190	-86.985	
315.00	-12.221	-87.039	
316.00	-12.257	-86.966	
317.00	-12.309	-86.825	
318.00	-12.369	-86.599	
319.00	-12.450	-86.192	
320.00	-12.539	-85.708	
321.00	-12.645	-85.098	
322.00	-12.762	-84.364	
323.00	-12.884	-83.543	
324.00	-13.021	-82.589	
325.00	-13.168	-81.520	
326.00	-13.333	-80.316	
327.00	-13.498	-78.918	
328.00	-13.667	-77.486	
329.00	-13.847	-75.967	
330.00	-14.023	-74.246	
331.00	-14.198	-72.433	
332.00	-14.372	-70.534	
333.00	-14.541	-68.591	
334.00	-14.689	-66.534	
335.00	-14.839	-64.357	
336.00	-14.970	-62.159	
337.00	-15.089	-60.007	
338.00	-15.178	-57.766	
339.00	-15.256	-55.565	
340.00	-15.312	-53.367	
341.00	-15.351	-51.205	
342.00	-15.355	-49.027	
343.00	-15.354	-47.030	
344.00	-15.322	-44.984	
345.00	-15.284	-43.038	
346.00	-15.223	-41.186	
347.00	-15.156	-39.440	
348.00	-15.073	-37.688	
349.00	-14.986	-36.064	
350.00	-14.893	-34.603	
351.00	-14.800	-33.186	
352.00	-14.703	-31.889	
353.00	-14.612	-30.673	
354.00	-14.527	-29.558	
355.00	-14.440	-28.456	
356.00	-14.360	-27.588	
357.00	-14.293	-26.780	
358.00	-14.246	-26.226	
359.00	-14.208	-25.718	
Frequency	2650.00	MHz	
Channel	test		
Scan Axis name	Azimuth  [deg]		
Scan Axis	Amplitude	Phase	
			
0.00	-14.552	130.068	
1.00	-14.538	129.904	
2.00	-14.518	129.647	
3.00	-14.497	129.134	
4.00	-14.481	128.558	
5.00	-14.465	127.783	
6.00	-14.451	126.960	
7.00	-14.430	125.858	
8.00	-14.410	124.602	
9.00	-14.375	123.285	
10.00	-14.333	121.750	
11.00	-14.274	120.283	
12.00	-14.216	118.733	
13.00	-14.141	117.117	
14.00	-14.058	115.506	
15.00	-13.958	113.928	
16.00	-13.858	112.330	
17.00	-13.744	110.779	
18.00	-13.629	109.294	
19.00	-13.517	107.835	
20.00	-13.407	106.504	
21.00	-13.288	105.145	
22.00	-13.180	103.895	
23.00	-13.070	102.765	
24.00	-12.975	101.558	
25.00	-12.883	100.504	
26.00	-12.790	99.462	
27.00	-12.707	98.466	
28.00	-12.631	97.492	
29.00	-12.555	96.559	
30.00	-12.483	95.639	
31.00	-12.427	94.820	
32.00	-12.372	93.952	
33.00	-12.327	93.157	
34.00	-12.274	92.418	
35.00	-12.232	91.720	
36.00	-12.196	91.118	
37.00	-12.159	90.535	
38.00	-12.132	90.053	
39.00	-12.106	89.704	
40.00	-12.095	89.391	
41.00	-12.090	89.205	
42.00	-12.086	89.125	
43.00	-12.098	89.057	
44.00	-12.125	89.156	
45.00	-12.159	89.348	
46.00	-12.208	89.640	
47.00	-12.269	90.011	
48.00	-12.344	90.550	
49.00	-12.428	91.145	
50.00	-12.524	91.875	
51.00	-12.638	92.675	
52.00	-12.762	93.593	
53.00	-12.896	94.647	
54.00	-13.039	95.776	
55.00	-13.203	97.041	
56.00	-13.372	98.460	
57.00	-13.540	99.965	
58.00	-13.715	101.526	
59.00	-13.899	103.343	
60.00	-14.081	105.179	
61.00	-14.263	107.132	
62.00	-14.440	109.294	
63.00	-14.620	111.442	
64.00	-14.784	113.761	
65.00	-14.939	116.172	
66.00	-15.082	118.615	
67.00	-15.208	121.122	
68.00	-15.316	123.724	
69.00	-15.412	126.302	
70.00	-15.478	128.854	
71.00	-15.526	131.417	
72.00	-15.552	133.881	
73.00	-15.567	136.295	
74.00	-15.562	138.581	
75.00	-15.539	140.780	
76.00	-15.503	142.854	
77.00	-15.457	144.772	
78.00	-15.394	146.540	
79.00	-15.325	148.132	
80.00	-15.257	149.505	
81.00	-15.194	150.764	
82.00	-15.113	151.872	
83.00	-15.025	152.765	
84.00	-14.954	153.603	
85.00	-14.881	154.146	
86.00	-14.814	154.589	
87.00	-14.752	154.856	
88.00	-14.680	154.942	
89.00	-14.625	154.958	
90.00	-14.576	154.838	
91.00	-14.522	154.538	
92.00	-14.476	154.048	
93.00	-14.443	153.524	
94.00	-14.399	152.805	
95.00	-14.374	151.958	
96.00	-14.338	151.041	
97.00	-14.303	149.963	
98.00	-14.274	148.776	
99.00	-14.250	147.497	
100.00	-14.214	146.143	
101.00	-14.178	144.663	
102.00	-14.144	143.164	
103.00	-14.106	141.581	
104.00	-14.057	139.904	
105.00	-14.009	138.137	
106.00	-13.949	136.354	
107.00	-13.880	134.545	
108.00	-13.812	132.721	
109.00	-13.738	130.885	
110.00	-13.658	129.005	
111.00	-13.572	127.195	
112.00	-13.481	125.385	
113.00	-13.384	123.581	
114.00	-13.288	121.837	
115.00	-13.176	120.112	
116.00	-13.069	118.449	
117.00	-12.963	116.838	
118.00	-12.860	115.262	
119.00	-12.751	113.783	
120.00	-12.647	112.359	
121.00	-12.551	110.994	
122.00	-12.459	109.736	
123.00	-12.375	108.533	
124.00	-12.288	107.422	
125.00	-12.225	106.330	
126.00	-12.155	105.351	
127.00	-12.101	104.467	
128.00	-12.056	103.643	
129.00	-12.027	102.922	
130.00	-12.004	102.270	
131.00	-12.001	101.722	
132.00	-12.008	101.244	
133.00	-12.024	100.892	
134.00	-12.058	100.593	
135.00	-12.108	100.475	
136.00	-12.166	100.362	
137.00	-12.239	100.451	
138.00	-12.328	100.590	
139.00	-12.432	100.882	
140.00	-12.538	101.214	
141.00	-12.664	101.724	
142.00	-12.795	102.312	
143.00	-12.942	103.001	
144.00	-13.093	103.859	
145.00	-13.250	104.815	
146.00	-13.415	105.926	
147.00	-13.573	107.031	
148.00	-13.742	108.342	
149.00	-13.902	109.711	
150.00	-14.065	111.173	
151.00	-14.218	112.748	
152.00	-14.372	114.343	
153.00	-14.514	115.975	
154.00	-14.651	117.644	
155.00	-14.778	119.386	
156.00	-14.891	121.111	
157.00	-14.994	122.857	
158.00	-15.082	124.615	
159.00	-15.164	126.328	
160.00	-15.234	128.087	
161.00	-15.297	129.760	
162.00	-15.339	131.486	
163.00	-15.372	132.966	
164.00	-15.382	134.755	
165.00	-15.392	136.371	
166.00	-15.384	137.928	
167.00	-15.363	139.385	
168.00	-15.327	140.794	
169.00	-15.285	142.185	
170.00	-15.233	143.398	
171.00	-15.176	144.524	
172.00	-15.111	145.575	
173.00	-15.046	146.313	
174.00	-14.979	146.959	
175.00	-14.914	147.559	
176.00	-14.852	147.903	
177.00	-14.794	148.099	
178.00	-14.737	148.106	
179.00	-14.687	147.960	
180.00	-14.646	147.577	
181.00	-14.594	147.008	
182.00	-14.559	146.206	
183.00	-14.524	145.255	
184.00	-14.475	144.151	
185.00	-14.444	142.834	
186.00	-14.402	141.384	
187.00	-14.362	139.837	
188.00	-14.314	138.123	
189.00	-14.255	136.347	
190.00	-14.204	134.456	
191.00	-14.136	132.421	
192.00	-14.059	130.453	
193.00	-13.983	128.397	
194.00	-13.894	126.320	
195.00	-13.799	124.297	
196.00	-13.707	122.272	
197.00	-13.603	120.291	
198.00	-13.498	118.263	
199.00	-13.393	116.309	
200.00	-13.294	114.408	
201.00	-13.186	112.565	
202.00	-13.075	110.665	
203.00	-12.966	108.893	
204.00	-12.854	107.140	
205.00	-12.748	105.373	
206.00	-12.642	103.484	
207.00	-12.533	101.917	
208.00	-12.418	100.370	
209.00	-12.311	98.808	
210.00	-12.207	97.280	
211.00	-12.103	95.832	
212.00	-12.006	94.386	
213.00	-11.912	92.989	
214.00	-11.828	91.665	
215.00	-11.749	90.409	
216.00	-11.679	89.255	
217.00	-11.620	88.151	
218.00	-11.573	87.066	
219.00	-11.542	86.055	
220.00	-11.524	85.111	
221.00	-11.527	84.285	
222.00	-11.540	83.546	
223.00	-11.575	82.869	
224.00	-11.624	82.257	
225.00	-11.690	81.736	
226.00	-11.776	81.321	
227.00	-11.879	80.977	
228.00	-11.999	80.751	
229.00	-12.138	80.655	
230.00	-12.293	80.638	
231.00	-12.467	80.741	
232.00	-12.644	81.020	
233.00	-12.846	81.408	
234.00	-13.051	81.960	
235.00	-13.273	82.609	
236.00	-13.500	83.421	
237.00	-13.732	84.438	
238.00	-13.964	85.597	
239.00	-14.202	86.949	
240.00	-14.427	88.417	
241.00	-14.640	90.113	
242.00	-14.856	91.906	
243.00	-15.056	93.788	
244.00	-15.222	95.886	
245.00	-15.383	98.089	
246.00	-15.527	100.342	
247.00	-15.622	102.650	
248.00	-15.714	105.034	
249.00	-15.760	107.368	
250.00	-15.793	109.641	
251.00	-15.799	111.911	
252.00	-15.784	114.017	
253.00	-15.750	116.081	
254.00	-15.691	117.958	
255.00	-15.630	119.797	
256.00	-15.545	121.389	
257.00	-15.457	122.795	
258.00	-15.358	124.105	
259.00	-15.265	125.237	
260.00	-15.177	126.182	
261.00	-15.077	127.038	
262.00	-14.978	127.661	
263.00	-14.890	128.134	
264.00	-14.803	128.491	
265.00	-14.715	128.697	
266.00	-14.649	128.759	
267.00	-14.579	128.588	
268.00	-14.520	128.346	
269.00	-14.455	127.963	
270.00	-14.413	127.475	
271.00	-14.358	126.828	
272.00	-14.320	126.133	
273.00	-14.288	125.217	
274.00	-14.258	124.255	
275.00	-14.224	123.003	
276.00	-14.210	121.812	
277.00	-14.188	120.513	
278.00	-14.170	119.006	
279.00	-14.154	117.457	
280.00	-14.131	115.795	
281.00	-14.110	114.050	
282.00	-14.087	112.230	
283.00	-14.053	110.313	
284.00	-14.023	108.375	
285.00	-13.982	106.398	
286.00	-13.931	104.266	
287.00	-13.882	102.262	
288.00	-13.825	100.153	
289.00	-13.753	98.059	
290.00	-13.675	96.004	
291.00	-13.596	93.985	
292.00	-13.507	91.967	
293.00	-13.413	90.070	
294.00	-13.315	88.169	
295.00	-13.216	86.350	
296.00	-13.110	84.593	
297.00	-13.006	82.956	
298.00	-12.910	81.383	
299.00	-12.802	79.940	
300.00	-12.700	78.564	
301.00	-12.607	77.284	
302.00	-12.526	76.089	
303.00	-12.442	75.047	
304.00	-12.363	74.094	
305.00	-12.295	73.204	
306.00	-12.238	72.441	
307.00	-12.197	71.756	
308.00	-12.153	71.195	
309.00	-12.124	70.730	
310.00	-12.109	70.389	
311.00	-12.107	70.087	
312.00	-12.117	69.887	
313.00	-12.143	69.813	
314.00	-12.180	69.783	
315.00	-12.231	69.868	
316.00	-12.296	70.075	
317.00	-12.367	70.310	
318.00	-12.461	70.703	
319.00	-12.565	71.157	
320.00	-12.684	71.706	
321.00	-12.809	72.348	
322.00	-12.959	73.118	
323.00	-13.109	73.961	
324.00	-13.269	74.948	
325.00	-13.443	75.988	
326.00	-13.625	77.139	
327.00	-13.816	78.486	
328.00	-13.995	79.919	
329.00	-14.186	81.377	
330.00	-14.368	83.048	
331.00	-14.560	84.806	
332.00	-14.729	86.705	
333.00	-14.900	88.736	
334.00	-15.046	90.746	
335.00	-15.180	92.988	
336.00	-15.302	95.210	
337.00	-15.401	97.502	
338.00	-15.489	99.900	
339.00	-15.547	102.267	
340.00	-15.580	104.609	
341.00	-15.602	107.100	
342.00	-15.607	109.469	
343.00	-15.591	111.666	
344.00	-15.554	113.924	
345.00	-15.506	116.084	
346.00	-15.446	118.139	
347.00	-15.391	120.131	
348.00	-15.320	122.029	
349.00	-15.245	123.802	
350.00	-15.172	125.373	
351.00	-15.099	126.898	
352.00	-15.030	128.240	
353.00	-14.961	129.367	
354.00	-14.896	130.482	
355.00	-14.842	131.437	
356.00	-14.797	132.209	
357.00	-14.754	132.773	
358.00	-14.712	133.219	
359.00	-14.696	133.442	
Frequency	2700.00	MHz	
Channel	test		
Scan Axis name	Azimuth  [deg]		
Scan Axis	Amplitude	Phase	
			
0.00	-14.721	-75.585	
1.00	-14.656	-75.963	
2.00	-14.599	-76.400	
3.00	-14.534	-76.948	
4.00	-14.479	-77.473	
5.00	-14.408	-78.220	
6.00	-14.342	-78.999	
7.00	-14.280	-79.856	
8.00	-14.216	-80.784	
9.00	-14.152	-81.749	
10.00	-14.089	-82.854	
11.00	-14.036	-83.912	
12.00	-13.972	-85.041	
13.00	-13.923	-86.262	
14.00	-13.868	-87.578	
15.00	-13.806	-88.959	
16.00	-13.750	-90.383	
17.00	-13.694	-91.806	
18.00	-13.625	-93.296	
19.00	-13.560	-94.842	
20.00	-13.497	-96.344	
21.00	-13.418	-97.847	
22.00	-13.348	-99.338	
23.00	-13.264	-100.792	
24.00	-13.188	-102.212	
25.00	-13.099	-103.560	
26.00	-13.011	-104.880	
27.00	-12.923	-106.181	
28.00	-12.833	-107.345	
29.00	-12.736	-108.484	
30.00	-12.645	-109.533	
31.00	-12.558	-110.470	
32.00	-12.484	-111.321	
33.00	-12.405	-112.161	
34.00	-12.333	-112.867	
35.00	-12.261	-113.500	
36.00	-12.197	-113.994	
37.00	-12.147	-114.383	
38.00	-12.099	-114.693	
39.00	-12.064	-114.915	
40.00	-12.036	-115.061	
41.00	-12.019	-115.139	
42.00	-12.021	-115.067	
43.00	-12.029	-114.919	
44.00	-12.046	-114.704	
45.00	-12.085	-114.419	
46.00	-12.136	-113.998	
47.00	-12.191	-113.541	
48.00	-12.278	-112.955	
49.00	-12.365	-112.302	
50.00	-12.468	-111.545	
51.00	-12.586	-110.692	
52.00	-12.713	-109.714	
53.00	-12.849	-108.706	
54.00	-13.004	-107.582	
55.00	-13.160	-106.285	
56.00	-13.337	-104.904	
57.00	-13.499	-103.402	
58.00	-13.679	-101.737	
59.00	-13.853	-99.981	
60.00	-14.032	-98.141	
61.00	-14.211	-96.185	
62.00	-14.378	-94.021	
63.00	-14.541	-91.810	
64.00	-14.697	-89.492	
65.00	-14.844	-87.014	
66.00	-14.965	-84.556	
67.00	-15.074	-82.051	
68.00	-15.166	-79.457	
69.00	-15.234	-76.818	
70.00	-15.286	-74.277	
71.00	-15.323	-71.768	
72.00	-15.330	-69.285	
73.00	-15.313	-66.848	
74.00	-15.289	-64.642	
75.00	-15.246	-62.419	
76.00	-15.200	-60.385	
77.00	-15.129	-58.458	
78.00	-15.057	-56.747	
79.00	-14.986	-55.147	
80.00	-14.906	-53.736	
81.00	-14.826	-52.478	
82.00	-14.736	-51.361	
83.00	-14.655	-50.424	
84.00	-14.582	-49.652	
85.00	-14.507	-49.010	
86.00	-14.430	-48.552	
87.00	-14.367	-48.222	
88.00	-14.307	-48.065	
89.00	-14.259	-47.962	
90.00	-14.209	-48.096	
91.00	-14.169	-48.321	
92.00	-14.139	-48.716	
93.00	-14.107	-49.256	
94.00	-14.091	-49.873	
95.00	-14.067	-50.700	
96.00	-14.056	-51.623	
97.00	-14.038	-52.677	
98.00	-14.028	-53.879	
99.00	-14.018	-55.105	
100.00	-14.006	-56.547	
101.00	-13.988	-58.026	
102.00	-13.978	-59.564	
103.00	-13.959	-61.215	
104.00	-13.938	-62.966	
105.00	-13.904	-64.811	
106.00	-13.867	-66.686	
107.00	-13.818	-68.528	
108.00	-13.766	-70.510	
109.00	-13.697	-72.419	
110.00	-13.633	-74.361	
111.00	-13.559	-76.271	
112.00	-13.476	-78.193	
113.00	-13.388	-80.002	
114.00	-13.294	-81.804	
115.00	-13.196	-83.499	
116.00	-13.099	-85.160	
117.00	-12.998	-86.769	
118.00	-12.901	-88.289	
119.00	-12.797	-89.718	
120.00	-12.702	-91.060	
121.00	-12.608	-92.356	
122.00	-12.512	-93.535	
123.00	-12.426	-94.629	
124.00	-12.348	-95.664	
125.00	-12.282	-96.601	
126.00	-12.209	-97.480	
127.00	-12.152	-98.296	
128.00	-12.106	-99.007	
129.00	-12.072	-99.647	
130.00	-12.032	-100.188	
131.00	-12.025	-100.698	
132.00	-12.020	-101.167	
133.00	-12.026	-101.528	
134.00	-12.048	-101.836	
135.00	-12.081	-102.086	
136.00	-12.128	-102.240	
137.00	-12.196	-102.348	
138.00	-12.270	-102.368	
139.00	-12.367	-102.274	
140.00	-12.482	-102.120	
141.00	-12.606	-101.878	
142.00	-12.763	-101.527	
143.00	-12.920	-101.022	
144.00	-13.103	-100.355	
145.00	-13.298	-99.525	
146.00	-13.503	-98.577	
147.00	-13.716	-97.425	
148.00	-13.943	-96.035	
149.00	-14.164	-94.465	
150.00	-14.380	-92.748	
151.00	-14.576	-90.801	
152.00	-14.777	-88.620	
153.00	-14.941	-86.306	
154.00	-15.089	-83.949	
155.00	-15.210	-81.482	
156.00	-15.288	-78.954	
157.00	-15.336	-76.507	
158.00	-15.356	-74.033	
159.00	-15.346	-71.740	
160.00	-15.311	-69.529	
161.00	-15.253	-67.446	
162.00	-15.195	-65.618	
163.00	-15.119	-64.049	
164.00	-15.044	-62.387	
165.00	-14.951	-60.980	
166.00	-14.879	-59.667	
167.00	-14.798	-58.564	
168.00	-14.719	-57.507	
169.00	-14.651	-56.537	
170.00	-14.585	-55.694	
171.00	-14.518	-54.947	
172.00	-14.465	-54.257	
173.00	-14.406	-53.654	
174.00	-14.355	-53.278	
175.00	-14.294	-52.902	
176.00	-14.251	-52.681	
177.00	-14.198	-52.606	
178.00	-14.159	-52.654	
179.00	-14.114	-52.985	
180.00	-14.082	-53.458	
181.00	-14.039	-54.099	
182.00	-14.009	-54.959	
183.00	-13.993	-56.017	
184.00	-13.965	-57.309	
185.00	-13.949	-58.799	
186.00	-13.932	-60.395	
187.00	-13.920	-62.194	
188.00	-13.902	-64.117	
189.00	-13.886	-66.155	
190.00	-13.867	-68.288	
191.00	-13.851	-70.460	
192.00	-13.818	-72.740	
193.00	-13.791	-75.021	
194.00	-13.744	-77.347	
195.00	-13.702	-79.591	
196.00	-13.652	-81.887	
197.00	-13.592	-84.107	
198.00	-13.524	-86.302	
199.00	-13.456	-88.370	
200.00	-13.385	-90.376	
201.00	-13.310	-92.368	
202.00	-13.226	-94.325	
203.00	-13.141	-96.128	
204.00	-13.046	-97.912	
205.00	-12.955	-99.685	
206.00	-12.861	-101.565	
207.00	-12.758	-103.107	
208.00	-12.657	-104.560	
209.00	-12.547	-106.063	
210.00	-12.451	-107.498	
211.00	-12.347	-108.852	
212.00	-12.254	-110.210	
213.00	-12.168	-111.401	
214.00	-12.082	-112.556	
215.00	-11.999	-113.640	
216.00	-11.932	-114.627	
217.00	-11.872	-115.582	
218.00	-11.819	-116.416	
219.00	-11.778	-117.214	
220.00	-11.749	-118.012	
221.00	-11.736	-118.580	
222.00	-11.729	-119.147	
223.00	-11.747	-119.669	
224.00	-11.766	-120.081	
225.00	-11.804	-120.447	
226.00	-11.856	-120.741	
227.00	-11.924	-120.942	
228.00	-12.004	-121.022	
229.00	-12.098	-121.067	
230.00	-12.200	-121.018	
231.00	-12.325	-120.832	
232.00	-12.454	-120.605	
233.00	-12.600	-120.232	
234.00	-12.763	-119.741	
235.00	-12.929	-119.202	
236.00	-13.108	-118.468	
237.00	-13.294	-117.633	
238.00	-13.491	-116.685	
239.00	-13.679	-115.591	
240.00	-13.895	-114.307	
241.00	-14.081	-112.919	
242.00	-14.280	-111.367	
243.00	-14.481	-109.662	
244.00	-14.649	-107.891	
245.00	-14.822	-105.820	
246.00	-14.971	-103.850	
247.00	-15.100	-101.643	
248.00	-15.216	-99.392	
249.00	-15.302	-97.083	
250.00	-15.365	-94.872	
251.00	-15.413	-92.532	
252.00	-15.425	-90.320	
253.00	-15.420	-88.178	
254.00	-15.395	-86.107	
255.00	-15.357	-84.227	
256.00	-15.300	-82.431	
257.00	-15.245	-80.874	
258.00	-15.166	-79.376	
259.00	-15.089	-78.103	
260.00	-15.011	-77.052	
261.00	-14.934	-76.131	
262.00	-14.851	-75.362	
263.00	-14.786	-74.789	
264.00	-14.706	-74.399	
265.00	-14.639	-74.164	
266.00	-14.588	-74.060	
267.00	-14.541	-74.163	
268.00	-14.503	-74.412	
269.00	-14.466	-74.849	
270.00	-14.453	-75.403	
271.00	-14.427	-75.998	
272.00	-14.424	-76.869	
273.00	-14.416	-77.809	
274.00	-14.414	-78.883	
275.00	-14.412	-80.179	
276.00	-14.416	-81.455	
277.00	-14.424	-82.970	
278.00	-14.427	-84.524	
279.00	-14.424	-86.243	
280.00	-14.412	-88.093	
281.00	-14.412	-89.995	
282.00	-14.382	-91.946	
283.00	-14.354	-93.992	
284.00	-14.320	-96.121	
285.00	-14.264	-98.241	
286.00	-14.200	-100.447	
287.00	-14.124	-102.659	
288.00	-14.052	-104.775	
289.00	-13.950	-106.935	
290.00	-13.853	-109.037	
291.00	-13.735	-111.063	
292.00	-13.622	-113.049	
293.00	-13.496	-114.945	
294.00	-13.370	-116.789	
295.00	-13.247	-118.574	
296.00	-13.113	-120.159	
297.00	-12.986	-121.742	
298.00	-12.865	-123.218	
299.00	-12.751	-124.588	
300.00	-12.644	-125.857	
301.00	-12.549	-127.055	
302.00	-12.452	-128.081	
303.00	-12.376	-129.063	
304.00	-12.305	-129.915	
305.00	-12.258	-130.663	
306.00	-12.214	-131.380	
307.00	-12.185	-131.959	
308.00	-12.169	-132.475	
309.00	-12.169	-132.864	
310.00	-12.184	-133.185	
311.00	-12.208	-133.437	
312.00	-12.255	-133.568	
313.00	-12.310	-133.589	
314.00	-12.380	-133.545	
315.00	-12.465	-133.387	
316.00	-12.563	-133.172	
317.00	-12.672	-132.827	
318.00	-12.794	-132.394	
319.00	-12.927	-131.869	
320.00	-13.068	-131.223	
321.00	-13.207	-130.499	
322.00	-13.361	-129.664	
323.00	-13.526	-128.679	
324.00	-13.683	-127.616	
325.00	-13.855	-126.486	
326.00	-14.016	-125.127	
327.00	-14.186	-123.745	
328.00	-14.346	-122.170	
329.00	-14.509	-120.581	
330.00	-14.657	-118.717	
331.00	-14.806	-116.851	
332.00	-14.939	-114.860	
333.00	-15.058	-112.735	
334.00	-15.169	-110.544	
335.00	-15.265	-108.297	
336.00	-15.348	-105.893	
337.00	-15.411	-103.544	
338.00	-15.462	-101.134	
339.00	-15.501	-98.637	
340.00	-15.509	-96.258	
341.00	-15.514	-93.821	
342.00	-15.499	-91.516	
343.00	-15.483	-89.200	
344.00	-15.447	-87.048	
345.00	-15.411	-84.947	
346.00	-15.357	-82.990	
347.00	-15.307	-81.190	
348.00	-15.255	-79.466	
349.00	-15.196	-77.974	
350.00	-15.144	-76.668	
351.00	-15.088	-75.498	
352.00	-15.027	-74.503	
353.00	-14.985	-73.713	
354.00	-14.938	-73.080	
355.00	-14.887	-72.613	
356.00	-14.850	-72.331	
357.00	-14.800	-72.182	
358.00	-14.758	-72.206	
359.00	-14.710	-72.323	
