Test Title:	Alpha Wireless Indoor Range						
Date:	21/12/2017						
Time:	15:44						
Operator Name:	FL						
Caib. File Name:	C:\Program Files\Midas 2.01d\Calibration Files\test sigma 180900.cal						
							
[Scan Axis] Name: 	Azimuth  [deg]Start: 	0.000000	Stop	359.000000	Increment	1.000000[Step Axis] Name: 	Start: 	0.000000	Stop	0.000000	Increment	0.000000[Tert] Name: 	None [Forth] Name: 	None  [ Freq.]  (List) 	MHz.	2300.000000	2350.000000	2400.000000	2450.000000	2500.000000	2550.000000	2600.000000	2650.000000	2700.000000
 [Switch]  	None [Channel]  	test			 [ Beam] 	None			
Database:			
First Question			
2nd			
3rd			
4th			
			
Frequency	2300.00	MHz	
Channel	test		
Scan Axis name	Azimuth  [deg]		
Scan Axis	Amplitude	Phase	
			
0.00	-19.143	-60.449	
1.00	-19.198	-56.771	
2.00	-19.536	-55.571	
3.00	-20.144	-59.144	
4.00	-21.008	-58.534	
5.00	-22.109	-51.986	
6.00	-23.449	-51.305	
7.00	-24.960	-52.848	
8.00	-26.729	-44.354	
9.00	-28.650	-35.678	
10.00	-30.697	-33.102	
11.00	-32.763	-26.703	
12.00	-34.736	-17.621	
13.00	-36.560	-16.001	
14.00	-38.205	-18.806	
15.00	-39.227	-22.235	
16.00	-39.532	-32.985	
17.00	-39.177	-45.469	
18.00	-38.406	-51.717	
19.00	-37.594	-56.712	
20.00	-36.692	-60.574	
21.00	-35.959	-58.811	
22.00	-35.463	-57.324	
23.00	-35.324	-54.809	
24.00	-35.487	-49.912	
25.00	-36.021	-43.702	
26.00	-36.601	-37.140	
27.00	-37.513	-30.836	
28.00	-38.429	-27.660	
29.00	-39.181	-22.481	
30.00	-39.923	-12.993	
31.00	-40.792	-2.793	
32.00	-41.836	7.936	
33.00	-42.705	18.402	
34.00	-43.432	31.077	
35.00	-43.803	42.549	
36.00	-43.650	52.966	
37.00	-43.762	60.087	
38.00	-43.754	69.491	
39.00	-43.850	71.198	
40.00	-44.278	72.667	
41.00	-44.751	75.171	
42.00	-45.766	73.819	
43.00	-46.427	68.017	
44.00	-47.023	61.940	
45.00	-47.560	53.713	
46.00	-48.954	47.769	
47.00	-50.062	41.883	
48.00	-52.685	32.539	
49.00	-55.954	1.389	
50.00	-55.385	-42.450	
51.00	-52.382	-69.376	
52.00	-49.037	-79.691	
53.00	-46.987	-84.154	
54.00	-45.536	-85.790	
55.00	-44.968	-85.809	
56.00	-44.466	-88.881	
57.00	-44.360	-93.360	
58.00	-44.171	-95.862	
59.00	-43.979	-102.015	
60.00	-43.537	-106.569	
61.00	-43.173	-111.159	
62.00	-42.676	-116.957	
63.00	-42.037	-120.708	
64.00	-41.476	-123.065	
65.00	-41.074	-120.850	
66.00	-40.377	-122.811	
67.00	-40.110	-121.287	
68.00	-39.866	-119.056	
69.00	-39.707	-116.656	
70.00	-39.855	-117.263	
71.00	-39.619	-114.050	
72.00	-39.682	-109.312	
73.00	-39.894	-108.123	
74.00	-39.963	-100.569	
75.00	-40.345	-96.664	
76.00	-40.298	-93.726	
77.00	-40.474	-89.137	
78.00	-40.630	-85.469	
79.00	-40.841	-79.512	
80.00	-41.001	-73.969	
81.00	-41.197	-70.211	
82.00	-41.502	-62.091	
83.00	-41.784	-55.193	
84.00	-42.032	-50.651	
85.00	-42.331	-42.854	
86.00	-42.646	-34.482	
87.00	-42.893	-28.978	
88.00	-43.314	-19.861	
89.00	-43.452	-10.127	
90.00	-43.692	-3.994	
91.00	-44.112	4.378	
92.00	-44.485	15.248	
93.00	-44.862	21.211	
94.00	-45.343	29.656	
95.00	-46.037	39.357	
96.00	-46.885	48.598	
97.00	-47.620	62.082	
98.00	-48.541	80.731	
99.00	-48.781	100.434	
100.00	-48.357	121.515	
101.00	-46.998	142.500	
102.00	-45.724	158.646	
103.00	-44.292	169.721	
104.00	-42.777	-177.976	
105.00	-41.628	-168.773	
106.00	-40.919	-162.281	
107.00	-40.323	-154.632	
108.00	-39.989	-146.654	
109.00	-39.868	-141.198	
110.00	-39.809	-135.524	
111.00	-40.184	-127.208	
112.00	-40.710	-121.434	
113.00	-41.681	-115.067	
114.00	-43.168	-105.997	
115.00	-44.850	-99.630	
116.00	-47.957	-88.330	
117.00	-52.316	-75.926	
118.00	-59.931	-53.803	
119.00	-60.349	84.938	
120.00	-52.188	109.108	
121.00	-48.855	116.653	
122.00	-45.943	126.253	
123.00	-43.938	136.710	
124.00	-42.642	146.799	
125.00	-41.988	151.928	
126.00	-41.290	156.562	
127.00	-40.651	166.034	
128.00	-40.388	173.832	
129.00	-40.508	174.348	
130.00	-40.485	178.529	
131.00	-40.752	-173.770	
132.00	-41.197	-175.171	
133.00	-41.730	-178.066	
134.00	-42.271	-179.155	
135.00	-42.661	-179.937	
136.00	-43.051	173.582	
137.00	-42.966	167.984	
138.00	-42.548	166.862	
139.00	-42.125	164.416	
140.00	-41.688	164.326	
141.00	-41.256	174.758	
142.00	-41.226	-178.801	
143.00	-41.203	-176.081	
144.00	-41.838	-166.972	
145.00	-42.520	-157.889	
146.00	-43.416	-154.530	
147.00	-44.452	-144.293	
148.00	-45.849	-131.089	
149.00	-46.697	-122.198	
150.00	-46.961	-127.079	
151.00	-47.205	-133.614	
152.00	-46.841	-144.371	
153.00	-45.619	-165.885	
154.00	-43.956	178.100	
155.00	-42.468	174.996	
156.00	-41.519	170.299	
157.00	-40.847	162.477	
158.00	-40.576	165.835	
159.00	-40.488	165.828	
160.00	-40.548	157.852	
161.00	-40.921	158.056	
162.00	-42.052	153.486	
163.00	-44.257	139.772	
164.00	-48.802	124.489	
165.00	-52.852	59.985	
166.00	-46.015	3.834	
167.00	-41.214	-8.861	
168.00	-37.951	-18.507	
169.00	-35.569	-24.685	
170.00	-33.511	-32.609	
171.00	-31.703	-42.407	
172.00	-30.063	-48.024	
173.00	-28.513	-57.023	
174.00	-27.091	-67.423	
175.00	-25.728	-67.834	
176.00	-24.479	-72.715	
177.00	-23.326	-81.069	
178.00	-22.280	-77.764	
179.00	-21.447	-79.543	
180.00	-20.844	-86.501	
181.00	-20.493	-83.234	
182.00	-20.439	-82.910	
183.00	-20.629	-86.205	
184.00	-21.132	-83.116	
185.00	-21.967	-82.832	
186.00	-23.115	-83.705	
187.00	-24.645	-81.198	
188.00	-26.731	-80.035	
189.00	-29.406	-75.863	
190.00	-32.968	-69.114	
191.00	-37.368	-57.504	
192.00	-40.605	-21.155	
193.00	-39.924	14.596	
194.00	-38.387	24.856	
195.00	-37.687	34.059	
196.00	-38.178	37.643	
197.00	-39.749	33.362	
198.00	-43.013	31.287	
199.00	-48.818	24.985	
200.00	-63.544	-65.840	
201.00	-49.468	-147.090	
202.00	-44.248	-161.324	
203.00	-41.120	-169.438	
204.00	-39.166	-177.984	
205.00	-37.988	169.879	
206.00	-37.722	164.804	
207.00	-38.070	161.818	
208.00	-39.125	148.828	
209.00	-40.934	136.726	
210.00	-43.665	124.135	
211.00	-46.991	94.443	
212.00	-47.903	50.262	
213.00	-46.591	11.943	
214.00	-44.397	-12.653	
215.00	-42.814	-31.565	
216.00	-41.511	-42.652	
217.00	-41.274	-50.314	
218.00	-41.711	-60.875	
219.00	-43.203	-69.835	
220.00	-46.290	-78.083	
221.00	-51.486	-103.091	
222.00	-53.741	-174.433	
223.00	-49.070	143.825	
224.00	-45.960	131.919	
225.00	-44.888	119.720	
226.00	-44.744	109.970	
227.00	-45.496	98.935	
228.00	-46.969	74.692	
229.00	-47.908	46.534	
230.00	-48.055	17.744	
231.00	-47.087	-6.177	
232.00	-46.506	-29.809	
233.00	-45.873	-47.747	
234.00	-45.228	-66.872	
235.00	-44.638	-86.237	
236.00	-43.846	-99.768	
237.00	-43.349	-109.923	
238.00	-43.279	-118.421	
239.00	-44.012	-127.253	
240.00	-45.377	-132.755	
241.00	-48.332	-135.141	
242.00	-54.514	-139.697	
243.00	-65.313	-5.315	
244.00	-51.138	20.770	
245.00	-45.904	18.474	
246.00	-42.724	13.586	
247.00	-40.703	13.515	
248.00	-39.293	10.372	
249.00	-38.526	3.437	
250.00	-38.152	2.819	
251.00	-37.998	-1.384	
252.00	-38.030	-10.375	
253.00	-38.457	-11.949	
254.00	-39.380	-14.975	
255.00	-40.146	-23.757	
256.00	-41.472	-29.753	
257.00	-42.621	-32.045	
258.00	-44.792	-37.784	
259.00	-46.758	-42.358	
260.00	-49.297	-43.431	
261.00	-52.313	-40.006	
262.00	-54.427	-27.041	
263.00	-54.235	-0.668	
264.00	-52.033	9.819	
265.00	-50.809	9.431	
266.00	-49.518	8.995	
267.00	-48.343	3.994	
268.00	-47.025	-11.796	
269.00	-46.003	-20.946	
270.00	-45.181	-29.853	
271.00	-44.607	-45.284	
272.00	-43.884	-60.371	
273.00	-43.300	-75.611	
274.00	-42.775	-89.109	
275.00	-42.207	-105.391	
276.00	-41.770	-118.258	
277.00	-41.429	-130.596	
278.00	-41.153	-139.682	
279.00	-41.049	-154.134	
280.00	-41.142	-167.668	
281.00	-41.393	-175.936	
282.00	-41.832	172.162	
283.00	-42.475	155.203	
284.00	-43.568	137.474	
285.00	-44.515	119.169	
286.00	-45.181	93.256	
287.00	-45.341	66.001	
288.00	-44.787	37.439	
289.00	-43.275	14.778	
290.00	-41.895	-6.012	
291.00	-40.515	-20.001	
292.00	-39.420	-34.276	
293.00	-38.703	-45.832	
294.00	-38.270	-53.702	
295.00	-38.053	-66.457	
296.00	-38.206	-78.719	
297.00	-38.908	-81.984	
298.00	-39.961	-87.511	
299.00	-41.409	-97.457	
300.00	-44.167	-95.935	
301.00	-48.487	-90.007	
302.00	-52.638	-49.563	
303.00	-48.678	-2.891	
304.00	-44.903	6.220	
305.00	-41.876	6.029	
306.00	-40.364	4.529	
307.00	-39.227	2.976	
308.00	-38.523	-0.673	
309.00	-38.495	-4.162	
310.00	-38.383	-4.013	
311.00	-38.711	-2.606	
312.00	-38.526	-2.214	
313.00	-38.517	-3.305	
314.00	-38.510	-2.007	
315.00	-38.420	-5.699	
316.00	-38.436	-14.065	
317.00	-38.662	-20.927	
318.00	-39.012	-29.325	
319.00	-39.389	-40.196	
320.00	-39.582	-53.216	
321.00	-39.475	-69.076	
322.00	-39.198	-82.198	
323.00	-38.919	-92.819	
324.00	-38.571	-104.567	
325.00	-38.443	-112.749	
326.00	-38.575	-118.720	
327.00	-39.277	-122.579	
328.00	-40.437	-121.464	
329.00	-41.946	-111.996	
330.00	-43.012	-93.922	
331.00	-42.003	-71.202	
332.00	-39.846	-56.371	
333.00	-37.835	-50.999	
334.00	-36.359	-49.769	
335.00	-35.345	-51.505	
336.00	-34.571	-52.429	
337.00	-34.288	-57.942	
338.00	-34.196	-64.831	
339.00	-34.543	-66.180	
340.00	-34.982	-77.234	
341.00	-35.938	-92.202	
342.00	-37.030	-102.735	
343.00	-38.065	-125.394	
344.00	-38.596	-148.319	
345.00	-39.039	-162.417	
346.00	-39.943	-177.103	
347.00	-42.171	174.766	
348.00	-48.292	171.408	
349.00	-56.713	-34.794	
350.00	-40.849	-30.895	
351.00	-34.722	-32.270	
352.00	-30.769	-43.499	
353.00	-27.619	-44.898	
354.00	-25.225	-43.518	
355.00	-23.401	-53.171	
356.00	-21.979	-54.582	
357.00	-20.894	-49.567	
358.00	-20.107	-52.557	
359.00	-19.654	-54.314	
Frequency	2350.00	MHz	
Channel	test		
Scan Axis name	Azimuth  [deg]		
Scan Axis	Amplitude	Phase	
			
0.00	-19.934	-36.937	
1.00	-20.041	-33.116	
2.00	-20.331	-32.306	
3.00	-20.838	-36.520	
4.00	-21.561	-36.479	
5.00	-22.562	-30.843	
6.00	-23.846	-32.199	
7.00	-25.393	-36.658	
8.00	-27.282	-32.221	
9.00	-29.427	-29.695	
10.00	-31.842	-36.510	
11.00	-34.487	-41.216	
12.00	-37.135	-45.922	
13.00	-39.365	-62.457	
14.00	-40.015	-77.740	
15.00	-39.403	-82.382	
16.00	-38.412	-83.602	
17.00	-37.357	-79.604	
18.00	-36.319	-69.967	
19.00	-35.409	-63.156	
20.00	-34.482	-58.348	
21.00	-33.685	-52.318	
22.00	-33.079	-49.674	
23.00	-32.767	-47.657	
24.00	-32.734	-44.267	
25.00	-33.044	-41.624	
26.00	-33.574	-39.782	
27.00	-34.403	-38.660	
28.00	-35.449	-41.373	
29.00	-36.664	-43.905	
30.00	-38.258	-42.358	
31.00	-40.449	-40.257	
32.00	-43.533	-38.066	
33.00	-48.568	-30.922	
34.00	-57.482	11.469	
35.00	-52.628	97.965	
36.00	-47.240	112.319	
37.00	-44.353	116.860	
38.00	-42.599	119.543	
39.00	-41.671	117.275	
40.00	-41.296	116.544	
41.00	-41.417	119.086	
42.00	-42.036	117.296	
43.00	-42.929	112.602	
44.00	-43.984	109.472	
45.00	-45.168	102.893	
46.00	-46.281	95.235	
47.00	-47.372	90.731	
48.00	-48.779	90.034	
49.00	-51.094	91.245	
50.00	-54.961	99.643	
51.00	-62.727	141.369	
52.00	-57.480	-124.614	
53.00	-51.635	-104.527	
54.00	-48.171	-94.793	
55.00	-45.905	-84.064	
56.00	-44.652	-77.150	
57.00	-44.020	-67.851	
58.00	-43.879	-59.060	
59.00	-44.557	-50.598	
60.00	-45.623	-41.103	
61.00	-47.601	-30.664	
62.00	-50.579	-19.759	
63.00	-56.033	-5.590	
64.00	-69.603	60.976	
65.00	-57.652	179.927	
66.00	-51.604	-168.645	
67.00	-48.670	-160.740	
68.00	-46.240	-146.965	
69.00	-44.833	-137.687	
70.00	-44.282	-130.863	
71.00	-43.693	-123.931	
72.00	-43.537	-114.699	
73.00	-43.330	-110.651	
74.00	-43.258	-104.523	
75.00	-42.876	-100.200	
76.00	-42.694	-97.615	
77.00	-42.618	-93.696	
78.00	-42.288	-90.864	
79.00	-42.062	-86.933	
80.00	-41.684	-83.733	
81.00	-41.353	-81.431	
82.00	-40.903	-75.762	
83.00	-40.546	-71.153	
84.00	-40.364	-69.015	
85.00	-40.044	-64.060	
86.00	-39.901	-59.820	
87.00	-39.744	-57.881	
88.00	-39.630	-52.945	
89.00	-39.673	-48.096	
90.00	-39.743	-46.335	
91.00	-39.843	-42.314	
92.00	-40.224	-37.105	
93.00	-40.628	-33.666	
94.00	-41.231	-29.575	
95.00	-42.053	-24.562	
96.00	-43.105	-20.838	
97.00	-44.562	-17.347	
98.00	-46.481	-12.056	
99.00	-49.362	-8.318	
100.00	-54.256	-3.535	
101.00	-66.128	-0.014	
102.00	-60.016	-173.716	
103.00	-52.397	-170.937	
104.00	-48.791	-165.049	
105.00	-46.253	-160.018	
106.00	-44.871	-156.176	
107.00	-43.930	-151.266	
108.00	-43.470	-145.290	
109.00	-43.479	-142.915	
110.00	-43.878	-142.013	
111.00	-44.849	-136.952	
112.00	-46.233	-139.346	
113.00	-48.631	-143.247	
114.00	-51.620	-155.611	
115.00	-53.054	171.803	
116.00	-51.685	143.284	
117.00	-48.455	130.326	
118.00	-46.154	121.780	
119.00	-44.345	123.351	
120.00	-42.906	128.328	
121.00	-42.017	128.796	
122.00	-41.485	132.588	
123.00	-41.099	137.660	
124.00	-41.008	142.859	
125.00	-41.291	145.917	
126.00	-41.632	146.616	
127.00	-42.047	150.653	
128.00	-42.816	154.674	
129.00	-43.542	148.133	
130.00	-44.290	145.719	
131.00	-45.201	146.758	
132.00	-45.540	136.351	
133.00	-45.313	124.708	
134.00	-44.603	120.982	
135.00	-43.804	120.888	
136.00	-42.934	118.465	
137.00	-42.249	117.782	
138.00	-41.670	124.551	
139.00	-41.289	125.548	
140.00	-41.133	126.969	
141.00	-41.064	139.074	
142.00	-41.143	144.546	
143.00	-41.177	147.399	
144.00	-41.899	158.576	
145.00	-42.456	168.097	
146.00	-43.460	172.233	
147.00	-45.146	-173.474	
148.00	-47.602	-153.435	
149.00	-49.659	-137.830	
150.00	-51.551	-127.048	
151.00	-55.008	-120.326	
152.00	-59.750	-135.038	
153.00	-57.808	160.147	
154.00	-51.249	147.163	
155.00	-46.652	153.372	
156.00	-43.613	159.650	
157.00	-41.396	160.851	
158.00	-39.836	169.824	
159.00	-38.888	174.414	
160.00	-38.771	172.274	
161.00	-39.275	177.360	
162.00	-40.464	178.717	
163.00	-42.562	176.420	
164.00	-45.438	177.915	
165.00	-50.226	173.603	
166.00	-66.828	109.719	
167.00	-49.909	12.619	
168.00	-43.122	6.396	
169.00	-38.938	3.135	
170.00	-35.929	-3.730	
171.00	-33.560	-12.853	
172.00	-31.485	-17.526	
173.00	-29.552	-25.527	
174.00	-27.815	-33.356	
175.00	-26.195	-30.070	
176.00	-24.760	-32.619	
177.00	-23.524	-39.221	
178.00	-22.474	-34.422	
179.00	-21.678	-36.036	
180.00	-21.126	-42.670	
181.00	-20.824	-38.373	
182.00	-20.782	-37.589	
183.00	-21.004	-40.286	
184.00	-21.519	-36.486	
185.00	-22.378	-36.367	
186.00	-23.611	-36.793	
187.00	-25.294	-33.119	
188.00	-27.595	-29.121	
189.00	-30.416	-18.800	
190.00	-33.756	-0.586	
191.00	-36.259	25.753	
192.00	-36.309	59.154	
193.00	-35.561	81.230	
194.00	-35.267	87.487	
195.00	-35.926	97.425	
196.00	-37.439	105.521	
197.00	-40.317	108.688	
198.00	-45.273	129.577	
199.00	-48.692	-167.759	
200.00	-43.897	-122.868	
201.00	-40.401	-109.404	
202.00	-38.851	-103.381	
203.00	-38.433	-96.533	
204.00	-39.183	-94.795	
205.00	-41.001	-99.694	
206.00	-43.664	-97.331	
207.00	-47.862	-88.527	
208.00	-54.720	-52.336	
209.00	-50.374	6.749	
210.00	-45.359	18.033	
211.00	-42.576	17.492	
212.00	-40.932	14.015	
213.00	-40.366	11.008	
214.00	-40.394	6.429	
215.00	-40.930	-2.911	
216.00	-41.522	-14.571	
217.00	-42.139	-25.488	
218.00	-42.664	-39.542	
219.00	-43.446	-51.116	
220.00	-45.022	-58.152	
221.00	-47.982	-65.149	
222.00	-53.293	-81.888	
223.00	-65.208	-156.433	
224.00	-54.678	125.329	
225.00	-50.710	110.322	
226.00	-48.923	99.883	
227.00	-48.737	89.776	
228.00	-49.495	65.440	
229.00	-49.953	37.465	
230.00	-49.187	9.947	
231.00	-47.551	-17.796	
232.00	-46.101	-37.727	
233.00	-44.903	-52.684	
234.00	-43.801	-68.012	
235.00	-42.591	-86.427	
236.00	-41.324	-99.407	
237.00	-40.178	-108.669	
238.00	-39.115	-118.176	
239.00	-38.366	-126.683	
240.00	-37.845	-131.415	
241.00	-37.737	-133.994	
242.00	-38.017	-139.055	
243.00	-38.450	-139.494	
244.00	-39.159	-134.574	
245.00	-40.365	-134.974	
246.00	-41.399	-132.139	
247.00	-42.333	-118.322	
248.00	-42.870	-108.020	
249.00	-42.899	-101.754	
250.00	-42.338	-90.068	
251.00	-41.500	-85.225	
252.00	-40.848	-89.117	
253.00	-40.253	-88.264	
254.00	-39.815	-88.652	
255.00	-39.576	-97.069	
256.00	-39.459	-103.420	
257.00	-39.574	-107.259	
258.00	-39.884	-115.831	
259.00	-40.312	-123.118	
260.00	-40.770	-128.010	
261.00	-41.522	-136.517	
262.00	-42.517	-144.994	
263.00	-43.537	-149.499	
264.00	-45.295	-154.260	
265.00	-47.462	-162.076	
266.00	-49.589	-165.618	
267.00	-53.187	-165.574	
268.00	-59.609	-143.478	
269.00	-58.511	-79.223	
270.00	-52.558	-62.583	
271.00	-48.956	-64.026	
272.00	-46.377	-72.021	
273.00	-44.203	-81.140	
274.00	-42.931	-90.176	
275.00	-41.581	-100.715	
276.00	-40.747	-110.135	
277.00	-40.167	-117.933	
278.00	-39.748	-125.261	
279.00	-39.499	-136.884	
280.00	-39.415	-149.601	
281.00	-39.683	-156.813	
282.00	-40.267	-166.599	
283.00	-41.014	175.417	
284.00	-42.184	161.170	
285.00	-43.785	143.242	
286.00	-45.517	115.088	
287.00	-46.123	79.171	
288.00	-44.581	44.258	
289.00	-42.370	17.126	
290.00	-40.127	-2.291	
291.00	-38.324	-15.610	
292.00	-36.952	-29.360	
293.00	-35.850	-40.041	
294.00	-35.152	-47.904	
295.00	-34.850	-59.644	
296.00	-34.857	-71.727	
297.00	-35.043	-73.629	
298.00	-35.612	-78.640	
299.00	-36.594	-86.827	
300.00	-37.923	-85.133	
301.00	-39.493	-82.297	
302.00	-40.944	-74.917	
303.00	-41.593	-56.979	
304.00	-40.990	-44.500	
305.00	-39.769	-38.369	
306.00	-38.634	-33.567	
307.00	-37.749	-31.735	
308.00	-37.253	-35.031	
309.00	-37.119	-38.115	
310.00	-37.275	-39.798	
311.00	-37.730	-39.619	
312.00	-38.499	-41.932	
313.00	-39.329	-42.882	
314.00	-40.427	-38.590	
315.00	-41.498	-36.962	
316.00	-42.171	-37.780	
317.00	-42.575	-35.569	
318.00	-42.678	-36.287	
319.00	-42.547	-41.693	
320.00	-41.962	-49.880	
321.00	-41.046	-63.479	
322.00	-40.034	-73.659	
323.00	-39.034	-83.070	
324.00	-38.280	-92.843	
325.00	-37.708	-99.762	
326.00	-37.428	-104.549	
327.00	-37.558	-108.094	
328.00	-38.006	-107.756	
329.00	-38.706	-104.115	
330.00	-39.390	-97.756	
331.00	-39.767	-86.098	
332.00	-39.485	-71.785	
333.00	-38.581	-60.006	
334.00	-37.493	-52.613	
335.00	-36.511	-49.267	
336.00	-35.984	-46.562	
337.00	-35.777	-50.240	
338.00	-36.005	-56.477	
339.00	-36.748	-58.826	
340.00	-37.165	-74.326	
341.00	-38.049	-92.253	
342.00	-38.801	-106.744	
343.00	-39.117	-131.579	
344.00	-38.868	-155.312	
345.00	-38.488	-168.496	
346.00	-38.809	177.031	
347.00	-40.375	166.018	
348.00	-44.889	150.531	
349.00	-50.535	54.396	
350.00	-40.103	3.873	
351.00	-34.171	-4.846	
352.00	-30.496	-17.657	
353.00	-27.672	-19.460	
354.00	-25.485	-19.241	
355.00	-23.746	-29.458	
356.00	-22.384	-31.098	
357.00	-21.332	-26.093	
358.00	-20.598	-28.970	
359.00	-20.200	-30.250	
Frequency	2400.00	MHz	
Channel	test		
Scan Axis name	Azimuth  [deg]		
Scan Axis	Amplitude	Phase	
			
0.00	-20.542	-9.588	
1.00	-20.611	-5.769	
2.00	-20.956	-5.724	
3.00	-21.540	-11.098	
4.00	-22.394	-12.288	
5.00	-23.586	-8.626	
6.00	-25.115	-12.720	
7.00	-26.964	-20.169	
8.00	-29.450	-19.861	
9.00	-32.418	-25.058	
10.00	-35.425	-46.022	
11.00	-37.361	-72.046	
12.00	-37.201	-93.494	
13.00	-36.402	-109.528	
14.00	-35.731	-116.357	
15.00	-35.339	-112.722	
16.00	-35.316	-109.565	
17.00	-35.345	-102.595	
18.00	-35.276	-88.487	
19.00	-35.049	-75.680	
20.00	-34.594	-64.727	
21.00	-34.134	-54.380	
22.00	-33.823	-47.475	
23.00	-33.604	-43.235	
24.00	-33.672	-38.416	
25.00	-34.056	-34.536	
26.00	-34.803	-31.721	
27.00	-36.077	-30.468	
28.00	-37.763	-35.471	
29.00	-39.692	-44.629	
30.00	-41.581	-53.485	
31.00	-43.150	-65.585	
32.00	-44.778	-75.672	
33.00	-47.578	-87.283	
34.00	-52.113	-103.660	
35.00	-58.046	-169.854	
36.00	-51.500	136.897	
37.00	-46.736	125.515	
38.00	-44.229	124.054	
39.00	-42.300	118.363	
40.00	-41.130	115.775	
41.00	-40.337	117.548	
42.00	-39.789	116.367	
43.00	-39.582	115.942	
44.00	-39.622	118.121	
45.00	-40.023	119.489	
46.00	-40.922	120.324	
47.00	-42.123	122.518	
48.00	-43.475	123.483	
49.00	-44.964	124.950	
50.00	-46.526	126.974	
51.00	-48.142	133.387	
52.00	-50.281	145.149	
53.00	-52.601	168.280	
54.00	-53.394	-147.122	
55.00	-50.807	-103.010	
56.00	-47.246	-77.593	
57.00	-44.694	-57.939	
58.00	-42.809	-41.632	
59.00	-41.416	-27.818	
60.00	-40.608	-14.152	
61.00	-40.250	-0.790	
62.00	-40.325	11.738	
63.00	-40.883	23.377	
64.00	-41.829	37.710	
65.00	-43.301	54.035	
66.00	-45.320	67.466	
67.00	-48.159	83.873	
68.00	-51.882	109.783	
69.00	-55.341	151.385	
70.00	-55.263	-157.179	
71.00	-52.793	-127.363	
72.00	-51.156	-104.994	
73.00	-50.596	-95.366	
74.00	-50.451	-86.772	
75.00	-51.060	-84.555	
76.00	-52.724	-85.521	
77.00	-54.774	-100.177	
78.00	-54.469	-121.383	
79.00	-52.463	-140.154	
80.00	-49.903	-147.297	
81.00	-47.563	-150.065	
82.00	-45.703	-146.881	
83.00	-44.282	-142.895	
84.00	-43.085	-139.895	
85.00	-42.085	-133.588	
86.00	-41.359	-127.294	
87.00	-40.591	-123.329	
88.00	-40.221	-115.475	
89.00	-39.885	-108.104	
90.00	-39.592	-103.213	
91.00	-39.442	-95.661	
92.00	-39.468	-87.646	
93.00	-39.586	-81.908	
94.00	-39.893	-74.997	
95.00	-40.412	-66.692	
96.00	-41.164	-60.657	
97.00	-42.146	-54.088	
98.00	-43.822	-43.886	
99.00	-45.830	-35.752	
100.00	-48.743	-25.718	
101.00	-53.325	-7.077	
102.00	-59.630	44.713	
103.00	-56.090	121.044	
104.00	-50.684	147.954	
105.00	-47.523	162.305	
106.00	-45.676	169.197	
107.00	-44.292	179.530	
108.00	-43.614	-171.310	
109.00	-43.408	-165.795	
110.00	-43.865	-160.822	
111.00	-44.525	-152.176	
112.00	-45.940	-150.396	
113.00	-48.129	-146.791	
114.00	-51.303	-148.413	
115.00	-54.949	-171.326	
116.00	-55.868	149.584	
117.00	-51.999	127.153	
118.00	-48.942	121.936	
119.00	-47.135	123.255	
120.00	-45.573	131.699	
121.00	-44.763	133.721	
122.00	-44.887	139.896	
123.00	-45.407	146.497	
124.00	-46.338	152.052	
125.00	-48.572	151.745	
126.00	-52.190	132.167	
127.00	-53.571	90.886	
128.00	-50.080	67.627	
129.00	-47.015	54.501	
130.00	-44.567	58.829	
131.00	-42.951	71.264	
132.00	-41.715	75.280	
133.00	-41.113	80.220	
134.00	-40.423	90.849	
135.00	-39.768	101.315	
136.00	-39.516	105.067	
137.00	-39.588	107.337	
138.00	-39.988	113.473	
139.00	-40.771	109.999	
140.00	-41.638	102.071	
141.00	-42.100	101.506	
142.00	-41.966	92.811	
143.00	-41.261	81.624	
144.00	-40.364	80.971	
145.00	-39.410	79.922	
146.00	-39.028	73.815	
147.00	-38.971	76.034	
148.00	-39.196	81.476	
149.00	-39.875	81.061	
150.00	-40.936	77.958	
151.00	-42.088	80.171	
152.00	-42.889	82.607	
153.00	-43.540	76.969	
154.00	-44.193	69.113	
155.00	-44.175	65.221	
156.00	-44.213	58.191	
157.00	-44.156	48.422	
158.00	-44.055	50.830	
159.00	-44.437	52.624	
160.00	-45.582	51.982	
161.00	-46.890	56.622	
162.00	-48.363	59.053	
163.00	-49.680	58.966	
164.00	-49.895	65.697	
165.00	-49.426	70.277	
166.00	-47.756	69.016	
167.00	-45.001	61.482	
168.00	-41.968	53.439	
169.00	-38.796	45.979	
170.00	-35.865	38.141	
171.00	-33.284	30.747	
172.00	-30.872	28.161	
173.00	-28.789	21.690	
174.00	-27.044	15.100	
175.00	-25.467	18.943	
176.00	-24.184	16.097	
177.00	-23.085	10.478	
178.00	-22.213	16.222	
179.00	-21.621	15.244	
180.00	-21.263	9.190	
181.00	-21.105	13.764	
182.00	-21.152	14.021	
183.00	-21.442	11.303	
184.00	-21.996	15.205	
185.00	-22.865	15.604	
186.00	-24.026	16.005	
187.00	-25.455	20.421	
188.00	-27.179	24.573	
189.00	-29.145	32.689	
190.00	-31.465	42.599	
191.00	-33.796	54.202	
192.00	-35.530	77.289	
193.00	-36.549	101.574	
194.00	-37.068	113.060	
195.00	-37.808	128.060	
196.00	-39.078	139.908	
197.00	-41.322	145.601	
198.00	-44.535	161.781	
199.00	-48.259	-164.273	
200.00	-48.157	-112.603	
201.00	-44.394	-83.210	
202.00	-41.865	-69.829	
203.00	-40.255	-59.352	
204.00	-39.775	-53.009	
205.00	-39.979	-53.000	
206.00	-40.433	-46.897	
207.00	-41.184	-39.207	
208.00	-42.281	-37.470	
209.00	-43.220	-32.680	
210.00	-43.977	-23.976	
211.00	-44.866	-18.377	
212.00	-45.475	-15.654	
213.00	-46.595	-13.055	
214.00	-47.789	-17.389	
215.00	-48.865	-34.744	
216.00	-47.666	-57.415	
217.00	-45.448	-69.935	
218.00	-43.219	-80.983	
219.00	-41.768	-85.128	
220.00	-40.926	-84.728	
221.00	-40.705	-86.451	
222.00	-41.071	-88.643	
223.00	-41.849	-87.816	
224.00	-43.297	-86.328	
225.00	-44.981	-86.046	
226.00	-47.027	-82.617	
227.00	-48.594	-70.724	
228.00	-49.338	-59.052	
229.00	-48.759	-49.681	
230.00	-47.953	-40.366	
231.00	-47.042	-41.273	
232.00	-46.126	-48.857	
233.00	-45.534	-53.967	
234.00	-44.883	-65.742	
235.00	-43.929	-80.551	
236.00	-42.811	-93.870	
237.00	-41.368	-102.219	
238.00	-40.203	-111.084	
239.00	-39.205	-119.480	
240.00	-38.417	-123.881	
241.00	-37.932	-126.377	
242.00	-37.729	-130.582	
243.00	-37.709	-131.255	
244.00	-37.791	-125.923	
245.00	-38.207	-127.620	
246.00	-38.519	-126.320	
247.00	-38.783	-116.865	
248.00	-39.019	-112.613	
249.00	-38.897	-110.389	
250.00	-38.686	-102.519	
251.00	-38.253	-99.567	
252.00	-37.836	-102.969	
253.00	-37.420	-101.410	
254.00	-36.947	-100.709	
255.00	-36.696	-107.922	
256.00	-36.369	-112.998	
257.00	-36.358	-116.927	
258.00	-36.313	-125.220	
259.00	-36.438	-132.245	
260.00	-36.561	-136.985	
261.00	-36.871	-146.312	
262.00	-37.264	-154.976	
263.00	-37.635	-161.261	
264.00	-38.247	-169.152	
265.00	-39.019	179.170	
266.00	-39.540	172.475	
267.00	-40.414	164.663	
268.00	-41.901	149.211	
269.00	-43.341	137.762	
270.00	-44.888	129.358	
271.00	-47.639	116.539	
272.00	-51.670	100.791	
273.00	-60.590	72.138	
274.00	-60.901	-52.774	
275.00	-51.715	-88.784	
276.00	-47.475	-103.182	
277.00	-44.886	-112.814	
278.00	-42.931	-121.098	
279.00	-41.659	-133.094	
280.00	-40.659	-144.307	
281.00	-40.086	-150.511	
282.00	-39.922	-158.685	
283.00	-40.070	-172.493	
284.00	-40.605	177.680	
285.00	-41.668	168.083	
286.00	-43.551	156.524	
287.00	-46.646	141.100	
288.00	-51.732	112.784	
289.00	-54.550	32.642	
290.00	-48.513	-18.771	
291.00	-43.883	-36.419	
292.00	-41.042	-51.437	
293.00	-38.975	-61.659	
294.00	-37.574	-68.702	
295.00	-36.642	-80.155	
296.00	-36.037	-91.233	
297.00	-35.901	-93.892	
298.00	-35.979	-100.106	
299.00	-36.417	-108.637	
300.00	-37.224	-110.809	
301.00	-38.225	-114.686	
302.00	-39.619	-117.112	
303.00	-41.188	-112.179	
304.00	-42.630	-105.218	
305.00	-43.403	-95.839	
306.00	-43.540	-85.284	
307.00	-43.011	-76.471	
308.00	-42.201	-75.545	
309.00	-41.825	-78.372	
310.00	-41.585	-80.623	
311.00	-41.951	-83.477	
312.00	-42.214	-89.200	
313.00	-42.547	-96.048	
314.00	-43.126	-99.841	
315.00	-43.666	-106.190	
316.00	-43.902	-112.865	
317.00	-43.548	-115.401	
318.00	-42.916	-116.322	
319.00	-42.072	-117.944	
320.00	-41.140	-119.030	
321.00	-40.159	-122.781	
322.00	-39.342	-123.769	
323.00	-38.580	-123.734	
324.00	-37.987	-125.586	
325.00	-37.524	-125.346	
326.00	-37.169	-123.365	
327.00	-36.798	-122.024	
328.00	-36.658	-118.570	
329.00	-36.622	-114.433	
330.00	-36.821	-112.943	
331.00	-37.092	-106.257	
332.00	-37.430	-98.745	
333.00	-37.502	-91.262	
334.00	-37.385	-84.639	
335.00	-37.163	-79.424	
336.00	-37.010	-73.383	
337.00	-36.851	-73.850	
338.00	-36.953	-75.609	
339.00	-36.914	-70.612	
340.00	-36.965	-84.908	
341.00	-37.265	-101.581	
342.00	-37.326	-114.059	
343.00	-37.108	-134.593	
344.00	-36.883	-152.593	
345.00	-36.911	-160.329	
346.00	-37.313	-170.651	
347.00	-38.733	-178.092	
348.00	-41.568	176.034	
349.00	-48.782	144.673	
350.00	-46.408	32.800	
351.00	-37.396	14.671	
352.00	-32.341	2.390	
353.00	-28.968	2.582	
354.00	-26.532	4.069	
355.00	-24.615	-5.377	
356.00	-23.142	-5.709	
357.00	-22.059	-0.288	
358.00	-21.242	-3.431	
359.00	-20.787	-4.619	
Frequency	2450.00	MHz	
Channel	test		
Scan Axis name	Azimuth  [deg]		
Scan Axis	Amplitude	Phase	
			
0.00	-20.913	28.678	
1.00	-20.920	33.009	
2.00	-21.204	33.196	
3.00	-21.810	28.211	
4.00	-22.743	28.077	
5.00	-24.032	32.845	
6.00	-25.787	29.446	
7.00	-28.045	23.590	
8.00	-31.075	25.843	
9.00	-35.225	23.258	
10.00	-41.643	-4.464	
11.00	-44.610	-74.391	
12.00	-39.773	-107.469	
13.00	-36.937	-120.023	
14.00	-35.811	-123.677	
15.00	-35.879	-118.735	
16.00	-36.669	-119.069	
17.00	-38.292	-115.280	
18.00	-40.586	-101.255	
19.00	-42.874	-82.842	
20.00	-44.015	-51.268	
21.00	-42.904	-23.951	
22.00	-41.003	-11.963	
23.00	-39.942	-5.711	
24.00	-39.261	-3.420	
25.00	-39.403	-4.202	
26.00	-39.869	-5.174	
27.00	-40.934	-9.668	
28.00	-42.896	-17.012	
29.00	-45.565	-27.894	
30.00	-48.322	-44.799	
31.00	-51.154	-76.840	
32.00	-50.920	-117.733	
33.00	-48.435	-144.552	
34.00	-46.838	-163.425	
35.00	-45.344	-176.875	
36.00	-43.849	166.972	
37.00	-42.594	158.680	
38.00	-41.578	152.342	
39.00	-40.546	142.779	
40.00	-40.151	137.202	
41.00	-40.121	134.681	
42.00	-40.270	128.106	
43.00	-40.510	118.891	
44.00	-40.633	113.459	
45.00	-40.656	105.825	
46.00	-40.786	98.934	
47.00	-41.257	94.548	
48.00	-41.947	89.029	
49.00	-42.652	81.035	
50.00	-43.216	72.329	
51.00	-43.633	63.777	
52.00	-43.635	55.290	
53.00	-44.106	44.574	
54.00	-44.761	39.811	
55.00	-45.006	28.018	
56.00	-44.928	11.545	
57.00	-43.678	1.753	
58.00	-41.976	-4.770	
59.00	-40.465	-5.186	
60.00	-39.287	-1.304	
61.00	-38.471	5.677	
62.00	-38.141	12.563	
63.00	-38.205	21.518	
64.00	-38.573	33.117	
65.00	-39.354	45.741	
66.00	-40.387	55.564	
67.00	-41.735	65.414	
68.00	-43.588	80.325	
69.00	-45.422	89.633	
70.00	-48.352	93.400	
71.00	-51.763	103.127	
72.00	-56.475	98.350	
73.00	-60.511	76.589	
74.00	-59.979	46.012	
75.00	-56.832	38.134	
76.00	-55.260	46.996	
77.00	-55.372	59.498	
78.00	-54.407	73.952	
79.00	-54.733	96.285	
80.00	-54.184	120.792	
81.00	-52.491	140.028	
82.00	-51.080	162.829	
83.00	-49.482	178.962	
84.00	-48.219	-169.687	
85.00	-46.967	-155.557	
86.00	-46.029	-146.376	
87.00	-45.168	-141.439	
88.00	-44.747	-131.252	
89.00	-44.513	-123.523	
90.00	-44.409	-119.670	
91.00	-44.654	-112.296	
92.00	-45.348	-106.269	
93.00	-46.129	-104.384	
94.00	-47.628	-99.501	
95.00	-49.749	-96.536	
96.00	-53.067	-99.095	
97.00	-58.154	-124.640	
98.00	-58.346	-172.606	
99.00	-53.324	155.004	
100.00	-49.377	150.767	
101.00	-46.765	155.065	
102.00	-44.815	157.413	
103.00	-43.711	162.717	
104.00	-43.017	173.139	
105.00	-42.323	-177.336	
106.00	-42.196	-170.454	
107.00	-42.173	-158.540	
108.00	-42.613	-144.401	
109.00	-42.992	-131.483	
110.00	-43.898	-113.428	
111.00	-44.407	-92.887	
112.00	-44.913	-74.567	
113.00	-45.091	-50.464	
114.00	-45.104	-26.444	
115.00	-45.110	-8.777	
116.00	-45.140	14.594	
117.00	-45.240	36.277	
118.00	-45.425	53.951	
119.00	-45.704	78.855	
120.00	-46.054	97.993	
121.00	-46.665	118.139	
122.00	-48.124	140.289	
123.00	-51.255	175.168	
124.00	-52.281	-137.328	
125.00	-49.023	-85.827	
126.00	-44.807	-58.077	
127.00	-41.359	-33.146	
128.00	-39.324	-17.540	
129.00	-38.164	-10.717	
130.00	-37.368	4.185	
131.00	-36.959	24.791	
132.00	-36.812	36.654	
133.00	-36.856	48.715	
134.00	-36.921	67.785	
135.00	-37.333	86.863	
136.00	-38.190	99.817	
137.00	-39.780	113.639	
138.00	-42.426	137.455	
139.00	-46.336	158.506	
140.00	-50.419	-148.327	
141.00	-47.673	-78.094	
142.00	-43.699	-44.843	
143.00	-40.793	-26.123	
144.00	-38.434	-3.022	
145.00	-36.736	13.272	
146.00	-35.622	20.531	
147.00	-34.924	35.390	
148.00	-34.837	51.524	
149.00	-35.091	60.202	
150.00	-35.891	64.836	
151.00	-37.043	74.268	
152.00	-39.040	81.129	
153.00	-41.591	71.114	
154.00	-43.945	42.176	
155.00	-42.324	10.582	
156.00	-38.945	-4.500	
157.00	-36.657	-12.931	
158.00	-34.978	-8.559	
159.00	-34.091	-6.592	
160.00	-33.813	-9.022	
161.00	-33.993	-4.358	
162.00	-34.766	-4.917	
163.00	-36.183	-9.769	
164.00	-37.882	-13.127	
165.00	-39.929	-24.650	
166.00	-41.400	-37.857	
167.00	-41.893	-45.324	
168.00	-41.964	-46.504	
169.00	-42.051	-33.470	
170.00	-41.642	-7.454	
171.00	-38.581	19.139	
172.00	-34.506	38.273	
173.00	-30.887	44.009	
174.00	-28.073	44.424	
175.00	-25.899	53.351	
176.00	-24.171	54.866	
177.00	-22.820	52.784	
178.00	-21.748	61.219	
179.00	-20.974	61.516	
180.00	-20.537	56.380	
181.00	-20.330	61.258	
182.00	-20.351	60.930	
183.00	-20.615	57.449	
184.00	-21.145	60.491	
185.00	-21.955	59.382	
186.00	-23.084	57.292	
187.00	-24.543	58.171	
188.00	-26.465	57.067	
189.00	-28.836	58.008	
190.00	-31.993	59.596	
191.00	-35.954	61.603	
192.00	-41.127	82.767	
193.00	-44.480	129.982	
194.00	-42.663	158.387	
195.00	-41.774	172.300	
196.00	-41.829	172.458	
197.00	-43.420	157.316	
198.00	-45.907	134.296	
199.00	-46.485	94.379	
200.00	-43.990	57.776	
201.00	-41.595	33.204	
202.00	-39.907	18.642	
203.00	-38.560	11.012	
204.00	-38.243	1.585	
205.00	-38.469	-12.435	
206.00	-39.317	-19.117	
207.00	-40.610	-26.604	
208.00	-42.587	-47.158	
209.00	-44.410	-66.425	
210.00	-47.050	-81.912	
211.00	-50.474	-112.050	
212.00	-53.288	-151.003	
213.00	-54.293	155.139	
214.00	-51.846	110.344	
215.00	-49.735	85.537	
216.00	-48.785	61.015	
217.00	-48.742	35.844	
218.00	-46.813	5.224	
219.00	-44.071	-19.037	
220.00	-42.494	-28.320	
221.00	-40.445	-38.864	
222.00	-39.897	-48.031	
223.00	-39.497	-52.552	
224.00	-40.006	-57.294	
225.00	-41.091	-65.735	
226.00	-42.426	-71.526	
227.00	-44.349	-73.819	
228.00	-47.506	-80.511	
229.00	-52.025	-72.672	
230.00	-57.643	-34.638	
231.00	-54.335	17.385	
232.00	-50.030	28.618	
233.00	-48.084	28.685	
234.00	-46.808	21.905	
235.00	-47.110	7.986	
236.00	-47.306	-13.037	
237.00	-47.040	-34.883	
238.00	-45.071	-62.084	
239.00	-43.047	-80.741	
240.00	-41.106	-92.611	
241.00	-39.591	-100.876	
242.00	-38.503	-109.501	
243.00	-37.840	-113.702	
244.00	-37.537	-114.527	
245.00	-37.550	-122.203	
246.00	-38.077	-128.547	
247.00	-38.600	-124.999	
248.00	-39.631	-129.100	
249.00	-40.879	-133.272	
250.00	-42.126	-127.659	
251.00	-43.838	-121.669	
252.00	-45.136	-122.762	
253.00	-46.056	-110.652	
254.00	-45.866	-98.263	
255.00	-45.092	-99.152	
256.00	-44.587	-100.907	
257.00	-43.770	-100.453	
258.00	-43.290	-109.766	
259.00	-42.956	-118.355	
260.00	-42.404	-123.940	
261.00	-41.984	-136.185	
262.00	-41.664	-148.419	
263.00	-41.365	-158.008	
264.00	-41.108	-168.448	
265.00	-40.745	175.007	
266.00	-40.435	166.646	
267.00	-40.363	156.749	
268.00	-40.130	138.679	
269.00	-39.905	126.490	
270.00	-39.914	116.932	
271.00	-39.949	103.979	
272.00	-40.285	90.195	
273.00	-40.751	76.118	
274.00	-41.189	62.465	
275.00	-41.987	46.980	
276.00	-42.948	31.987	
277.00	-43.606	17.571	
278.00	-44.495	1.100	
279.00	-45.152	-19.594	
280.00	-45.780	-41.604	
281.00	-46.391	-56.288	
282.00	-46.780	-71.742	
283.00	-47.395	-94.277	
284.00	-48.803	-107.786	
285.00	-51.077	-123.299	
286.00	-54.628	-133.321	
287.00	-63.326	-137.937	
288.00	-62.126	17.058	
289.00	-52.343	10.091	
290.00	-48.005	2.906	
291.00	-45.225	-6.295	
292.00	-43.120	-16.007	
293.00	-41.624	-25.245	
294.00	-40.485	-31.413	
295.00	-39.719	-43.030	
296.00	-39.244	-53.849	
297.00	-39.150	-56.886	
298.00	-39.147	-65.336	
299.00	-39.573	-75.928	
300.00	-40.332	-81.576	
301.00	-41.442	-91.064	
302.00	-43.309	-103.629	
303.00	-45.612	-112.283	
304.00	-48.835	-128.223	
305.00	-54.716	-159.302	
306.00	-57.698	125.848	
307.00	-52.915	78.900	
308.00	-50.748	57.551	
309.00	-49.593	38.724	
310.00	-50.192	24.222	
311.00	-52.179	7.244	
312.00	-55.319	-31.396	
313.00	-54.549	-85.733	
314.00	-50.349	-118.090	
315.00	-46.671	-132.861	
316.00	-43.872	-142.576	
317.00	-41.734	-146.878	
318.00	-40.066	-148.533	
319.00	-38.837	-150.881	
320.00	-38.199	-153.852	
321.00	-37.645	-158.907	
322.00	-37.863	-158.062	
323.00	-38.458	-155.903	
324.00	-39.286	-153.908	
325.00	-40.119	-146.387	
326.00	-40.564	-136.818	
327.00	-40.907	-130.350	
328.00	-41.163	-123.083	
329.00	-41.778	-116.615	
330.00	-42.183	-114.884	
331.00	-43.319	-113.236	
332.00	-44.473	-112.611	
333.00	-46.744	-118.420	
334.00	-49.730	-130.898	
335.00	-52.723	-164.762	
336.00	-52.115	162.659	
337.00	-49.840	142.815	
338.00	-48.031	136.201	
339.00	-50.472	139.862	
340.00	-47.585	149.579	
341.00	-46.235	156.261	
342.00	-45.110	169.275	
343.00	-44.231	175.874	
344.00	-43.440	-178.498	
345.00	-42.854	-171.537	
346.00	-43.444	-172.042	
347.00	-45.302	-174.489	
348.00	-50.301	164.819	
349.00	-49.859	79.727	
350.00	-41.870	52.318	
351.00	-36.530	46.625	
352.00	-32.546	36.991	
353.00	-29.356	38.284	
354.00	-27.027	40.330	
355.00	-25.118	31.110	
356.00	-23.621	31.213	
357.00	-22.495	37.113	
358.00	-21.689	34.082	
359.00	-21.232	33.410	
Frequency	2500.00	MHz	
Channel	test		
Scan Axis name	Azimuth  [deg]		
Scan Axis	Amplitude	Phase	
			
0.00	-20.421	55.182	
1.00	-20.621	59.080	
2.00	-21.149	58.854	
3.00	-21.999	53.264	
4.00	-23.210	53.033	
5.00	-24.880	57.636	
6.00	-27.082	54.040	
7.00	-30.031	49.008	
8.00	-34.386	54.543	
9.00	-41.870	60.565	
10.00	-57.862	-161.121	
11.00	-42.139	-135.994	
12.00	-38.464	-131.900	
13.00	-37.176	-133.762	
14.00	-37.347	-132.276	
15.00	-38.575	-122.814	
16.00	-41.264	-113.662	
17.00	-45.166	-86.755	
18.00	-45.821	-30.597	
19.00	-42.108	0.010	
20.00	-39.122	11.520	
21.00	-37.621	18.599	
22.00	-36.970	19.760	
23.00	-36.865	20.088	
24.00	-37.367	22.001	
25.00	-38.454	24.564	
26.00	-40.046	26.554	
27.00	-42.662	29.614	
28.00	-45.970	31.158	
29.00	-50.662	41.771	
30.00	-54.460	78.371	
31.00	-51.625	120.861	
32.00	-48.045	130.687	
33.00	-44.757	134.155	
34.00	-42.865	133.049	
35.00	-41.505	131.296	
36.00	-40.528	128.497	
37.00	-39.684	125.712	
38.00	-39.109	125.422	
39.00	-38.704	120.847	
40.00	-38.677	119.506	
41.00	-39.068	122.474	
42.00	-39.805	120.159	
43.00	-41.098	117.350	
44.00	-42.598	112.650	
45.00	-44.217	103.446	
46.00	-45.943	91.164	
47.00	-47.744	77.551	
48.00	-48.891	58.483	
49.00	-49.071	33.376	
50.00	-47.426	12.603	
51.00	-45.210	3.287	
52.00	-43.409	-0.133	
53.00	-42.049	-0.899	
54.00	-41.319	3.832	
55.00	-40.839	9.263	
56.00	-40.741	12.052	
57.00	-40.719	16.082	
58.00	-40.657	19.714	
59.00	-40.452	21.453	
60.00	-40.097	25.477	
61.00	-39.662	30.230	
62.00	-39.378	36.462	
63.00	-39.095	42.728	
64.00	-39.031	52.601	
65.00	-39.054	63.687	
66.00	-39.567	72.622	
67.00	-40.220	79.480	
68.00	-41.205	90.301	
69.00	-42.185	97.031	
70.00	-43.991	99.675	
71.00	-45.206	103.789	
72.00	-46.681	101.608	
73.00	-48.599	98.156	
74.00	-48.959	88.663	
75.00	-48.096	93.124	
76.00	-47.168	89.277	
77.00	-46.207	100.152	
78.00	-45.363	108.795	
79.00	-44.674	121.784	
80.00	-43.297	132.630	
81.00	-43.478	142.591	
82.00	-42.412	157.433	
83.00	-41.922	169.982	
84.00	-41.754	179.498	
85.00	-41.166	-168.563	
86.00	-41.348	-158.046	
87.00	-41.276	-149.181	
88.00	-41.701	-138.440	
89.00	-42.471	-126.734	
90.00	-42.964	-118.733	
91.00	-44.618	-108.410	
92.00	-46.132	-95.769	
93.00	-48.684	-84.382	
94.00	-53.498	-55.592	
95.00	-57.424	3.160	
96.00	-55.615	52.055	
97.00	-48.925	74.602	
98.00	-46.023	94.097	
99.00	-43.979	106.476	
100.00	-42.493	120.583	
101.00	-42.332	129.038	
102.00	-41.147	139.243	
103.00	-41.095	149.715	
104.00	-40.954	163.811	
105.00	-41.152	-179.741	
106.00	-41.240	-168.116	
107.00	-41.020	-151.038	
108.00	-41.144	-127.663	
109.00	-40.853	-115.073	
110.00	-40.558	-94.889	
111.00	-39.578	-78.620	
112.00	-38.830	-66.439	
113.00	-38.656	-51.901	
114.00	-38.467	-37.718	
115.00	-38.257	-29.275	
116.00	-38.976	-14.371	
117.00	-39.653	-0.399	
118.00	-40.553	10.357	
119.00	-41.819	27.975	
120.00	-43.200	44.636	
121.00	-44.767	59.983	
122.00	-47.178	76.295	
123.00	-51.248	97.784	
124.00	-57.129	115.490	
125.00	-73.512	-96.882	
126.00	-53.547	-58.163	
127.00	-47.138	-38.832	
128.00	-44.325	-23.562	
129.00	-42.526	-17.003	
130.00	-41.147	-0.645	
131.00	-39.935	20.361	
132.00	-39.162	31.057	
133.00	-38.671	41.412	
134.00	-38.301	57.839	
135.00	-38.357	74.273	
136.00	-39.102	86.119	
137.00	-40.443	100.553	
138.00	-42.342	122.902	
139.00	-44.873	142.674	
140.00	-46.990	171.082	
141.00	-49.187	-142.097	
142.00	-49.618	-100.530	
143.00	-47.761	-61.873	
144.00	-44.692	-24.692	
145.00	-42.442	-1.712	
146.00	-40.819	9.847	
147.00	-39.617	29.713	
148.00	-38.492	50.235	
149.00	-37.957	62.436	
150.00	-37.886	70.312	
151.00	-38.242	83.147	
152.00	-39.525	95.929	
153.00	-41.771	99.820	
154.00	-46.119	100.363	
155.00	-55.316	82.892	
156.00	-51.800	-10.502	
157.00	-44.884	-26.409	
158.00	-40.823	-20.859	
159.00	-38.381	-19.287	
160.00	-36.955	-21.916	
161.00	-36.441	-18.311	
162.00	-36.667	-20.748	
163.00	-37.507	-28.174	
164.00	-38.384	-32.368	
165.00	-39.263	-45.025	
166.00	-39.564	-60.083	
167.00	-39.707	-74.096	
168.00	-39.917	-88.035	
169.00	-41.072	-98.426	
170.00	-44.148	-117.347	
171.00	-47.605	-175.135	
172.00	-41.165	133.341	
173.00	-35.371	115.743	
174.00	-31.310	106.795	
175.00	-28.194	110.850	
176.00	-25.816	108.073	
177.00	-24.038	103.456	
178.00	-22.659	110.895	
179.00	-21.724	109.759	
180.00	-21.112	104.164	
181.00	-20.768	109.500	
182.00	-20.736	109.107	
183.00	-21.001	106.344	
184.00	-21.587	109.783	
185.00	-22.544	108.723	
186.00	-23.861	107.565	
187.00	-25.629	109.969	
188.00	-27.908	111.199	
189.00	-30.758	117.105	
190.00	-34.353	124.878	
191.00	-38.488	137.990	
192.00	-41.510	172.328	
193.00	-41.849	-155.749	
194.00	-41.569	-145.192	
195.00	-42.770	-135.558	
196.00	-47.082	-132.596	
197.00	-58.393	-168.093	
198.00	-48.974	59.872	
199.00	-42.088	52.738	
200.00	-38.712	49.281	
201.00	-36.760	46.948	
202.00	-35.789	43.741	
203.00	-35.205	43.632	
204.00	-35.428	40.822	
205.00	-36.372	35.383	
206.00	-37.670	36.235	
207.00	-39.650	36.912	
208.00	-43.021	34.183	
209.00	-46.322	35.301	
210.00	-48.479	45.164	
211.00	-49.906	54.186	
212.00	-50.126	60.103	
213.00	-49.371	59.412	
214.00	-48.453	55.985	
215.00	-48.199	51.161	
216.00	-48.225	34.478	
217.00	-48.113	12.168	
218.00	-46.284	-15.732	
219.00	-43.949	-35.292	
220.00	-42.027	-46.501	
221.00	-40.695	-58.892	
222.00	-40.018	-69.886	
223.00	-39.954	-78.298	
224.00	-40.400	-85.481	
225.00	-41.310	-99.395	
226.00	-43.161	-110.865	
227.00	-45.842	-125.446	
228.00	-48.994	-159.702	
229.00	-50.850	147.104	
230.00	-47.168	106.458	
231.00	-43.885	80.184	
232.00	-41.769	66.798	
233.00	-40.663	57.108	
234.00	-40.379	45.069	
235.00	-40.748	29.274	
236.00	-41.160	12.575	
237.00	-41.652	-8.256	
238.00	-41.359	-32.184	
239.00	-40.514	-56.280	
240.00	-39.369	-73.042	
241.00	-38.214	-85.690	
242.00	-37.559	-99.879	
243.00	-37.161	-108.290	
244.00	-37.152	-112.212	
245.00	-37.619	-124.032	
246.00	-38.554	-133.886	
247.00	-39.573	-135.064	
248.00	-41.346	-146.336	
249.00	-43.728	-159.729	
250.00	-46.669	-164.244	
251.00	-50.447	-179.936	
252.00	-57.779	150.793	
253.00	-61.423	76.887	
254.00	-57.039	26.172	
255.00	-53.427	-4.909	
256.00	-51.976	-24.925	
257.00	-50.764	-41.903	
258.00	-50.243	-67.123	
259.00	-49.644	-90.158	
260.00	-47.925	-113.137	
261.00	-46.590	-135.586	
262.00	-44.824	-154.008	
263.00	-43.366	-168.047	
264.00	-41.956	177.809	
265.00	-40.483	164.030	
266.00	-39.453	155.022	
267.00	-38.431	145.934	
268.00	-37.598	129.903	
269.00	-36.877	117.935	
270.00	-36.382	110.048	
271.00	-35.998	98.866	
272.00	-35.786	87.015	
273.00	-35.681	76.092	
274.00	-35.826	64.647	
275.00	-36.045	52.120	
276.00	-36.226	40.416	
277.00	-36.609	29.588	
278.00	-36.942	19.957	
279.00	-37.511	5.395	
280.00	-38.096	-9.291	
281.00	-38.600	-16.679	
282.00	-39.254	-27.256	
283.00	-40.138	-41.335	
284.00	-40.843	-47.444	
285.00	-42.086	-49.707	
286.00	-43.080	-52.454	
287.00	-43.735	-49.399	
288.00	-43.728	-41.554	
289.00	-43.042	-37.014	
290.00	-41.975	-32.902	
291.00	-40.643	-30.323	
292.00	-39.437	-33.876	
293.00	-38.436	-36.257	
294.00	-37.638	-38.234	
295.00	-36.841	-46.555	
296.00	-36.432	-55.742	
297.00	-36.314	-55.878	
298.00	-36.436	-63.788	
299.00	-36.748	-74.073	
300.00	-37.596	-81.010	
301.00	-39.034	-93.405	
302.00	-41.163	-105.789	
303.00	-44.778	-119.970	
304.00	-49.908	-149.211	
305.00	-53.886	138.292	
306.00	-49.294	79.741	
307.00	-46.179	57.743	
308.00	-44.940	42.548	
309.00	-45.056	28.708	
310.00	-46.854	18.324	
311.00	-50.500	4.581	
312.00	-59.285	-39.592	
313.00	-53.904	-143.589	
314.00	-46.791	-159.650	
315.00	-42.516	-166.069	
316.00	-39.697	-172.309	
317.00	-37.556	-175.794	
318.00	-36.141	-177.276	
319.00	-35.211	178.986	
320.00	-34.711	176.253	
321.00	-34.682	170.561	
322.00	-35.084	170.792	
323.00	-35.846	173.118	
324.00	-36.619	174.081	
325.00	-37.167	179.282	
326.00	-37.757	-175.721	
327.00	-38.327	-173.242	
328.00	-38.892	-170.296	
329.00	-39.759	-170.518	
330.00	-40.636	-176.025	
331.00	-41.151	177.301	
332.00	-41.408	162.205	
333.00	-40.719	144.494	
334.00	-39.329	126.375	
335.00	-37.830	115.010	
336.00	-36.867	110.285	
337.00	-36.298	102.980	
338.00	-36.165	100.905	
339.00	-36.907	103.559	
340.00	-37.610	102.290	
341.00	-38.995	104.527	
342.00	-40.635	117.887	
343.00	-43.166	130.037	
344.00	-44.776	154.026	
345.00	-44.665	-177.044	
346.00	-43.737	-167.741	
347.00	-44.322	-164.063	
348.00	-46.300	-174.152	
349.00	-48.170	135.384	
350.00	-42.586	90.901	
351.00	-36.702	78.004	
352.00	-32.452	65.774	
353.00	-29.082	66.242	
354.00	-26.530	67.364	
355.00	-24.560	57.841	
356.00	-23.022	58.321	
357.00	-21.944	64.427	
358.00	-21.148	61.582	
359.00	-20.794	61.038	
Frequency	2550.00	MHz	
Channel	test		
Scan Axis name	Azimuth  [deg]		
Scan Axis	Amplitude	Phase	
			
0.00	-20.795	83.264	
1.00	-20.929	88.497	
2.00	-21.395	89.256	
3.00	-22.236	85.196	
4.00	-23.449	86.861	
5.00	-25.145	93.377	
6.00	-27.348	91.910	
7.00	-30.093	89.965	
8.00	-33.812	100.235	
9.00	-38.869	112.709	
10.00	-46.289	140.548	
11.00	-47.491	-143.900	
12.00	-43.527	-110.473	
13.00	-42.343	-102.452	
14.00	-42.866	-93.361	
15.00	-44.266	-76.269	
16.00	-45.982	-56.891	
17.00	-45.286	-28.234	
18.00	-42.981	-4.958	
19.00	-40.584	6.183	
20.00	-38.793	12.905	
21.00	-37.879	18.371	
22.00	-37.527	19.282	
23.00	-37.737	17.993	
24.00	-38.220	16.136	
25.00	-39.000	14.014	
26.00	-40.024	12.591	
27.00	-41.726	10.385	
28.00	-43.814	2.357	
29.00	-46.186	-6.864	
30.00	-47.863	-12.076	
31.00	-49.794	-12.295	
32.00	-51.945	0.000	
33.00	-54.109	28.969	
34.00	-52.922	69.758	
35.00	-49.734	92.879	
36.00	-47.831	101.914	
37.00	-46.491	107.240	
38.00	-45.313	110.354	
39.00	-44.405	108.555	
40.00	-43.830	110.397	
41.00	-43.587	116.220	
42.00	-43.983	118.914	
43.00	-44.942	122.267	
44.00	-46.460	124.740	
45.00	-48.175	122.531	
46.00	-50.230	117.365	
47.00	-51.738	109.822	
48.00	-53.302	104.502	
49.00	-55.853	93.141	
50.00	-58.812	60.226	
51.00	-55.363	18.077	
52.00	-50.595	3.106	
53.00	-47.315	3.071	
54.00	-44.953	11.564	
55.00	-43.342	20.879	
56.00	-42.336	28.155	
57.00	-41.897	36.013	
58.00	-41.643	42.969	
59.00	-41.725	45.914	
60.00	-41.752	49.979	
61.00	-41.666	51.850	
62.00	-41.501	54.480	
63.00	-41.228	56.804	
64.00	-40.987	63.531	
65.00	-40.879	72.193	
66.00	-40.920	77.879	
67.00	-41.166	85.857	
68.00	-41.552	97.522	
69.00	-42.168	104.731	
70.00	-43.091	111.079	
71.00	-43.952	121.120	
72.00	-45.318	127.109	
73.00	-46.180	132.668	
74.00	-46.737	139.551	
75.00	-47.098	141.230	
76.00	-47.001	142.380	
77.00	-46.844	146.576	
78.00	-45.904	149.313	
79.00	-44.977	156.038	
80.00	-43.973	162.891	
81.00	-43.299	169.426	
82.00	-42.483	179.251	
83.00	-42.066	-171.856	
84.00	-41.653	-164.339	
85.00	-41.450	-154.337	
86.00	-41.531	-145.387	
87.00	-41.879	-140.072	
88.00	-42.509	-129.102	
89.00	-43.314	-118.720	
90.00	-44.672	-110.985	
91.00	-46.434	-100.243	
92.00	-49.208	-89.574	
93.00	-53.759	-73.001	
94.00	-61.955	-32.665	
95.00	-57.465	74.079	
96.00	-51.381	97.777	
97.00	-47.624	111.812	
98.00	-45.071	125.459	
99.00	-43.216	135.432	
100.00	-41.882	145.942	
101.00	-40.736	159.395	
102.00	-40.131	169.784	
103.00	-39.460	-176.835	
104.00	-38.863	-159.856	
105.00	-38.517	-145.980	
106.00	-38.259	-133.314	
107.00	-37.744	-117.311	
108.00	-37.219	-102.241	
109.00	-36.796	-89.422	
110.00	-36.183	-76.267	
111.00	-35.930	-62.462	
112.00	-35.750	-52.320	
113.00	-35.812	-39.109	
114.00	-36.071	-25.483	
115.00	-36.459	-15.978	
116.00	-37.208	0.341	
117.00	-37.954	17.706	
118.00	-38.562	30.463	
119.00	-39.260	50.763	
120.00	-39.940	69.082	
121.00	-40.514	79.716	
122.00	-41.336	95.415	
123.00	-42.695	111.528	
124.00	-44.416	125.235	
125.00	-47.464	137.296	
126.00	-51.732	153.897	
127.00	-57.795	-151.264	
128.00	-57.992	-66.350	
129.00	-53.955	-23.373	
130.00	-50.250	6.912	
131.00	-47.831	38.583	
132.00	-45.705	49.629	
133.00	-44.491	59.527	
134.00	-44.019	77.076	
135.00	-44.226	95.654	
136.00	-45.065	108.361	
137.00	-46.320	131.959	
138.00	-46.711	165.596	
139.00	-46.572	-174.592	
140.00	-46.274	-158.016	
141.00	-46.561	-134.266	
142.00	-48.265	-118.112	
143.00	-50.899	-98.419	
144.00	-54.096	-59.461	
145.00	-55.537	0.396	
146.00	-52.425	46.034	
147.00	-48.121	82.154	
148.00	-44.942	104.641	
149.00	-42.445	114.727	
150.00	-40.935	119.860	
151.00	-40.359	131.920	
152.00	-40.324	145.943	
153.00	-40.738	152.513	
154.00	-41.724	157.970	
155.00	-43.535	171.431	
156.00	-47.030	174.489	
157.00	-53.824	-175.312	
158.00	-60.832	-57.048	
159.00	-50.633	-22.549	
160.00	-46.614	-25.210	
161.00	-45.320	-21.213	
162.00	-44.583	-24.744	
163.00	-43.736	-33.455	
164.00	-43.011	-39.066	
165.00	-41.977	-51.537	
166.00	-40.717	-64.081	
167.00	-39.771	-76.266	
168.00	-38.996	-89.625	
169.00	-38.499	-101.763	
170.00	-38.058	-120.155	
171.00	-37.058	-141.576	
172.00	-35.171	-158.114	
173.00	-32.629	-175.580	
174.00	-30.060	171.622	
175.00	-27.672	171.906	
176.00	-25.705	164.961	
177.00	-24.138	158.276	
178.00	-22.858	163.478	
179.00	-21.940	160.359	
180.00	-21.269	153.907	
181.00	-20.865	158.581	
182.00	-20.793	157.122	
183.00	-21.064	153.738	
184.00	-21.608	156.722	
185.00	-22.539	155.031	
186.00	-23.751	153.628	
187.00	-25.307	155.317	
188.00	-27.399	155.815	
189.00	-30.037	161.106	
190.00	-33.499	168.343	
191.00	-37.449	179.764	
192.00	-40.654	-148.212	
193.00	-41.628	-116.068	
194.00	-41.920	-100.688	
195.00	-42.786	-82.413	
196.00	-45.343	-65.929	
197.00	-51.124	-29.257	
198.00	-49.147	47.737	
199.00	-43.404	71.849	
200.00	-39.852	78.601	
201.00	-37.874	79.391	
202.00	-36.876	78.657	
203.00	-36.678	79.796	
204.00	-36.853	77.736	
205.00	-37.457	71.124	
206.00	-38.788	71.977	
207.00	-40.853	72.420	
208.00	-43.900	63.125	
209.00	-48.469	53.042	
210.00	-54.112	30.656	
211.00	-57.377	-10.179	
212.00	-57.287	-38.613	
213.00	-56.772	-34.296	
214.00	-54.998	-9.763	
215.00	-52.862	5.634	
216.00	-50.294	10.392	
217.00	-48.571	11.257	
218.00	-47.251	4.010	
219.00	-46.078	-3.520	
220.00	-45.335	-13.599	
221.00	-45.317	-25.027	
222.00	-45.804	-39.548	
223.00	-46.184	-52.842	
224.00	-47.533	-67.615	
225.00	-49.364	-89.595	
226.00	-51.736	-115.626	
227.00	-53.367	-159.050	
228.00	-51.689	144.003	
229.00	-48.225	111.147	
230.00	-44.784	95.191	
231.00	-42.608	77.733	
232.00	-41.217	67.919	
233.00	-40.443	61.223	
234.00	-40.224	52.079	
235.00	-40.401	40.760	
236.00	-41.385	26.638	
237.00	-42.491	12.309	
238.00	-43.443	-11.641	
239.00	-43.482	-39.305	
240.00	-42.749	-62.338	
241.00	-41.616	-80.949	
242.00	-40.523	-98.264	
243.00	-39.909	-109.443	
244.00	-39.728	-115.914	
245.00	-39.953	-130.603	
246.00	-40.411	-141.691	
247.00	-41.541	-148.934	
248.00	-42.624	-161.676	
249.00	-44.226	-178.200	
250.00	-45.265	168.839	
251.00	-46.968	148.770	
252.00	-47.741	121.789	
253.00	-47.782	102.107	
254.00	-47.346	88.329	
255.00	-47.840	66.041	
256.00	-47.863	53.336	
257.00	-48.371	41.440	
258.00	-49.271	32.037	
259.00	-49.856	28.338	
260.00	-52.054	28.119	
261.00	-54.700	29.437	
262.00	-57.647	53.338	
263.00	-55.985	86.466	
264.00	-52.495	104.828	
265.00	-49.006	105.766	
266.00	-46.536	104.769	
267.00	-44.610	103.183	
268.00	-42.450	92.489	
269.00	-41.088	85.602	
270.00	-39.997	82.195	
271.00	-38.829	73.828	
272.00	-37.915	65.027	
273.00	-37.136	56.752	
274.00	-36.627	48.293	
275.00	-36.360	39.179	
276.00	-36.075	30.272	
277.00	-35.963	23.098	
278.00	-35.924	16.737	
279.00	-36.055	6.635	
280.00	-36.257	-2.792	
281.00	-36.424	-6.782	
282.00	-36.643	-12.723	
283.00	-37.059	-22.999	
284.00	-37.422	-26.570	
285.00	-37.862	-28.743	
286.00	-38.031	-31.603	
287.00	-38.243	-32.488	
288.00	-38.078	-31.977	
289.00	-37.877	-33.759	
290.00	-37.456	-35.290	
291.00	-36.997	-34.893	
292.00	-36.645	-38.286	
293.00	-36.147	-40.918	
294.00	-35.744	-41.542	
295.00	-35.476	-48.951	
296.00	-35.384	-57.261	
297.00	-35.372	-57.548	
298.00	-35.816	-64.893	
299.00	-36.661	-76.221	
300.00	-37.908	-82.463	
301.00	-39.962	-95.659	
302.00	-43.073	-111.857	
303.00	-48.208	-134.491	
304.00	-53.119	155.645	
305.00	-47.707	92.821	
306.00	-43.967	73.434	
307.00	-42.140	62.570	
308.00	-41.475	52.651	
309.00	-41.692	47.014	
310.00	-42.719	45.880	
311.00	-44.430	49.996	
312.00	-46.964	57.821	
313.00	-50.091	82.998	
314.00	-50.757	128.754	
315.00	-46.714	162.178	
316.00	-42.895	169.893	
317.00	-40.018	172.355	
318.00	-38.135	172.351	
319.00	-37.038	169.834	
320.00	-36.450	166.850	
321.00	-36.416	161.143	
322.00	-36.645	160.561	
323.00	-37.193	159.581	
324.00	-38.004	156.147	
325.00	-39.256	152.966	
326.00	-40.847	148.020	
327.00	-42.682	139.983	
328.00	-44.755	131.581	
329.00	-46.166	120.973	
330.00	-46.399	110.553	
331.00	-45.163	105.526	
332.00	-43.418	102.489	
333.00	-41.613	99.538	
334.00	-40.050	98.339	
335.00	-38.792	99.168	
336.00	-37.552	105.215	
337.00	-36.548	105.697	
338.00	-35.571	107.871	
339.00	-35.570	112.208	
340.00	-35.574	108.188	
341.00	-36.214	105.078	
342.00	-37.457	108.398	
343.00	-39.687	101.644	
344.00	-43.108	93.895	
345.00	-48.927	81.134	
346.00	-53.757	6.605	
347.00	-48.299	-32.631	
348.00	-46.456	-34.900	
349.00	-47.553	-20.251	
350.00	-46.396	38.066	
351.00	-39.943	71.452	
352.00	-34.895	74.783	
353.00	-30.984	83.289	
354.00	-28.051	87.732	
355.00	-25.672	80.415	
356.00	-23.898	82.805	
357.00	-22.566	90.009	
358.00	-21.626	87.786	
359.00	-21.174	88.138	
Frequency	2600.00	MHz	
Channel	test		
Scan Axis name	Azimuth  [deg]		
Scan Axis	Amplitude	Phase	
			
0.00	-22.230	120.351	
1.00	-22.238	125.630	
2.00	-22.601	126.333	
3.00	-23.298	122.134	
4.00	-24.348	124.425	
5.00	-25.839	131.705	
6.00	-27.865	131.470	
7.00	-30.482	131.286	
8.00	-34.122	143.843	
9.00	-38.620	157.704	
10.00	-44.069	-177.428	
11.00	-45.517	-124.600	
12.00	-43.840	-91.471	
13.00	-43.050	-79.536	
14.00	-43.293	-70.612	
15.00	-44.612	-54.563	
16.00	-46.822	-43.451	
17.00	-49.177	-27.094	
18.00	-50.956	-6.204	
19.00	-50.252	4.607	
20.00	-48.684	11.185	
21.00	-47.110	15.637	
22.00	-46.274	11.912	
23.00	-45.551	9.522	
24.00	-45.223	6.363	
25.00	-44.765	3.525	
26.00	-44.378	0.362	
27.00	-44.562	-0.864	
28.00	-44.766	-4.317	
29.00	-45.670	-10.134	
30.00	-46.449	-16.011	
31.00	-46.493	-23.516	
32.00	-45.789	-29.524	
33.00	-45.967	-29.563	
34.00	-46.863	-26.168	
35.00	-48.228	-26.601	
36.00	-50.588	-30.230	
37.00	-52.783	-36.294	
38.00	-55.941	-42.732	
39.00	-59.379	-54.855	
40.00	-67.581	-69.291	
41.00	-63.888	149.485	
42.00	-55.371	142.702	
43.00	-51.695	143.530	
44.00	-50.018	144.455	
45.00	-49.962	141.203	
46.00	-50.343	131.625	
47.00	-49.843	118.964	
48.00	-48.754	107.227	
49.00	-47.608	99.015	
50.00	-47.100	93.969	
51.00	-47.122	87.950	
52.00	-46.835	76.406	
53.00	-45.953	61.658	
54.00	-44.271	54.389	
55.00	-42.779	52.373	
56.00	-41.438	51.335	
57.00	-40.710	55.170	
58.00	-40.305	60.052	
59.00	-40.250	62.545	
60.00	-40.347	66.474	
61.00	-40.740	69.381	
62.00	-40.955	71.659	
63.00	-41.227	73.583	
64.00	-41.298	76.837	
65.00	-41.355	84.239	
66.00	-41.371	87.789	
67.00	-41.380	92.015	
68.00	-41.415	102.178	
69.00	-41.601	107.607	
70.00	-41.996	112.456	
71.00	-42.344	121.450	
72.00	-42.827	127.127	
73.00	-43.397	132.578	
74.00	-43.990	140.114	
75.00	-44.550	145.397	
76.00	-44.900	147.927	
77.00	-45.128	154.332	
78.00	-45.163	158.585	
79.00	-45.037	164.374	
80.00	-44.769	170.782	
81.00	-44.528	175.698	
82.00	-44.189	-174.784	
83.00	-43.714	-168.579	
84.00	-43.496	-163.122	
85.00	-43.530	-154.393	
86.00	-43.681	-148.484	
87.00	-43.917	-144.079	
88.00	-44.744	-136.423	
89.00	-45.602	-129.306	
90.00	-46.894	-125.987	
91.00	-49.228	-121.457	
92.00	-52.972	-118.362	
93.00	-58.413	-127.513	
94.00	-63.170	160.096	
95.00	-55.187	120.923	
96.00	-50.941	118.225	
97.00	-47.819	121.816	
98.00	-45.742	129.895	
99.00	-44.330	136.132	
100.00	-43.233	145.469	
101.00	-42.635	156.695	
102.00	-42.245	166.942	
103.00	-42.013	-179.742	
104.00	-41.667	-162.473	
105.00	-41.598	-146.696	
106.00	-41.311	-132.128	
107.00	-40.814	-113.977	
108.00	-40.345	-96.009	
109.00	-39.730	-82.489	
110.00	-39.041	-66.658	
111.00	-38.598	-50.397	
112.00	-38.267	-37.392	
113.00	-37.939	-20.714	
114.00	-37.658	-2.989	
115.00	-37.375	9.785	
116.00	-37.001	28.507	
117.00	-36.572	45.104	
118.00	-36.163	55.491	
119.00	-35.864	71.376	
120.00	-35.761	83.324	
121.00	-35.853	90.292	
122.00	-36.254	100.152	
123.00	-36.964	110.526	
124.00	-37.881	118.794	
125.00	-39.039	123.805	
126.00	-40.363	127.810	
127.00	-41.859	135.960	
128.00	-43.025	133.757	
129.00	-43.487	120.416	
130.00	-43.276	113.401	
131.00	-42.421	112.069	
132.00	-41.716	104.253	
133.00	-41.233	102.312	
134.00	-41.413	109.720	
135.00	-41.961	119.540	
136.00	-42.791	125.321	
137.00	-43.812	137.926	
138.00	-44.874	151.604	
139.00	-46.548	155.840	
140.00	-49.231	154.761	
141.00	-52.928	140.000	
142.00	-53.804	93.610	
143.00	-50.035	70.255	
144.00	-47.134	77.070	
145.00	-45.432	84.256	
146.00	-43.997	90.874	
147.00	-42.485	105.210	
148.00	-41.738	119.856	
149.00	-41.436	125.336	
150.00	-41.345	127.684	
151.00	-42.182	138.161	
152.00	-43.553	148.966	
153.00	-45.288	151.411	
154.00	-47.131	150.774	
155.00	-49.187	142.852	
156.00	-49.939	113.387	
157.00	-49.391	90.624	
158.00	-47.821	86.408	
159.00	-47.511	77.524	
160.00	-47.739	68.037	
161.00	-48.491	68.061	
162.00	-48.916	53.816	
163.00	-48.436	31.985	
164.00	-47.177	12.633	
165.00	-44.904	-6.636	
166.00	-42.927	-12.596	
167.00	-41.848	-18.601	
168.00	-41.578	-24.459	
169.00	-41.967	-35.858	
170.00	-42.405	-63.045	
171.00	-40.475	-98.851	
172.00	-36.810	-121.199	
173.00	-33.265	-139.042	
174.00	-30.364	-148.743	
175.00	-27.997	-144.577	
176.00	-26.162	-147.621	
177.00	-24.642	-152.249	
178.00	-23.488	-145.934	
179.00	-22.726	-149.229	
180.00	-22.320	-155.827	
181.00	-22.245	-151.559	
182.00	-22.463	-153.573	
183.00	-22.980	-157.440	
184.00	-23.791	-155.619	
185.00	-24.961	-159.193	
186.00	-26.430	-163.204	
187.00	-28.297	-164.599	
188.00	-30.692	-167.908	
189.00	-33.507	-168.174	
190.00	-37.340	-169.825	
191.00	-42.235	-170.686	
192.00	-49.449	-156.602	
193.00	-56.983	-93.525	
194.00	-52.801	-64.771	
195.00	-50.700	-60.519	
196.00	-51.809	-82.450	
197.00	-53.688	-130.020	
198.00	-49.947	-175.724	
199.00	-45.571	165.655	
200.00	-42.441	153.820	
201.00	-40.730	146.114	
202.00	-39.680	140.703	
203.00	-39.360	136.682	
204.00	-39.235	126.379	
205.00	-39.638	111.494	
206.00	-40.368	106.225	
207.00	-41.734	101.894	
208.00	-44.058	87.750	
209.00	-47.213	74.827	
210.00	-51.216	58.056	
211.00	-55.121	18.904	
212.00	-56.425	-30.797	
213.00	-56.088	-68.030	
214.00	-54.316	-99.077	
215.00	-52.677	-119.794	
216.00	-52.253	-131.028	
217.00	-51.896	-139.450	
218.00	-52.830	-136.413	
219.00	-54.705	-116.507	
220.00	-54.419	-100.024	
221.00	-51.967	-82.767	
222.00	-49.777	-87.304	
223.00	-48.101	-95.106	
224.00	-46.444	-101.476	
225.00	-44.927	-112.937	
226.00	-44.289	-123.134	
227.00	-43.517	-129.864	
228.00	-43.161	-145.110	
229.00	-43.123	-159.077	
230.00	-43.380	-172.186	
231.00	-43.594	167.323	
232.00	-42.773	150.742	
233.00	-42.779	138.063	
234.00	-42.659	125.071	
235.00	-43.203	113.514	
236.00	-44.372	104.612	
237.00	-46.904	97.828	
238.00	-52.084	82.270	
239.00	-62.482	19.359	
240.00	-53.470	-75.654	
241.00	-46.624	-88.412	
242.00	-43.724	-99.575	
243.00	-41.785	-102.800	
244.00	-40.611	-106.114	
245.00	-39.917	-117.162	
246.00	-39.681	-125.151	
247.00	-39.613	-125.528	
248.00	-39.890	-135.534	
249.00	-40.500	-148.212	
250.00	-41.265	-152.693	
251.00	-41.971	-164.921	
252.00	-42.988	176.854	
253.00	-43.674	167.079	
254.00	-44.000	152.802	
255.00	-44.386	130.922	
256.00	-44.314	116.282	
257.00	-44.389	105.019	
258.00	-44.220	89.569	
259.00	-44.340	77.708	
260.00	-44.461	68.381	
261.00	-44.633	59.113	
262.00	-44.863	47.512	
263.00	-45.219	40.217	
264.00	-45.725	30.805	
265.00	-46.317	20.132	
266.00	-46.825	15.323	
267.00	-47.286	6.404	
268.00	-48.074	-5.139	
269.00	-49.212	-11.764	
270.00	-49.997	-14.246	
271.00	-50.710	-18.044	
272.00	-51.459	-17.742	
273.00	-51.706	-11.909	
274.00	-51.331	-10.184	
275.00	-50.661	-7.846	
276.00	-49.393	-8.332	
277.00	-48.203	-8.241	
278.00	-47.032	-8.850	
279.00	-45.806	-15.156	
280.00	-44.798	-21.342	
281.00	-43.951	-21.324	
282.00	-43.112	-25.974	
283.00	-42.139	-35.170	
284.00	-41.490	-38.365	
285.00	-40.960	-42.583	
286.00	-40.362	-47.700	
287.00	-39.996	-52.360	
288.00	-39.712	-55.186	
289.00	-39.654	-60.478	
290.00	-39.527	-63.938	
291.00	-39.516	-65.170	
292.00	-39.652	-68.910	
293.00	-39.837	-70.038	
294.00	-40.059	-69.064	
295.00	-40.185	-73.164	
296.00	-40.376	-77.551	
297.00	-40.737	-74.770	
298.00	-41.354	-80.134	
299.00	-42.391	-90.058	
300.00	-44.020	-96.961	
301.00	-46.542	-113.344	
302.00	-50.003	-145.394	
303.00	-51.378	165.994	
304.00	-48.227	125.836	
305.00	-45.066	103.464	
306.00	-43.083	95.365	
307.00	-41.822	88.305	
308.00	-41.017	82.050	
309.00	-40.435	80.005	
310.00	-40.146	79.689	
311.00	-39.977	81.040	
312.00	-40.059	80.909	
313.00	-40.400	80.243	
314.00	-40.955	85.026	
315.00	-42.214	85.890	
316.00	-43.949	88.851	
317.00	-46.002	101.091	
318.00	-47.915	120.139	
319.00	-48.537	146.612	
320.00	-47.574	166.953	
321.00	-45.944	172.862	
322.00	-44.864	174.352	
323.00	-44.510	170.642	
324.00	-44.402	154.475	
325.00	-44.913	139.474	
326.00	-45.528	119.731	
327.00	-45.415	96.635	
328.00	-44.583	78.895	
329.00	-43.929	65.915	
330.00	-42.948	56.367	
331.00	-42.783	57.578	
332.00	-43.160	62.697	
333.00	-43.762	77.282	
334.00	-43.098	94.947	
335.00	-41.186	112.845	
336.00	-39.091	124.613	
337.00	-37.325	125.285	
338.00	-36.179	125.495	
339.00	-35.810	130.272	
340.00	-35.498	124.640	
341.00	-35.940	120.095	
342.00	-36.937	119.885	
343.00	-38.692	106.774	
344.00	-41.378	91.467	
345.00	-44.544	70.686	
346.00	-46.399	29.210	
347.00	-45.703	-0.659	
348.00	-44.630	-18.201	
349.00	-45.966	-27.217	
350.00	-52.092	-4.305	
351.00	-48.875	108.717	
352.00	-39.380	119.856	
353.00	-34.189	125.896	
354.00	-30.658	128.589	
355.00	-27.961	119.747	
356.00	-25.942	121.531	
357.00	-24.411	127.821	
358.00	-23.257	124.841	
359.00	-22.624	125.210	
Frequency	2650.00	MHz	
Channel	test		
Scan Axis name	Azimuth  [deg]		
Scan Axis	Amplitude	Phase	
			
0.00	-21.797	149.281	
1.00	-21.813	153.242	
2.00	-22.144	152.495	
3.00	-22.860	146.735	
4.00	-23.942	147.406	
5.00	-25.469	152.154	
6.00	-27.509	148.137	
7.00	-30.100	144.456	
8.00	-33.781	151.434	
9.00	-38.705	154.123	
10.00	-46.561	147.126	
11.00	-67.795	78.940	
12.00	-52.424	-13.848	
13.00	-49.688	-15.595	
14.00	-50.412	-10.393	
15.00	-53.500	16.681	
16.00	-56.228	65.113	
17.00	-53.010	115.072	
18.00	-49.578	133.271	
19.00	-48.469	144.034	
20.00	-49.062	144.470	
21.00	-51.326	141.077	
22.00	-54.170	122.797	
23.00	-55.922	85.357	
24.00	-54.014	50.249	
25.00	-51.181	27.798	
26.00	-49.353	15.286	
27.00	-47.273	6.664	
28.00	-46.241	-0.650	
29.00	-46.431	-10.225	
30.00	-46.977	-21.273	
31.00	-46.983	-37.886	
32.00	-45.690	-56.226	
33.00	-44.596	-63.989	
34.00	-43.671	-68.884	
35.00	-43.625	-72.323	
36.00	-43.974	-75.826	
37.00	-44.836	-78.616	
38.00	-45.855	-80.695	
39.00	-47.824	-87.174	
40.00	-50.327	-87.981	
41.00	-56.611	-90.236	
42.00	-67.629	150.841	
43.00	-54.642	116.618	
44.00	-50.524	119.690	
45.00	-48.609	121.918	
46.00	-48.447	123.780	
47.00	-48.729	125.770	
48.00	-49.705	125.412	
49.00	-51.961	122.427	
50.00	-54.979	118.737	
51.00	-63.063	107.329	
52.00	-61.766	-10.987	
53.00	-53.431	-22.495	
54.00	-49.381	-16.386	
55.00	-46.692	-6.406	
56.00	-45.498	3.186	
57.00	-44.717	14.920	
58.00	-45.158	28.989	
59.00	-45.569	37.368	
60.00	-46.871	50.172	
61.00	-47.493	58.408	
62.00	-48.951	61.437	
63.00	-49.073	65.175	
64.00	-49.254	71.270	
65.00	-48.765	70.912	
66.00	-47.564	73.658	
67.00	-46.578	77.255	
68.00	-45.850	85.876	
69.00	-45.778	97.455	
70.00	-45.624	100.929	
71.00	-45.043	114.462	
72.00	-44.924	124.185	
73.00	-45.817	135.610	
74.00	-45.695	147.828	
75.00	-45.554	159.605	
76.00	-45.748	165.137	
77.00	-45.250	175.951	
78.00	-45.021	-179.138	
79.00	-44.730	-171.553	
80.00	-44.638	-165.213	
81.00	-44.133	-160.387	
82.00	-44.306	-153.934	
83.00	-43.813	-149.560	
84.00	-43.909	-146.549	
85.00	-44.156	-138.751	
86.00	-44.520	-133.373	
87.00	-45.286	-131.417	
88.00	-46.117	-123.285	
89.00	-46.869	-119.184	
90.00	-48.604	-110.631	
91.00	-50.523	-110.526	
92.00	-54.917	-108.027	
93.00	-59.684	-105.781	
94.00	-59.394	176.143	
95.00	-58.001	156.267	
96.00	-54.102	135.355	
97.00	-48.747	145.337	
98.00	-48.072	154.424	
99.00	-45.057	157.631	
100.00	-44.629	167.862	
101.00	-43.773	174.923	
102.00	-42.900	-170.808	
103.00	-42.394	-156.885	
104.00	-40.949	-144.904	
105.00	-40.412	-130.008	
106.00	-40.487	-118.077	
107.00	-40.028	-107.233	
108.00	-39.561	-93.769	
109.00	-39.089	-82.644	
110.00	-38.837	-71.742	
111.00	-38.930	-54.189	
112.00	-39.068	-43.865	
113.00	-39.376	-27.879	
114.00	-38.894	-5.541	
115.00	-39.169	8.151	
116.00	-39.042	29.369	
117.00	-38.493	47.434	
118.00	-38.184	59.872	
119.00	-37.829	77.804	
120.00	-37.759	90.671	
121.00	-37.859	99.273	
122.00	-38.336	111.338	
123.00	-39.236	123.736	
124.00	-40.666	137.222	
125.00	-42.209	146.785	
126.00	-44.244	157.110	
127.00	-47.331	168.719	
128.00	-51.865	169.369	
129.00	-56.442	129.974	
130.00	-53.242	87.248	
131.00	-48.769	79.668	
132.00	-46.432	80.753	
133.00	-45.685	85.226	
134.00	-45.507	101.947	
135.00	-46.034	123.203	
136.00	-46.338	140.000	
137.00	-46.288	162.884	
138.00	-46.513	-172.697	
139.00	-46.906	-159.321	
140.00	-48.617	-144.777	
141.00	-51.409	-110.749	
142.00	-54.431	-73.653	
143.00	-55.589	-24.419	
144.00	-52.929	34.238	
145.00	-49.550	64.770	
146.00	-46.933	80.796	
147.00	-45.230	97.540	
148.00	-44.861	113.238	
149.00	-45.670	120.614	
150.00	-47.737	130.228	
151.00	-50.834	158.486	
152.00	-51.742	-153.969	
153.00	-49.125	-121.497	
154.00	-47.944	-103.243	
155.00	-46.602	-80.412	
156.00	-46.153	-72.807	
157.00	-46.802	-72.728	
158.00	-47.774	-74.643	
159.00	-49.411	-94.246	
160.00	-49.613	-118.385	
161.00	-48.753	-128.924	
162.00	-48.121	-135.384	
163.00	-47.922	-131.856	
164.00	-48.128	-120.991	
165.00	-48.627	-105.896	
166.00	-48.180	-84.565	
167.00	-46.584	-64.380	
168.00	-44.738	-55.916	
169.00	-42.525	-56.012	
170.00	-40.163	-64.130	
171.00	-37.459	-75.609	
172.00	-34.513	-82.398	
173.00	-31.785	-92.756	
174.00	-29.505	-100.150	
175.00	-27.512	-96.308	
176.00	-25.901	-101.055	
177.00	-24.609	-105.181	
178.00	-23.549	-97.467	
179.00	-22.865	-99.846	
180.00	-22.551	-105.374	
181.00	-22.548	-99.795	
182.00	-22.849	-101.359	
183.00	-23.398	-104.301	
184.00	-24.232	-100.909	
185.00	-25.538	-103.612	
186.00	-27.256	-106.326	
187.00	-29.414	-107.257	
188.00	-32.127	-111.611	
189.00	-35.244	-115.280	
190.00	-39.083	-123.057	
191.00	-44.122	-135.604	
192.00	-50.394	-141.922	
193.00	-57.694	-154.187	
194.00	-59.474	-147.666	
195.00	-53.188	-124.442	
196.00	-47.861	-125.970	
197.00	-44.451	-136.774	
198.00	-42.027	-144.279	
199.00	-40.328	-152.727	
200.00	-39.025	-163.080	
201.00	-38.193	-172.017	
202.00	-37.779	179.082	
203.00	-38.007	174.300	
204.00	-39.058	163.486	
205.00	-40.592	147.150	
206.00	-42.899	137.558	
207.00	-45.989	125.572	
208.00	-51.854	91.653	
209.00	-55.486	22.751	
210.00	-50.478	-28.803	
211.00	-46.603	-49.444	
212.00	-45.398	-62.245	
213.00	-45.079	-75.368	
214.00	-46.109	-89.887	
215.00	-47.409	-112.140	
216.00	-47.764	-137.123	
217.00	-47.851	-152.393	
218.00	-48.121	-172.206	
219.00	-49.504	176.914	
220.00	-51.665	169.221	
221.00	-57.021	168.918	
222.00	-67.462	-136.282	
223.00	-57.118	-70.967	
224.00	-52.054	-72.858	
225.00	-48.913	-87.419	
226.00	-46.477	-99.856	
227.00	-45.203	-111.385	
228.00	-44.444	-130.263	
229.00	-44.114	-144.993	
230.00	-43.716	-161.438	
231.00	-43.610	176.715	
232.00	-43.103	161.183	
233.00	-42.575	150.480	
234.00	-42.591	135.476	
235.00	-42.719	123.188	
236.00	-43.480	114.797	
237.00	-45.023	108.232	
238.00	-47.795	101.566	
239.00	-54.073	87.845	
240.00	-83.820	-53.330	
241.00	-51.985	-94.410	
242.00	-46.541	-106.527	
243.00	-43.531	-110.114	
244.00	-41.478	-112.384	
245.00	-40.567	-125.955	
246.00	-39.760	-133.355	
247.00	-39.330	-135.880	
248.00	-39.096	-146.963	
249.00	-39.407	-158.499	
250.00	-39.824	-163.414	
251.00	-40.500	-176.157	
252.00	-40.614	164.795	
253.00	-41.243	156.857	
254.00	-41.774	144.340	
255.00	-41.704	124.655	
256.00	-41.865	112.350	
257.00	-42.472	98.882	
258.00	-42.176	83.274	
259.00	-42.318	70.556	
260.00	-42.037	59.762	
261.00	-42.224	45.404	
262.00	-42.603	33.827	
263.00	-42.914	23.590	
264.00	-42.677	11.549	
265.00	-43.120	-0.094	
266.00	-42.760	-4.641	
267.00	-43.011	-15.928	
268.00	-42.426	-30.986	
269.00	-43.441	-38.327	
270.00	-43.668	-45.809	
271.00	-43.767	-53.650	
272.00	-45.254	-66.023	
273.00	-46.381	-68.150	
274.00	-47.094	-68.235	
275.00	-48.410	-67.205	
276.00	-49.794	-64.722	
277.00	-51.132	-50.262	
278.00	-49.817	-39.787	
279.00	-48.322	-33.118	
280.00	-46.800	-35.176	
281.00	-45.419	-32.069	
282.00	-44.738	-38.734	
283.00	-43.499	-44.120	
284.00	-42.796	-48.304	
285.00	-42.199	-52.663	
286.00	-42.408	-59.516	
287.00	-42.556	-65.306	
288.00	-42.552	-69.279	
289.00	-43.056	-76.350	
290.00	-43.859	-79.261	
291.00	-44.845	-79.931	
292.00	-46.725	-81.348	
293.00	-47.843	-77.123	
294.00	-49.541	-64.921	
295.00	-49.596	-57.192	
296.00	-49.868	-50.061	
297.00	-49.300	-37.772	
298.00	-49.482	-38.688	
299.00	-50.836	-42.171	
300.00	-53.214	-40.651	
301.00	-58.964	-26.058	
302.00	-59.556	64.222	
303.00	-51.266	84.866	
304.00	-46.929	87.852	
305.00	-44.377	83.123	
306.00	-42.459	82.981	
307.00	-41.342	82.402	
308.00	-40.651	81.190	
309.00	-39.893	82.354	
310.00	-39.284	84.269	
311.00	-38.863	86.277	
312.00	-38.610	85.105	
313.00	-38.528	84.063	
314.00	-38.860	85.241	
315.00	-39.787	82.170	
316.00	-41.220	77.066	
317.00	-43.066	77.564	
318.00	-46.115	78.238	
319.00	-49.275	83.845	
320.00	-55.084	86.698	
321.00	-64.064	99.418	
322.00	-71.954	62.097	
323.00	-61.672	18.185	
324.00	-53.188	14.302	
325.00	-48.898	13.112	
326.00	-45.291	9.926	
327.00	-43.140	11.825	
328.00	-42.086	14.515	
329.00	-41.648	18.050	
330.00	-41.456	22.176	
331.00	-41.493	34.038	
332.00	-41.544	47.405	
333.00	-41.039	62.848	
334.00	-41.018	75.845	
335.00	-40.708	91.524	
336.00	-39.835	109.501	
337.00	-38.964	119.716	
338.00	-37.972	129.752	
339.00	-36.883	142.219	
340.00	-36.376	136.586	
341.00	-36.322	132.290	
342.00	-36.874	130.904	
343.00	-37.856	114.858	
344.00	-39.158	95.120	
345.00	-40.089	76.857	
346.00	-39.890	53.925	
347.00	-39.418	41.171	
348.00	-39.656	34.182	
349.00	-40.371	27.833	
350.00	-42.697	43.034	
351.00	-45.155	89.862	
352.00	-40.425	130.494	
353.00	-34.817	150.432	
354.00	-30.886	156.971	
355.00	-27.911	149.681	
356.00	-25.683	153.379	
357.00	-24.054	159.228	
358.00	-22.860	155.322	
359.00	-22.225	155.041	
Frequency	2700.00	MHz	
Channel	test		
Scan Axis name	Azimuth  [deg]		
Scan Axis	Amplitude	Phase	
			
0.00	-21.795	-177.010	
1.00	-21.885	-172.859	
2.00	-22.373	-173.850	
3.00	-23.296	-179.958	
4.00	-24.673	-179.502	
5.00	-26.648	-175.706	
6.00	-29.313	178.397	
7.00	-32.728	171.759	
8.00	-38.144	172.120	
9.00	-46.654	149.572	
10.00	-47.758	48.419	
11.00	-42.215	31.025	
12.00	-40.454	30.340	
13.00	-40.387	27.256	
14.00	-41.603	33.292	
15.00	-44.233	46.952	
16.00	-47.212	67.296	
17.00	-49.468	93.896	
18.00	-48.244	127.379	
19.00	-47.786	145.922	
20.00	-48.021	149.987	
21.00	-50.465	151.404	
22.00	-53.658	131.048	
23.00	-52.362	91.259	
24.00	-48.862	75.679	
25.00	-47.302	68.944	
26.00	-46.841	65.256	
27.00	-47.155	63.140	
28.00	-48.864	67.275	
29.00	-51.397	62.948	
30.00	-63.938	64.584	
31.00	-58.323	-106.880	
32.00	-50.231	-99.110	
33.00	-46.694	-95.275	
34.00	-44.551	-93.657	
35.00	-43.738	-88.075	
36.00	-43.899	-86.484	
37.00	-44.564	-84.001	
38.00	-46.156	-81.671	
39.00	-48.477	-78.722	
40.00	-53.452	-70.993	
41.00	-65.117	-57.606	
42.00	-58.781	107.823	
43.00	-51.718	119.017	
44.00	-49.037	129.183	
45.00	-47.216	137.433	
46.00	-46.557	144.054	
47.00	-46.752	152.917	
48.00	-47.336	161.805	
49.00	-48.059	171.930	
50.00	-49.760	-174.314	
51.00	-51.210	-151.480	
52.00	-52.238	-125.641	
53.00	-52.837	-93.779	
54.00	-51.943	-61.660	
55.00	-50.360	-33.606	
56.00	-49.131	-12.448	
57.00	-48.493	8.086	
58.00	-47.309	25.686	
59.00	-46.973	38.591	
60.00	-46.717	50.150	
61.00	-46.758	61.021	
62.00	-46.347	65.938	
63.00	-46.865	69.947	
64.00	-47.018	72.636	
65.00	-46.908	79.144	
66.00	-46.463	78.244	
67.00	-45.912	82.107	
68.00	-45.295	91.121	
69.00	-45.036	93.246	
70.00	-44.189	101.043	
71.00	-43.975	112.849	
72.00	-42.993	119.757	
73.00	-42.819	132.466	
74.00	-42.486	143.663	
75.00	-42.142	152.042	
76.00	-41.601	158.077	
77.00	-41.499	169.149	
78.00	-41.422	177.425	
79.00	-41.300	-175.502	
80.00	-41.211	-168.218	
81.00	-41.326	-162.517	
82.00	-41.530	-153.448	
83.00	-42.048	-149.053	
84.00	-42.809	-145.747	
85.00	-43.332	-141.934	
86.00	-44.261	-135.316	
87.00	-46.237	-137.899	
88.00	-48.141	-141.720	
89.00	-51.270	-153.338	
90.00	-50.763	-177.514	
91.00	-52.046	163.371	
92.00	-49.977	156.025	
93.00	-47.492	143.945	
94.00	-45.730	140.047	
95.00	-44.612	147.225	
96.00	-42.939	150.033	
97.00	-41.987	157.025	
98.00	-41.561	166.972	
99.00	-40.846	176.483	
100.00	-40.669	-173.129	
101.00	-39.939	-160.088	
102.00	-39.625	-147.561	
103.00	-39.238	-135.218	
104.00	-38.743	-119.462	
105.00	-38.331	-108.827	
106.00	-38.256	-97.162	
107.00	-37.889	-85.689	
108.00	-37.901	-71.566	
109.00	-37.878	-62.715	
110.00	-38.115	-50.727	
111.00	-38.515	-36.756	
112.00	-39.109	-25.026	
113.00	-39.719	-6.707	
114.00	-40.635	13.723	
115.00	-41.100	31.137	
116.00	-40.738	53.420	
117.00	-40.485	73.207	
118.00	-40.313	85.926	
119.00	-40.284	103.944	
120.00	-40.797	119.393	
121.00	-41.356	126.503	
122.00	-42.803	141.238	
123.00	-44.045	158.143	
124.00	-46.416	173.340	
125.00	-48.018	-168.191	
126.00	-50.132	-155.238	
127.00	-54.034	-131.769	
128.00	-63.262	-118.207	
129.00	-72.285	62.393	
130.00	-57.078	78.422	
131.00	-53.821	84.108	
132.00	-53.038	86.468	
133.00	-54.368	98.415	
134.00	-61.330	152.958	
135.00	-54.779	-122.391	
136.00	-49.521	-105.893	
137.00	-46.608	-93.920	
138.00	-45.300	-80.828	
139.00	-45.546	-75.932	
140.00	-46.423	-63.194	
141.00	-47.461	-37.870	
142.00	-49.479	-16.801	
143.00	-51.395	9.256	
144.00	-52.610	55.833	
145.00	-50.874	93.753	
146.00	-49.189	115.775	
147.00	-48.265	140.658	
148.00	-48.312	164.879	
149.00	-48.786	-175.009	
150.00	-49.502	-144.212	
151.00	-48.587	-113.533	
152.00	-47.346	-91.544	
153.00	-46.585	-82.342	
154.00	-46.170	-76.255	
155.00	-46.105	-69.806	
156.00	-45.748	-80.558	
157.00	-45.089	-95.851	
158.00	-43.508	-103.108	
159.00	-41.810	-113.977	
160.00	-40.447	-124.065	
161.00	-39.774	-123.853	
162.00	-39.489	-127.075	
163.00	-39.952	-131.986	
164.00	-40.801	-134.447	
165.00	-41.889	-143.979	
166.00	-42.874	-154.811	
167.00	-44.039	-160.412	
168.00	-46.223	-165.266	
169.00	-49.017	-147.407	
170.00	-47.811	-101.979	
171.00	-42.568	-76.732	
172.00	-37.794	-61.439	
173.00	-33.734	-57.984	
174.00	-30.382	-56.632	
175.00	-27.801	-47.893	
176.00	-25.902	-49.910	
177.00	-24.476	-52.074	
178.00	-23.385	-42.982	
179.00	-22.675	-44.573	
180.00	-22.271	-49.177	
181.00	-22.167	-43.482	
182.00	-22.385	-45.608	
183.00	-22.972	-48.798	
184.00	-23.960	-46.607	
185.00	-25.400	-50.710	
186.00	-27.307	-55.449	
187.00	-29.761	-59.560	
188.00	-32.889	-69.182	
189.00	-36.672	-83.025	
190.00	-40.270	-109.632	
191.00	-42.032	-143.739	
192.00	-42.551	-160.733	
193.00	-43.105	-167.127	
194.00	-44.425	-169.168	
195.00	-45.634	-150.185	
196.00	-45.613	-134.139	
197.00	-44.201	-124.220	
198.00	-41.982	-114.337	
199.00	-40.202	-113.694	
200.00	-39.057	-119.099	
201.00	-38.371	-125.536	
202.00	-38.084	-133.134	
203.00	-38.145	-137.197	
204.00	-38.725	-143.433	
205.00	-39.942	-154.452	
206.00	-41.350	-155.621	
207.00	-43.364	-155.258	
208.00	-46.185	-152.851	
209.00	-48.985	-132.735	
210.00	-49.039	-98.985	
211.00	-46.415	-82.197	
212.00	-44.815	-79.357	
213.00	-43.672	-81.462	
214.00	-43.339	-87.001	
215.00	-43.455	-94.719	
216.00	-43.733	-102.090	
217.00	-44.836	-110.496	
218.00	-46.494	-120.513	
219.00	-48.645	-135.669	
220.00	-51.980	-148.377	
221.00	-58.269	-164.038	
222.00	-80.541	115.452	
223.00	-60.209	-21.945	
224.00	-51.449	-37.717	
225.00	-47.677	-52.000	
226.00	-44.830	-61.801	
227.00	-43.235	-70.199	
228.00	-42.170	-84.693	
229.00	-41.818	-97.088	
230.00	-41.508	-106.928	
231.00	-41.412	-122.113	
232.00	-41.395	-136.323	
233.00	-41.769	-148.366	
234.00	-41.988	-161.920	
235.00	-42.419	-175.484	
236.00	-43.243	171.283	
237.00	-44.576	166.470	
238.00	-46.808	158.452	
239.00	-50.501	155.459	
240.00	-58.148	-175.910	
241.00	-54.802	-99.302	
242.00	-48.712	-95.106	
243.00	-44.955	-93.559	
244.00	-42.333	-95.369	
245.00	-40.925	-108.436	
246.00	-39.980	-115.155	
247.00	-39.370	-117.786	
248.00	-39.144	-131.307	
249.00	-39.129	-143.523	
250.00	-39.579	-147.255	
251.00	-40.444	-161.384	
252.00	-41.175	-175.968	
253.00	-41.796	171.961	
254.00	-42.268	156.420	
255.00	-43.447	135.879	
256.00	-43.714	115.027	
257.00	-44.336	100.437	
258.00	-44.148	76.358	
259.00	-43.911	61.691	
260.00	-43.765	48.641	
261.00	-43.593	33.407	
262.00	-42.832	16.445	
263.00	-42.685	10.521	
264.00	-41.936	-1.035	
265.00	-41.688	-13.207	
266.00	-41.769	-19.767	
267.00	-41.488	-23.973	
268.00	-41.161	-36.827	
269.00	-41.430	-41.283	
270.00	-41.171	-40.836	
271.00	-41.288	-48.832	
272.00	-41.777	-53.192	
273.00	-41.504	-58.647	
274.00	-42.302	-59.466	
275.00	-42.941	-60.229	
276.00	-43.302	-58.369	
277.00	-42.792	-57.911	
278.00	-42.934	-54.298	
279.00	-42.749	-54.882	
280.00	-42.715	-52.596	
281.00	-42.475	-51.880	
282.00	-41.775	-51.925	
283.00	-41.354	-57.897	
284.00	-41.161	-58.511	
285.00	-40.687	-60.731	
286.00	-40.563	-65.013	
287.00	-40.440	-70.865	
288.00	-40.637	-74.988	
289.00	-40.947	-81.086	
290.00	-41.391	-87.318	
291.00	-42.079	-89.990	
292.00	-43.002	-98.055	
293.00	-44.699	-98.744	
294.00	-46.887	-98.642	
295.00	-49.339	-95.505	
296.00	-51.652	-83.533	
297.00	-51.242	-55.948	
298.00	-49.839	-46.529	
299.00	-48.812	-54.020	
300.00	-49.175	-58.831	
301.00	-50.674	-73.586	
302.00	-52.572	-94.605	
303.00	-56.092	-123.899	
304.00	-56.422	-176.537	
305.00	-53.516	143.602	
306.00	-50.911	129.830	
307.00	-48.764	124.594	
308.00	-46.587	121.566	
309.00	-44.913	118.920	
310.00	-43.409	117.075	
311.00	-42.405	114.166	
312.00	-41.809	109.193	
313.00	-42.003	104.072	
314.00	-42.887	104.398	
315.00	-44.416	100.215	
316.00	-46.428	98.168	
317.00	-48.925	96.837	
318.00	-51.864	90.792	
319.00	-55.140	52.484	
320.00	-51.900	-2.678	
321.00	-47.093	-26.763	
322.00	-43.792	-33.991	
323.00	-41.434	-38.861	
324.00	-40.037	-44.441	
325.00	-39.146	-45.138	
326.00	-38.928	-44.018	
327.00	-39.433	-43.436	
328.00	-40.651	-36.300	
329.00	-42.703	-23.475	
330.00	-43.885	0.338	
331.00	-42.866	26.847	
332.00	-41.082	40.609	
333.00	-40.578	47.536	
334.00	-40.771	55.176	
335.00	-41.766	65.316	
336.00	-43.489	85.492	
337.00	-44.476	107.295	
338.00	-43.872	139.176	
339.00	-41.791	162.035	
340.00	-40.503	164.299	
341.00	-39.446	164.781	
342.00	-39.333	163.763	
343.00	-39.920	146.097	
344.00	-41.203	123.172	
345.00	-41.167	99.632	
346.00	-39.469	74.915	
347.00	-37.728	64.886	
348.00	-36.667	59.351	
349.00	-36.531	52.127	
350.00	-37.969	60.879	
351.00	-41.079	80.672	
352.00	-42.181	129.331	
353.00	-36.363	171.467	
354.00	-31.649	-176.237	
355.00	-28.149	178.766	
356.00	-25.686	-176.056	
357.00	-23.926	-169.245	
358.00	-22.708	-172.230	
359.00	-22.112	-172.039	
