Test Title:	Alpha Wireless Indoor Range						
Date:	21/12/2017						
Time:	15:53						
Operator Name:	FL						
Caib. File Name:	C:\Program Files\Midas 2.01d\Calibration Files\test sigma 180900.cal						
							
[Scan Axis] Name: 	Azimuth  [deg]Start: 	0.000000	Stop	359.000000	Increment	1.000000[Step Axis] Name: 	Start: 	0.000000	Stop	0.000000	Increment	0.000000[Tert] Name: 	None [Forth] Name: 	None  [ Freq.]  (List) 	MHz.	2300.000000	2350.000000	2400.000000	2450.000000	2500.000000	2550.000000	2600.000000	2650.000000	2700.000000
 [Switch]  	None [Channel]  	test			 [ Beam] 	None			
Database:			
First Question			
2nd			
3rd			
4th			
			
Frequency	2300.00	MHz	
Channel	test		
Scan Axis name	Azimuth  [deg]		
Scan Axis	Amplitude	Phase	
			
0.00	-21.601	126.825	
1.00	-21.856	125.433	
2.00	-22.314	128.171	
3.00	-23.022	130.015	
4.00	-23.948	128.532	
5.00	-25.177	132.727	
6.00	-26.668	136.927	
7.00	-28.506	137.157	
8.00	-30.774	143.343	
9.00	-33.450	149.833	
10.00	-36.985	152.625	
11.00	-42.121	158.978	
12.00	-51.657	161.358	
13.00	-54.227	-6.094	
14.00	-45.084	-0.123	
15.00	-41.288	10.020	
16.00	-38.917	17.925	
17.00	-37.373	23.738	
18.00	-36.319	34.943	
19.00	-35.843	45.266	
20.00	-35.397	50.293	
21.00	-35.424	55.571	
22.00	-35.638	63.904	
23.00	-36.098	67.316	
24.00	-36.710	68.176	
25.00	-37.437	71.900	
26.00	-38.461	75.502	
27.00	-39.502	75.401	
28.00	-40.907	76.852	
29.00	-42.356	80.591	
30.00	-43.330	84.258	
31.00	-43.862	89.378	
32.00	-43.781	101.063	
33.00	-43.034	108.086	
34.00	-42.315	115.701	
35.00	-41.110	124.579	
36.00	-40.270	129.667	
37.00	-39.512	133.285	
38.00	-38.772	134.260	
39.00	-37.918	136.668	
40.00	-37.256	137.491	
41.00	-36.762	138.449	
42.00	-36.416	142.174	
43.00	-36.365	144.971	
44.00	-36.680	144.608	
45.00	-37.303	147.804	
46.00	-38.164	150.562	
47.00	-39.495	146.834	
48.00	-41.054	144.545	
49.00	-42.920	144.378	
50.00	-44.765	134.577	
51.00	-46.917	119.803	
52.00	-48.332	101.980	
53.00	-47.931	77.918	
54.00	-46.475	61.091	
55.00	-44.195	56.462	
56.00	-42.760	58.736	
57.00	-41.746	59.343	
58.00	-41.007	66.122	
59.00	-40.724	76.357	
60.00	-40.778	85.165	
61.00	-41.148	93.345	
62.00	-41.762	104.937	
63.00	-42.787	118.104	
64.00	-43.880	127.621	
65.00	-45.879	140.225	
66.00	-47.961	160.518	
67.00	-50.177	-178.033	
68.00	-52.729	-160.419	
69.00	-55.588	-113.833	
70.00	-55.959	-74.302	
71.00	-54.228	-59.586	
72.00	-52.205	-23.149	
73.00	-51.481	-9.008	
74.00	-49.614	2.327	
75.00	-48.898	12.738	
76.00	-49.157	20.761	
77.00	-50.090	22.527	
78.00	-50.470	24.438	
79.00	-51.534	27.206	
80.00	-53.453	11.677	
81.00	-53.990	1.696	
82.00	-54.167	-10.666	
83.00	-52.780	-27.680	
84.00	-50.981	-34.210	
85.00	-49.274	-39.657	
86.00	-47.658	-38.600	
87.00	-46.305	-36.073	
88.00	-45.210	-34.573	
89.00	-44.095	-27.875	
90.00	-43.200	-23.043	
91.00	-42.274	-19.473	
92.00	-41.686	-11.773	
93.00	-40.948	-5.221	
94.00	-40.499	-0.972	
95.00	-39.964	7.454	
96.00	-39.468	16.510	
97.00	-38.820	21.956	
98.00	-38.461	30.713	
99.00	-37.962	39.772	
100.00	-37.561	45.735	
101.00	-37.288	51.654	
102.00	-36.969	60.263	
103.00	-36.715	67.074	
104.00	-36.438	74.202	
105.00	-36.514	83.324	
106.00	-36.506	91.418	
107.00	-36.803	96.126	
108.00	-37.335	102.423	
109.00	-38.168	110.928	
110.00	-39.383	118.114	
111.00	-41.134	124.443	
112.00	-43.523	135.488	
113.00	-47.275	148.766	
114.00	-53.671	174.971	
115.00	-55.373	-100.781	
116.00	-49.680	-63.770	
117.00	-46.262	-47.967	
118.00	-44.518	-40.564	
119.00	-43.779	-32.988	
120.00	-43.663	-26.664	
121.00	-44.496	-18.323	
122.00	-45.772	-11.553	
123.00	-48.089	4.129	
124.00	-50.507	28.835	
125.00	-52.968	59.785	
126.00	-52.098	96.889	
127.00	-50.536	123.670	
128.00	-49.219	141.250	
129.00	-48.104	157.073	
130.00	-47.044	170.832	
131.00	-46.278	-178.995	
132.00	-46.033	-169.893	
133.00	-45.811	-163.821	
134.00	-45.932	-160.014	
135.00	-46.823	-159.978	
136.00	-48.325	-162.095	
137.00	-50.839	-169.430	
138.00	-53.650	173.112	
139.00	-55.476	139.941	
140.00	-54.193	107.322	
141.00	-51.608	89.854	
142.00	-49.588	81.282	
143.00	-47.750	78.875	
144.00	-46.703	77.915	
145.00	-45.515	73.938	
146.00	-45.279	71.995	
147.00	-44.690	66.894	
148.00	-44.349	63.252	
149.00	-44.178	61.533	
150.00	-44.272	62.144	
151.00	-44.600	65.392	
152.00	-44.929	65.690	
153.00	-45.337	66.831	
154.00	-45.549	69.614	
155.00	-46.019	65.928	
156.00	-46.813	58.632	
157.00	-47.122	49.461	
158.00	-47.248	37.920	
159.00	-46.827	30.436	
160.00	-46.326	26.006	
161.00	-46.014	25.353	
162.00	-46.013	23.909	
163.00	-46.717	23.836	
164.00	-47.791	23.901	
165.00	-50.123	32.464	
166.00	-50.917	55.506	
167.00	-48.319	86.880	
168.00	-44.036	98.822	
169.00	-40.272	103.640	
170.00	-37.160	102.850	
171.00	-34.493	100.537	
172.00	-32.043	99.239	
173.00	-29.908	95.476	
174.00	-27.975	92.278	
175.00	-26.333	92.366	
176.00	-25.013	91.725	
177.00	-23.986	87.842	
178.00	-23.228	88.415	
179.00	-22.706	89.869	
180.00	-22.398	87.943	
181.00	-22.338	87.473	
182.00	-22.519	89.410	
183.00	-23.004	89.129	
184.00	-23.795	87.225	
185.00	-24.896	88.133	
186.00	-26.388	90.328	
187.00	-28.198	90.739	
188.00	-30.419	91.741	
189.00	-33.285	95.816	
190.00	-37.079	101.535	
191.00	-42.893	118.123	
192.00	-48.067	176.391	
193.00	-44.212	-136.931	
194.00	-41.505	-125.568	
195.00	-40.548	-122.114	
196.00	-41.015	-122.599	
197.00	-42.387	-117.951	
198.00	-45.080	-107.450	
199.00	-47.829	-79.193	
200.00	-46.639	-36.893	
201.00	-43.574	-16.238	
202.00	-41.165	-4.331	
203.00	-39.680	-1.575	
204.00	-39.026	-4.057	
205.00	-39.127	-4.516	
206.00	-39.808	-12.753	
207.00	-41.064	-26.859	
208.00	-42.639	-41.188	
209.00	-43.872	-63.256	
210.00	-44.146	-94.810	
211.00	-43.848	-118.699	
212.00	-42.659	-138.973	
213.00	-41.636	-157.450	
214.00	-41.186	-169.796	
215.00	-41.366	-179.175	
216.00	-42.416	171.088	
217.00	-44.399	158.801	
218.00	-47.291	128.983	
219.00	-48.703	87.242	
220.00	-46.106	49.885	
221.00	-43.343	31.748	
222.00	-41.858	18.598	
223.00	-40.821	10.591	
224.00	-40.485	4.790	
225.00	-40.649	-2.789	
226.00	-41.219	-10.243	
227.00	-41.967	-15.462	
228.00	-43.225	-16.686	
229.00	-44.663	-15.194	
230.00	-46.024	-5.917	
231.00	-46.963	12.314	
232.00	-46.071	27.095	
233.00	-44.218	37.568	
234.00	-42.566	43.016	
235.00	-41.354	40.507	
236.00	-40.505	34.745	
237.00	-39.940	30.187	
238.00	-39.480	23.535	
239.00	-39.239	11.628	
240.00	-38.996	1.334	
241.00	-38.915	-5.598	
242.00	-38.845	-16.099	
243.00	-38.726	-26.400	
244.00	-38.594	-33.254	
245.00	-38.999	-39.567	
246.00	-39.366	-44.312	
247.00	-39.960	-48.535	
248.00	-40.880	-50.597	
249.00	-42.064	-47.238	
250.00	-43.209	-42.780	
251.00	-44.622	-32.173	
252.00	-45.308	-21.082	
253.00	-43.989	-9.186	
254.00	-43.287	-2.989	
255.00	-42.304	3.389	
256.00	-41.166	4.504	
257.00	-40.144	3.132	
258.00	-39.645	-0.729	
259.00	-39.447	-3.396	
260.00	-38.918	-9.469	
261.00	-38.972	-13.039	
262.00	-39.202	-19.442	
263.00	-39.426	-24.966	
264.00	-40.000	-28.919	
265.00	-40.707	-35.979	
266.00	-41.707	-40.990	
267.00	-42.777	-42.374	
268.00	-44.276	-48.653	
269.00	-45.991	-52.705	
270.00	-48.224	-50.736	
271.00	-51.016	-50.649	
272.00	-54.278	-42.477	
273.00	-57.025	-20.423	
274.00	-57.498	14.042	
275.00	-55.928	30.971	
276.00	-53.498	41.711	
277.00	-52.687	51.163	
278.00	-51.490	52.133	
279.00	-51.075	56.932	
280.00	-49.919	63.106	
281.00	-49.012	68.419	
282.00	-48.147	71.745	
283.00	-46.925	77.802	
284.00	-45.795	80.269	
285.00	-44.634	78.939	
286.00	-43.722	78.204	
287.00	-43.041	79.003	
288.00	-42.622	78.849	
289.00	-42.450	77.757	
290.00	-41.954	79.281	
291.00	-41.875	81.178	
292.00	-41.529	81.851	
293.00	-41.254	84.214	
294.00	-41.057	84.961	
295.00	-40.478	86.366	
296.00	-40.079	87.054	
297.00	-39.826	88.993	
298.00	-39.635	85.989	
299.00	-39.535	85.661	
300.00	-39.794	85.556	
301.00	-39.976	84.162	
302.00	-40.257	84.224	
303.00	-40.700	85.984	
304.00	-41.007	85.944	
305.00	-41.412	83.383	
306.00	-42.057	83.324	
307.00	-42.907	84.256	
308.00	-44.074	80.887	
309.00	-45.545	79.650	
310.00	-47.325	81.742	
311.00	-48.787	79.039	
312.00	-50.029	73.520	
313.00	-50.637	63.944	
314.00	-50.191	39.814	
315.00	-48.272	13.573	
316.00	-46.328	-2.968	
317.00	-44.468	-17.397	
318.00	-43.043	-27.915	
319.00	-42.257	-31.333	
320.00	-41.947	-34.479	
321.00	-41.882	-33.098	
322.00	-41.764	-27.769	
323.00	-41.338	-18.934	
324.00	-41.021	-15.433	
325.00	-41.083	-13.683	
326.00	-41.533	-8.453	
327.00	-42.846	-4.608	
328.00	-45.163	-0.089	
329.00	-49.229	17.911	
330.00	-51.685	75.881	
331.00	-46.408	118.909	
332.00	-42.036	130.200	
333.00	-38.661	135.735	
334.00	-36.403	136.785	
335.00	-34.917	133.022	
336.00	-34.007	130.273	
337.00	-33.658	128.299	
338.00	-33.886	122.896	
339.00	-34.542	115.800	
340.00	-35.573	109.985	
341.00	-36.802	99.301	
342.00	-38.073	84.432	
343.00	-39.186	69.474	
344.00	-40.298	56.126	
345.00	-41.796	45.860	
346.00	-44.054	45.168	
347.00	-46.442	65.989	
348.00	-44.387	108.111	
349.00	-39.323	125.796	
350.00	-34.926	129.708	
351.00	-31.568	132.876	
352.00	-28.943	132.762	
353.00	-26.830	130.239	
354.00	-25.190	132.204	
355.00	-23.867	131.210	
356.00	-22.895	128.305	
357.00	-22.211	128.461	
358.00	-21.735	129.532	
359.00	-21.499	129.875	
Frequency	2350.00	MHz	
Channel	test		
Scan Axis name	Azimuth  [deg]		
Scan Axis	Amplitude	Phase	
			
0.00	-21.215	152.167	
1.00	-21.255	150.769	
2.00	-21.553	153.441	
3.00	-22.108	154.954	
4.00	-22.941	153.225	
5.00	-24.042	156.765	
6.00	-25.413	159.095	
7.00	-27.106	156.469	
8.00	-29.276	158.662	
9.00	-32.050	159.997	
10.00	-35.864	156.756	
11.00	-41.588	155.949	
12.00	-52.709	140.087	
13.00	-50.985	0.005	
14.00	-44.468	-9.377	
15.00	-41.983	-7.705	
16.00	-41.041	-9.056	
17.00	-41.034	-9.548	
18.00	-41.705	-4.796	
19.00	-42.957	3.547	
20.00	-44.886	12.616	
21.00	-46.727	28.874	
22.00	-47.726	51.839	
23.00	-47.807	71.696	
24.00	-47.796	82.734	
25.00	-47.615	92.039	
26.00	-48.232	97.088	
27.00	-49.112	96.335	
28.00	-50.015	94.119	
29.00	-50.320	86.964	
30.00	-49.569	78.663	
31.00	-48.306	74.923	
32.00	-46.510	79.278	
33.00	-45.134	84.133	
34.00	-43.786	90.110	
35.00	-42.640	100.503	
36.00	-41.721	110.416	
37.00	-40.874	116.260	
38.00	-40.392	122.839	
39.00	-39.952	130.095	
40.00	-39.775	134.829	
41.00	-39.760	138.612	
42.00	-39.995	144.341	
43.00	-40.201	146.273	
44.00	-40.472	145.171	
45.00	-40.734	146.724	
46.00	-40.966	150.778	
47.00	-41.303	149.707	
48.00	-41.775	150.766	
49.00	-42.381	157.374	
50.00	-43.385	157.633	
51.00	-44.678	156.374	
52.00	-46.359	155.656	
53.00	-47.879	144.065	
54.00	-48.802	125.148	
55.00	-47.365	109.275	
56.00	-45.446	99.837	
57.00	-43.569	93.959	
58.00	-41.927	93.379	
59.00	-40.584	97.469	
60.00	-39.479	100.317	
61.00	-38.824	102.589	
62.00	-38.262	108.019	
63.00	-37.986	113.907	
64.00	-37.852	118.372	
65.00	-38.148	124.324	
66.00	-38.672	132.828	
67.00	-39.260	141.320	
68.00	-40.526	146.431	
69.00	-41.936	157.866	
70.00	-43.375	166.721	
71.00	-45.298	172.533	
72.00	-47.999	-169.351	
73.00	-49.688	-149.271	
74.00	-53.317	-123.558	
75.00	-53.765	-100.219	
76.00	-54.048	-73.463	
77.00	-53.057	-50.180	
78.00	-52.506	-40.920	
79.00	-52.450	-38.331	
80.00	-52.679	-43.761	
81.00	-52.722	-51.302	
82.00	-51.796	-56.735	
83.00	-50.007	-63.106	
84.00	-48.282	-65.434	
85.00	-46.728	-65.396	
86.00	-45.206	-63.284	
87.00	-43.893	-60.291	
88.00	-42.873	-56.636	
89.00	-41.751	-50.283	
90.00	-40.758	-45.264	
91.00	-39.980	-40.717	
92.00	-39.262	-33.243	
93.00	-38.802	-26.471	
94.00	-38.286	-21.821	
95.00	-38.066	-13.282	
96.00	-37.830	-3.543	
97.00	-37.638	2.349	
98.00	-37.473	11.410	
99.00	-37.235	21.618	
100.00	-37.114	27.989	
101.00	-37.043	35.561	
102.00	-37.028	45.222	
103.00	-37.103	53.260	
104.00	-37.327	61.825	
105.00	-37.726	72.402	
106.00	-38.160	80.746	
107.00	-38.872	86.908	
108.00	-40.069	95.505	
109.00	-41.784	105.985	
110.00	-44.229	116.022	
111.00	-47.671	129.896	
112.00	-53.393	160.528	
113.00	-55.789	-116.076	
114.00	-49.387	-70.898	
115.00	-45.620	-54.854	
116.00	-43.455	-42.974	
117.00	-42.233	-33.343	
118.00	-41.423	-23.855	
119.00	-41.225	-13.905	
120.00	-41.654	-2.407	
121.00	-42.437	10.968	
122.00	-43.532	25.237	
123.00	-44.860	42.239	
124.00	-46.639	61.615	
125.00	-48.397	86.248	
126.00	-49.619	120.210	
127.00	-49.769	154.682	
128.00	-48.568	-175.864	
129.00	-47.201	-150.941	
130.00	-46.190	-135.008	
131.00	-45.929	-120.580	
132.00	-46.353	-105.721	
133.00	-47.201	-88.313	
134.00	-48.242	-63.702	
135.00	-48.201	-34.462	
136.00	-46.911	-8.100	
137.00	-45.107	9.228	
138.00	-43.873	17.841	
139.00	-43.078	25.055	
140.00	-42.864	31.386	
141.00	-43.015	34.432	
142.00	-43.586	35.469	
143.00	-44.314	35.381	
144.00	-44.917	31.989	
145.00	-44.946	25.287	
146.00	-44.512	19.251	
147.00	-43.537	11.606	
148.00	-42.648	10.034	
149.00	-42.019	11.757	
150.00	-41.451	18.911	
151.00	-40.837	29.316	
152.00	-40.164	36.205	
153.00	-39.460	44.237	
154.00	-38.822	52.927	
155.00	-38.354	55.619	
156.00	-38.330	61.283	
157.00	-38.582	64.863	
158.00	-39.045	66.442	
159.00	-39.787	66.019	
160.00	-40.844	61.504	
161.00	-42.317	53.810	
162.00	-44.039	38.677	
163.00	-45.932	14.838	
164.00	-46.681	-11.122	
165.00	-46.467	-30.549	
166.00	-46.768	-40.471	
167.00	-49.041	-41.732	
168.00	-58.019	-32.726	
169.00	-52.346	126.258	
170.00	-42.453	130.643	
171.00	-37.082	131.236	
172.00	-33.303	132.401	
173.00	-30.306	130.672	
174.00	-27.937	129.162	
175.00	-26.028	130.897	
176.00	-24.506	131.644	
177.00	-23.300	129.489	
178.00	-22.396	131.661	
179.00	-21.779	134.334	
180.00	-21.417	133.142	
181.00	-21.319	133.356	
182.00	-21.490	135.505	
183.00	-21.922	135.530	
184.00	-22.667	133.937	
185.00	-23.752	134.986	
186.00	-25.218	137.360	
187.00	-27.108	136.827	
188.00	-29.629	136.424	
189.00	-32.920	138.619	
190.00	-37.537	143.348	
191.00	-44.045	167.162	
192.00	-46.182	-126.094	
193.00	-42.591	-98.358	
194.00	-40.710	-90.382	
195.00	-40.619	-89.311	
196.00	-41.821	-92.737	
197.00	-44.413	-94.865	
198.00	-49.969	-102.681	
199.00	-72.823	138.498	
200.00	-48.536	71.619	
201.00	-42.528	62.874	
202.00	-39.408	57.110	
203.00	-37.479	50.625	
204.00	-36.493	41.541	
205.00	-36.241	36.893	
206.00	-36.635	28.080	
207.00	-37.692	15.430	
208.00	-39.412	4.888	
209.00	-41.639	-14.599	
210.00	-43.859	-48.233	
211.00	-44.089	-83.014	
212.00	-42.701	-111.933	
213.00	-41.092	-133.458	
214.00	-40.184	-146.332	
215.00	-40.187	-156.214	
216.00	-40.919	-164.949	
217.00	-42.773	-178.240	
218.00	-45.862	159.705	
219.00	-49.168	121.763	
220.00	-48.048	71.504	
221.00	-44.519	42.677	
222.00	-42.173	28.254	
223.00	-40.552	19.064	
224.00	-39.649	11.592	
225.00	-39.241	4.405	
226.00	-39.026	-2.169	
227.00	-39.128	-6.378	
228.00	-39.420	-8.061	
229.00	-39.724	-10.368	
230.00	-40.149	-9.352	
231.00	-40.348	-5.234	
232.00	-40.422	-2.542	
233.00	-40.146	0.133	
234.00	-39.700	4.105	
235.00	-39.174	3.699	
236.00	-38.716	-0.014	
237.00	-38.235	-2.360	
238.00	-37.820	-6.659	
239.00	-37.417	-15.725	
240.00	-37.031	-23.056	
241.00	-36.701	-26.956	
242.00	-36.554	-35.432	
243.00	-36.391	-42.840	
244.00	-36.368	-46.875	
245.00	-36.626	-52.375	
246.00	-36.948	-57.804	
247.00	-37.675	-60.361	
248.00	-38.369	-63.226	
249.00	-39.605	-61.001	
250.00	-40.413	-62.051	
251.00	-41.382	-58.877	
252.00	-42.395	-48.752	
253.00	-42.925	-40.331	
254.00	-42.574	-34.062	
255.00	-41.946	-25.295	
256.00	-41.037	-24.070	
257.00	-40.315	-22.125	
258.00	-39.618	-23.243	
259.00	-39.196	-27.389	
260.00	-38.766	-33.010	
261.00	-38.517	-37.977	
262.00	-38.410	-45.433	
263.00	-38.517	-52.352	
264.00	-38.668	-58.262	
265.00	-39.049	-67.818	
266.00	-39.476	-77.066	
267.00	-40.037	-83.204	
268.00	-40.786	-94.560	
269.00	-41.734	-106.280	
270.00	-42.737	-114.570	
271.00	-43.833	-127.697	
272.00	-45.022	-141.563	
273.00	-46.117	-154.380	
274.00	-47.389	-170.617	
275.00	-48.310	167.931	
276.00	-48.986	148.964	
277.00	-49.614	130.960	
278.00	-49.790	114.817	
279.00	-49.712	101.170	
280.00	-49.969	93.023	
281.00	-49.977	85.606	
282.00	-49.963	80.053	
283.00	-50.317	76.842	
284.00	-50.216	75.269	
285.00	-50.004	72.920	
286.00	-49.872	71.689	
287.00	-49.729	71.376	
288.00	-49.752	70.787	
289.00	-49.905	67.549	
290.00	-50.115	65.922	
291.00	-51.132	66.824	
292.00	-52.024	68.027	
293.00	-53.453	75.558	
294.00	-55.064	82.819	
295.00	-54.747	108.302	
296.00	-52.764	126.274	
297.00	-51.128	130.027	
298.00	-49.484	134.455	
299.00	-48.361	133.505	
300.00	-47.928	134.490	
301.00	-47.284	133.074	
302.00	-47.104	132.364	
303.00	-47.231	133.452	
304.00	-47.481	135.327	
305.00	-48.084	136.308	
306.00	-48.277	145.635	
307.00	-48.176	153.206	
308.00	-48.214	158.293	
309.00	-47.898	163.964	
310.00	-48.120	168.213	
311.00	-49.015	168.685	
312.00	-51.601	173.504	
313.00	-56.493	-161.461	
314.00	-56.242	-85.391	
315.00	-48.792	-62.941	
316.00	-44.573	-59.398	
317.00	-41.899	-61.808	
318.00	-40.238	-64.742	
319.00	-39.427	-65.151	
320.00	-39.162	-65.078	
321.00	-39.293	-62.574	
322.00	-39.464	-55.793	
323.00	-39.567	-44.866	
324.00	-39.288	-35.823	
325.00	-38.865	-28.165	
326.00	-38.387	-17.502	
327.00	-37.907	-9.774	
328.00	-37.592	-7.409	
329.00	-37.641	-3.993	
330.00	-38.324	-1.613	
331.00	-39.984	-2.125	
332.00	-43.288	-2.175	
333.00	-50.346	17.710	
334.00	-51.402	117.874	
335.00	-43.758	134.748	
336.00	-40.246	136.113	
337.00	-38.491	137.115	
338.00	-37.770	134.565	
339.00	-37.815	130.990	
340.00	-38.557	127.935	
341.00	-40.144	119.926	
342.00	-42.539	102.310	
343.00	-45.060	71.296	
344.00	-45.103	33.262	
345.00	-43.592	7.620	
346.00	-42.910	-4.627	
347.00	-43.874	-11.119	
348.00	-47.950	-10.241	
349.00	-62.767	57.943	
350.00	-44.954	146.845	
351.00	-37.688	150.705	
352.00	-33.162	150.944	
353.00	-29.864	149.116	
354.00	-27.390	151.802	
355.00	-25.487	151.488	
356.00	-24.044	149.933	
357.00	-22.971	151.643	
358.00	-22.178	153.875	
359.00	-21.685	154.751	
Frequency	2400.00	MHz	
Channel	test		
Scan Axis name	Azimuth  [deg]		
Scan Axis	Amplitude	Phase	
			
0.00	-20.684	176.128	
1.00	-20.945	173.651	
2.00	-21.500	175.595	
3.00	-22.350	175.754	
4.00	-23.507	172.916	
5.00	-25.088	175.192	
6.00	-27.156	175.527	
7.00	-29.783	170.178	
8.00	-33.363	168.450	
9.00	-38.254	161.966	
10.00	-45.589	131.914	
11.00	-47.480	58.205	
12.00	-42.566	35.486	
13.00	-40.619	27.663	
14.00	-40.121	29.175	
15.00	-40.391	35.946	
16.00	-41.859	39.975	
17.00	-43.582	46.753	
18.00	-45.221	62.637	
19.00	-46.873	86.245	
20.00	-47.043	102.755	
21.00	-46.523	115.852	
22.00	-45.904	128.659	
23.00	-46.032	131.803	
24.00	-45.920	129.843	
25.00	-46.060	129.430	
26.00	-46.409	125.928	
27.00	-45.988	116.580	
28.00	-46.227	111.471	
29.00	-46.342	102.271	
30.00	-46.271	93.075	
31.00	-46.421	83.091	
32.00	-46.001	77.501	
33.00	-45.456	72.365	
34.00	-45.529	70.935	
35.00	-45.722	75.371	
36.00	-45.893	80.687	
37.00	-46.269	86.799	
38.00	-46.396	94.435	
39.00	-46.449	107.294	
40.00	-46.434	121.666	
41.00	-46.259	135.770	
42.00	-46.181	152.676	
43.00	-46.151	165.087	
44.00	-46.526	173.202	
45.00	-47.444	-179.846	
46.00	-49.018	-174.288	
47.00	-51.564	179.441	
48.00	-55.376	161.491	
49.00	-57.884	125.432	
50.00	-55.136	83.780	
51.00	-51.965	63.024	
52.00	-48.298	57.709	
53.00	-45.654	54.204	
54.00	-43.542	52.286	
55.00	-41.757	57.610	
56.00	-40.420	61.022	
57.00	-39.349	63.243	
58.00	-38.675	67.965	
59.00	-38.195	74.906	
60.00	-37.944	79.514	
61.00	-37.945	81.760	
62.00	-38.054	86.893	
63.00	-38.333	91.534	
64.00	-38.827	92.560	
65.00	-39.282	95.623	
66.00	-39.874	101.995	
67.00	-40.633	105.121	
68.00	-41.518	104.463	
69.00	-42.529	111.455	
70.00	-43.517	114.823	
71.00	-44.645	115.428	
72.00	-45.409	124.419	
73.00	-47.312	129.693	
74.00	-48.524	135.477	
75.00	-49.620	140.329	
76.00	-49.739	157.661	
77.00	-49.769	172.881	
78.00	-49.878	-177.192	
79.00	-48.711	-166.813	
80.00	-47.722	-156.162	
81.00	-46.439	-148.439	
82.00	-45.467	-137.404	
83.00	-44.355	-128.329	
84.00	-43.380	-122.526	
85.00	-42.893	-114.712	
86.00	-42.113	-107.257	
87.00	-41.742	-101.622	
88.00	-41.516	-95.144	
89.00	-41.159	-87.683	
90.00	-40.992	-81.110	
91.00	-40.829	-75.829	
92.00	-41.008	-65.047	
93.00	-41.204	-57.247	
94.00	-41.269	-50.866	
95.00	-41.605	-39.065	
96.00	-41.847	-27.242	
97.00	-42.143	-18.477	
98.00	-42.292	-7.695	
99.00	-42.399	4.336	
100.00	-42.293	12.975	
101.00	-42.335	22.780	
102.00	-42.327	32.607	
103.00	-42.583	41.072	
104.00	-42.833	49.102	
105.00	-43.481	59.876	
106.00	-44.135	64.192	
107.00	-45.132	67.221	
108.00	-46.666	70.894	
109.00	-49.359	71.854	
110.00	-52.577	62.898	
111.00	-54.877	38.295	
112.00	-53.030	2.475	
113.00	-49.302	-12.333	
114.00	-46.283	-15.308	
115.00	-43.758	-11.206	
116.00	-42.069	-4.209	
117.00	-40.640	2.277	
118.00	-39.771	11.686	
119.00	-38.856	19.657	
120.00	-38.410	28.321	
121.00	-38.310	39.162	
122.00	-38.289	49.248	
123.00	-38.643	59.104	
124.00	-39.353	70.214	
125.00	-40.288	83.769	
126.00	-41.550	103.750	
127.00	-42.415	121.406	
128.00	-43.139	140.546	
129.00	-44.016	164.174	
130.00	-45.218	-176.416	
131.00	-46.341	-153.922	
132.00	-47.408	-123.854	
133.00	-48.430	-86.219	
134.00	-46.272	-52.134	
135.00	-43.751	-29.304	
136.00	-42.080	-12.655	
137.00	-40.768	0.307	
138.00	-40.172	10.056	
139.00	-40.234	24.226	
140.00	-40.344	40.017	
141.00	-40.812	55.088	
142.00	-41.263	70.231	
143.00	-42.443	83.820	
144.00	-44.117	100.701	
145.00	-46.843	124.309	
146.00	-49.700	164.435	
147.00	-48.314	-144.988	
148.00	-45.736	-114.376	
149.00	-44.346	-95.737	
150.00	-43.592	-75.336	
151.00	-43.696	-51.509	
152.00	-42.935	-27.780	
153.00	-41.728	-3.516	
154.00	-40.476	18.210	
155.00	-39.441	34.000	
156.00	-38.952	48.305	
157.00	-38.670	61.476	
158.00	-38.826	71.479	
159.00	-39.467	78.331	
160.00	-41.120	81.477	
161.00	-44.069	81.316	
162.00	-49.860	66.094	
163.00	-53.934	-19.672	
164.00	-46.717	-55.255	
165.00	-42.693	-61.539	
166.00	-40.840	-63.000	
167.00	-40.327	-65.976	
168.00	-41.111	-73.128	
169.00	-42.589	-93.923	
170.00	-41.978	-134.073	
171.00	-37.878	-162.943	
172.00	-33.913	-173.034	
173.00	-30.786	-179.383	
174.00	-28.303	178.101	
175.00	-26.223	179.347	
176.00	-24.529	179.543	
177.00	-23.193	176.649	
178.00	-22.167	178.589	
179.00	-21.463	-179.141	
180.00	-21.042	179.680	
181.00	-20.944	179.956	
182.00	-21.103	-177.806	
183.00	-21.566	-178.042	
184.00	-22.350	-179.920	
185.00	-23.555	-178.986	
186.00	-25.212	-176.377	
187.00	-27.385	-176.366	
188.00	-30.326	-175.485	
189.00	-34.139	-171.341	
190.00	-39.604	-164.379	
191.00	-47.421	-133.413	
192.00	-48.711	-62.795	
193.00	-45.103	-38.653	
194.00	-43.959	-39.601	
195.00	-45.644	-45.187	
196.00	-49.950	-65.495	
197.00	-53.539	-128.174	
198.00	-48.439	-179.921	
199.00	-45.434	162.111	
200.00	-44.070	149.999	
201.00	-43.881	133.577	
202.00	-43.884	119.268	
203.00	-44.108	97.275	
204.00	-43.682	73.692	
205.00	-43.267	57.855	
206.00	-42.701	41.219	
207.00	-42.475	24.298	
208.00	-43.257	14.830	
209.00	-44.549	0.447	
210.00	-47.209	-24.926	
211.00	-51.833	-56.836	
212.00	-50.837	-122.867	
213.00	-46.228	-152.817	
214.00	-43.073	-163.108	
215.00	-41.035	-168.604	
216.00	-40.290	-170.201	
217.00	-40.427	-171.921	
218.00	-41.492	-173.357	
219.00	-43.165	-169.094	
220.00	-45.926	-158.252	
221.00	-49.058	-133.608	
222.00	-50.116	-95.068	
223.00	-47.500	-66.025	
224.00	-44.898	-55.936	
225.00	-42.820	-52.136	
226.00	-41.639	-52.516	
227.00	-40.919	-53.957	
228.00	-40.972	-55.071	
229.00	-41.179	-57.782	
230.00	-41.548	-61.950	
231.00	-42.383	-62.244	
232.00	-43.052	-65.248	
233.00	-44.055	-66.484	
234.00	-44.703	-63.481	
235.00	-45.007	-62.186	
236.00	-44.297	-61.040	
237.00	-43.459	-57.440	
238.00	-42.448	-56.723	
239.00	-41.102	-62.106	
240.00	-39.860	-65.667	
241.00	-38.650	-67.805	
242.00	-37.766	-73.450	
243.00	-36.915	-80.012	
244.00	-36.320	-82.741	
245.00	-35.803	-88.702	
246.00	-35.560	-95.116	
247.00	-35.363	-100.366	
248.00	-35.518	-103.376	
249.00	-35.740	-109.071	
250.00	-36.288	-114.590	
251.00	-36.911	-119.829	
252.00	-37.738	-122.291	
253.00	-38.882	-127.294	
254.00	-40.640	-132.512	
255.00	-42.221	-135.696	
256.00	-44.723	-136.807	
257.00	-47.278	-138.584	
258.00	-50.029	-128.795	
259.00	-53.116	-114.108	
260.00	-52.495	-88.581	
261.00	-51.223	-79.898	
262.00	-49.381	-75.276	
263.00	-48.464	-81.499	
264.00	-47.516	-87.607	
265.00	-46.787	-100.300	
266.00	-46.045	-112.840	
267.00	-45.342	-124.560	
268.00	-44.766	-139.159	
269.00	-44.012	-153.644	
270.00	-43.375	-164.445	
271.00	-42.787	-177.276	
272.00	-42.232	170.205	
273.00	-41.787	161.291	
274.00	-41.468	150.061	
275.00	-41.220	137.700	
276.00	-41.133	127.759	
277.00	-41.126	119.017	
278.00	-41.340	110.302	
279.00	-41.536	102.680	
280.00	-41.938	97.442	
281.00	-42.396	91.156	
282.00	-43.003	85.231	
283.00	-43.640	80.662	
284.00	-44.269	75.762	
285.00	-44.982	69.249	
286.00	-45.753	63.700	
287.00	-46.878	61.748	
288.00	-48.506	56.317	
289.00	-50.839	48.877	
290.00	-54.330	42.231	
291.00	-61.396	41.296	
292.00	-71.032	-145.930	
293.00	-56.935	-151.153	
294.00	-52.605	-163.208	
295.00	-49.551	-170.992	
296.00	-47.955	-176.745	
297.00	-46.593	174.494	
298.00	-45.956	170.234	
299.00	-45.629	165.821	
300.00	-45.646	165.533	
301.00	-45.475	165.762	
302.00	-45.171	165.322	
303.00	-44.562	165.364	
304.00	-44.152	161.498	
305.00	-43.842	152.650	
306.00	-43.798	145.712	
307.00	-44.066	136.348	
308.00	-44.452	119.943	
309.00	-45.024	102.552	
310.00	-45.221	82.377	
311.00	-44.668	58.460	
312.00	-43.721	36.690	
313.00	-42.121	19.453	
314.00	-40.952	1.357	
315.00	-39.894	-14.240	
316.00	-39.217	-26.337	
317.00	-39.210	-39.568	
318.00	-39.556	-51.207	
319.00	-40.626	-58.785	
320.00	-42.687	-66.303	
321.00	-45.426	-72.369	
322.00	-49.529	-70.947	
323.00	-55.662	-43.111	
324.00	-56.066	13.125	
325.00	-53.160	42.237	
326.00	-49.920	46.277	
327.00	-49.947	50.584	
328.00	-51.923	49.384	
329.00	-57.844	46.374	
330.00	-62.672	-164.448	
331.00	-50.490	-164.729	
332.00	-45.031	-168.901	
333.00	-41.882	-170.669	
334.00	-39.903	-174.914	
335.00	-38.620	176.165	
336.00	-37.679	171.685	
337.00	-37.286	169.006	
338.00	-37.128	161.625	
339.00	-37.250	150.483	
340.00	-37.462	140.405	
341.00	-38.206	125.432	
342.00	-38.695	106.869	
343.00	-39.132	89.921	
344.00	-39.289	75.398	
345.00	-39.248	64.415	
346.00	-39.567	58.509	
347.00	-40.901	54.421	
348.00	-43.405	59.044	
349.00	-48.638	93.163	
350.00	-43.351	165.974	
351.00	-36.677	-179.687	
352.00	-32.100	-177.151	
353.00	-28.822	-179.119	
354.00	-26.401	-176.916	
355.00	-24.514	-177.688	
356.00	-23.038	179.941	
357.00	-21.987	-179.453	
358.00	-21.233	-178.710	
359.00	-20.843	-179.157	
Frequency	2450.00	MHz	
Channel	test		
Scan Axis name	Azimuth  [deg]		
Scan Axis	Amplitude	Phase	
			
0.00	-20.626	-153.273	
1.00	-20.912	-155.151	
2.00	-21.504	-152.408	
3.00	-22.387	-151.761	
4.00	-23.676	-154.321	
5.00	-25.436	-150.907	
6.00	-27.759	-149.295	
7.00	-30.904	-152.296	
8.00	-35.453	-148.276	
9.00	-43.200	-144.167	
10.00	-58.018	16.893	
11.00	-42.997	33.771	
12.00	-39.205	39.024	
13.00	-37.658	37.260	
14.00	-37.645	39.654	
15.00	-39.003	43.972	
16.00	-41.299	45.330	
17.00	-45.474	48.969	
18.00	-54.663	64.659	
19.00	-57.215	-152.012	
20.00	-48.488	-137.786	
21.00	-45.660	-132.942	
22.00	-44.358	-126.954	
23.00	-44.476	-125.093	
24.00	-45.674	-125.591	
25.00	-47.992	-118.258	
26.00	-52.282	-105.156	
27.00	-59.249	-65.637	
28.00	-56.256	4.260	
29.00	-52.604	23.191	
30.00	-50.983	22.880	
31.00	-50.719	23.722	
32.00	-52.530	19.250	
33.00	-54.474	3.715	
34.00	-56.859	-19.369	
35.00	-56.211	-57.952	
36.00	-53.211	-83.264	
37.00	-50.275	-95.103	
38.00	-48.703	-96.870	
39.00	-48.110	-99.731	
40.00	-47.977	-100.869	
41.00	-48.561	-106.189	
42.00	-49.390	-113.621	
43.00	-50.220	-122.661	
44.00	-50.166	-140.376	
45.00	-49.426	-148.670	
46.00	-48.865	-149.851	
47.00	-48.672	-156.149	
48.00	-48.995	-155.965	
49.00	-50.508	-151.647	
50.00	-52.368	-153.723	
51.00	-55.776	-166.412	
52.00	-60.870	165.498	
53.00	-58.620	104.732	
54.00	-53.223	85.111	
55.00	-50.134	87.999	
56.00	-47.548	93.566	
57.00	-45.988	94.941	
58.00	-44.961	100.186	
59.00	-44.616	106.122	
60.00	-44.102	111.025	
61.00	-43.799	112.962	
62.00	-43.911	116.580	
63.00	-44.434	120.258	
64.00	-44.490	119.751	
65.00	-44.415	117.164	
66.00	-44.842	120.112	
67.00	-44.894	118.905	
68.00	-44.483	115.732	
69.00	-44.289	118.109	
70.00	-44.628	121.244	
71.00	-44.815	121.914	
72.00	-44.779	127.630	
73.00	-44.391	137.953	
74.00	-44.177	139.214	
75.00	-44.781	146.471	
76.00	-44.410	158.007	
77.00	-44.151	165.813	
78.00	-43.761	171.510	
79.00	-43.914	-179.957	
80.00	-43.525	-173.125	
81.00	-43.167	-165.815	
82.00	-42.847	-158.663	
83.00	-42.418	-149.405	
84.00	-42.135	-142.942	
85.00	-41.805	-135.238	
86.00	-41.563	-128.341	
87.00	-41.416	-121.660	
88.00	-41.518	-115.082	
89.00	-41.398	-106.156	
90.00	-41.612	-99.406	
91.00	-41.625	-93.781	
92.00	-41.732	-83.177	
93.00	-41.940	-73.851	
94.00	-42.202	-66.550	
95.00	-42.520	-53.365	
96.00	-42.693	-41.043	
97.00	-43.225	-30.447	
98.00	-43.561	-17.650	
99.00	-43.594	-6.602	
100.00	-43.510	2.620	
101.00	-43.442	10.920	
102.00	-43.662	19.304	
103.00	-43.996	25.806	
104.00	-44.449	30.087	
105.00	-45.049	34.404	
106.00	-45.877	28.487	
107.00	-46.005	20.968	
108.00	-45.715	12.814	
109.00	-45.109	4.911	
110.00	-43.709	-0.335	
111.00	-42.017	-1.785	
112.00	-40.579	1.449	
113.00	-39.324	3.809	
114.00	-38.258	7.976	
115.00	-37.398	14.226	
116.00	-36.687	21.462	
117.00	-36.070	28.655	
118.00	-35.905	36.810	
119.00	-35.769	45.142	
120.00	-35.901	55.329	
121.00	-36.265	66.099	
122.00	-36.770	78.236	
123.00	-37.591	90.600	
124.00	-38.438	104.205	
125.00	-39.804	119.238	
126.00	-41.451	138.244	
127.00	-43.028	156.765	
128.00	-44.959	176.109	
129.00	-47.009	-152.763	
130.00	-49.467	-114.199	
131.00	-50.069	-70.441	
132.00	-47.563	-29.290	
133.00	-45.031	-1.458	
134.00	-42.505	17.494	
135.00	-40.771	32.303	
136.00	-39.567	45.936	
137.00	-38.788	58.383	
138.00	-38.546	67.969	
139.00	-38.558	78.646	
140.00	-39.101	89.665	
141.00	-40.172	98.024	
142.00	-41.579	106.937	
143.00	-43.645	117.184	
144.00	-46.058	131.595	
145.00	-48.597	158.942	
146.00	-50.051	-174.434	
147.00	-52.459	-155.389	
148.00	-52.493	-134.915	
149.00	-55.146	-125.247	
150.00	-58.916	-96.683	
151.00	-68.338	-78.789	
152.00	-68.910	27.458	
153.00	-60.677	88.719	
154.00	-55.292	110.512	
155.00	-52.534	114.125	
156.00	-49.323	120.501	
157.00	-48.029	126.831	
158.00	-46.638	128.594	
159.00	-46.364	125.126	
160.00	-46.402	122.553	
161.00	-46.515	121.399	
162.00	-46.711	116.868	
163.00	-46.334	109.830	
164.00	-46.569	103.152	
165.00	-46.590	98.193	
166.00	-46.622	101.406	
167.00	-47.567	110.839	
168.00	-49.803	136.138	
169.00	-47.648	-176.205	
170.00	-41.618	-150.114	
171.00	-36.851	-140.745	
172.00	-33.132	-134.339	
173.00	-30.040	-133.166	
174.00	-27.558	-132.542	
175.00	-25.572	-130.142	
176.00	-23.905	-130.163	
177.00	-22.548	-133.640	
178.00	-21.513	-132.676	
179.00	-20.814	-131.838	
180.00	-20.380	-134.430	
181.00	-20.224	-135.476	
182.00	-20.337	-134.653	
183.00	-20.720	-136.543	
184.00	-21.414	-139.749	
185.00	-22.458	-140.066	
186.00	-23.916	-138.801	
187.00	-25.850	-140.299	
188.00	-28.438	-141.066	
189.00	-31.989	-139.527	
190.00	-37.143	-137.963	
191.00	-45.889	-121.853	
192.00	-49.369	-1.567	
193.00	-43.665	16.748	
194.00	-41.778	25.872	
195.00	-42.224	35.900	
196.00	-44.075	52.008	
197.00	-46.168	91.137	
198.00	-43.486	128.374	
199.00	-40.367	146.452	
200.00	-38.040	155.145	
201.00	-36.750	154.731	
202.00	-36.090	154.924	
203.00	-36.125	149.382	
204.00	-36.570	140.933	
205.00	-37.323	134.891	
206.00	-38.530	122.030	
207.00	-39.597	106.207	
208.00	-40.623	96.820	
209.00	-41.703	86.162	
210.00	-43.584	74.846	
211.00	-46.839	77.099	
212.00	-52.111	94.535	
213.00	-51.769	171.089	
214.00	-45.632	-168.560	
215.00	-41.371	-161.802	
216.00	-38.890	-162.102	
217.00	-37.268	-164.525	
218.00	-36.427	-169.748	
219.00	-35.946	-171.648	
220.00	-36.063	-172.912	
221.00	-36.551	-177.373	
222.00	-37.754	179.827	
223.00	-39.281	177.278	
224.00	-41.567	174.389	
225.00	-44.115	172.851	
226.00	-47.055	172.065	
227.00	-50.644	-179.693	
228.00	-52.341	-170.040	
229.00	-53.137	-163.071	
230.00	-51.902	-160.774	
231.00	-49.354	-163.517	
232.00	-47.610	-174.206	
233.00	-45.421	175.584	
234.00	-44.564	172.003	
235.00	-43.377	164.763	
236.00	-43.034	158.264	
237.00	-43.341	155.812	
238.00	-43.903	152.343	
239.00	-45.414	150.905	
240.00	-47.511	156.958	
241.00	-49.926	173.523	
242.00	-51.128	-152.911	
243.00	-47.412	-139.442	
244.00	-44.483	-121.634	
245.00	-42.078	-123.337	
246.00	-39.920	-127.351	
247.00	-38.695	-129.972	
248.00	-37.621	-135.950	
249.00	-36.855	-141.272	
250.00	-36.394	-149.521	
251.00	-35.668	-155.727	
252.00	-35.718	-161.662	
253.00	-35.801	-169.708	
254.00	-35.969	-175.647	
255.00	-36.333	177.434	
256.00	-36.778	166.307	
257.00	-37.229	156.909	
258.00	-37.810	150.749	
259.00	-38.553	143.089	
260.00	-39.165	134.753	
261.00	-40.024	128.504	
262.00	-41.162	122.171	
263.00	-42.214	118.293	
264.00	-43.486	118.551	
265.00	-44.687	117.250	
266.00	-46.095	121.447	
267.00	-46.783	133.431	
268.00	-47.064	144.635	
269.00	-46.313	153.794	
270.00	-45.274	161.974	
271.00	-44.039	164.939	
272.00	-43.206	165.746	
273.00	-42.044	167.034	
274.00	-41.330	166.049	
275.00	-40.619	161.307	
276.00	-39.974	159.052	
277.00	-39.528	156.389	
278.00	-38.987	152.512	
279.00	-38.487	149.291	
280.00	-38.261	146.598	
281.00	-37.975	142.942	
282.00	-37.869	137.518	
283.00	-38.017	133.192	
284.00	-38.391	126.547	
285.00	-38.831	118.645	
286.00	-39.723	112.603	
287.00	-40.847	109.893	
288.00	-42.498	107.389	
289.00	-44.591	109.750	
290.00	-46.550	122.480	
291.00	-46.951	146.306	
292.00	-45.308	160.605	
293.00	-43.360	164.289	
294.00	-41.701	164.513	
295.00	-40.532	160.578	
296.00	-40.075	158.566	
297.00	-40.082	154.396	
298.00	-40.172	153.146	
299.00	-40.573	156.270	
300.00	-40.613	162.262	
301.00	-39.966	166.110	
302.00	-38.860	167.181	
303.00	-37.958	166.826	
304.00	-37.299	161.507	
305.00	-37.119	151.823	
306.00	-37.238	144.478	
307.00	-37.945	137.204	
308.00	-39.057	126.510	
309.00	-40.589	118.972	
310.00	-42.507	109.626	
311.00	-44.597	97.138	
312.00	-46.599	78.811	
313.00	-48.046	52.877	
314.00	-47.386	20.070	
315.00	-45.662	-7.382	
316.00	-44.250	-24.310	
317.00	-43.469	-38.645	
318.00	-43.655	-50.804	
319.00	-44.789	-55.780	
320.00	-46.551	-59.628	
321.00	-49.208	-56.097	
322.00	-51.523	-50.039	
323.00	-53.313	-34.772	
324.00	-57.986	-34.503	
325.00	-89.718	162.878	
326.00	-58.023	142.421	
327.00	-51.549	139.982	
328.00	-49.522	141.688	
329.00	-48.523	155.888	
330.00	-46.603	173.780	
331.00	-44.129	-171.615	
332.00	-41.495	-166.885	
333.00	-39.523	-164.029	
334.00	-38.486	-164.398	
335.00	-37.659	-165.687	
336.00	-37.262	-167.567	
337.00	-37.369	-166.857	
338.00	-37.939	-171.243	
339.00	-38.835	-178.433	
340.00	-40.234	175.713	
341.00	-42.196	159.348	
342.00	-43.640	131.836	
343.00	-43.123	101.654	
344.00	-41.575	83.006	
345.00	-39.984	70.281	
346.00	-39.019	63.651	
347.00	-38.954	58.045	
348.00	-40.860	52.145	
349.00	-47.074	45.772	
350.00	-51.481	-132.862	
351.00	-38.526	-136.564	
352.00	-32.860	-140.504	
353.00	-29.155	-145.586	
354.00	-26.538	-144.868	
355.00	-24.491	-146.974	
356.00	-22.959	-150.112	
357.00	-21.872	-149.693	
358.00	-21.139	-149.011	
359.00	-20.777	-149.160	
Frequency	2500.00	MHz	
Channel	test		
Scan Axis name	Azimuth  [deg]		
Scan Axis	Amplitude	Phase	
			
0.00	-21.159	-125.216	
1.00	-21.361	-127.168	
2.00	-21.934	-124.260	
3.00	-22.910	-123.282	
4.00	-24.291	-125.072	
5.00	-26.145	-119.869	
6.00	-28.564	-115.564	
7.00	-31.528	-114.917	
8.00	-35.674	-103.507	
9.00	-41.945	-81.123	
10.00	-46.505	-17.581	
11.00	-42.142	28.958	
12.00	-39.802	42.573	
13.00	-39.482	45.439	
14.00	-40.849	51.717	
15.00	-43.496	66.547	
16.00	-47.985	91.398	
17.00	-49.120	147.184	
18.00	-45.210	-173.080	
19.00	-41.929	-158.133	
20.00	-39.841	-153.325	
21.00	-39.105	-151.511	
22.00	-39.031	-147.144	
23.00	-39.749	-148.610	
24.00	-41.203	-152.606	
25.00	-43.772	-151.728	
26.00	-47.641	-148.851	
27.00	-55.238	-147.423	
28.00	-68.951	-41.065	
29.00	-54.224	27.384	
30.00	-51.371	32.297	
31.00	-50.365	30.138	
32.00	-51.293	26.333	
33.00	-54.092	4.266	
34.00	-52.570	-34.378	
35.00	-49.169	-60.911	
36.00	-46.034	-69.471	
37.00	-43.648	-73.827	
38.00	-42.603	-79.448	
39.00	-42.037	-79.981	
40.00	-42.068	-78.547	
41.00	-42.873	-76.433	
42.00	-44.485	-74.795	
43.00	-47.296	-76.006	
44.00	-51.331	-91.214	
45.00	-54.565	-142.130	
46.00	-50.225	-173.741	
47.00	-46.098	177.764	
48.00	-43.438	175.087	
49.00	-42.018	-178.325	
50.00	-41.018	-179.097	
51.00	-40.861	-179.786	
52.00	-41.165	-176.133	
53.00	-41.398	179.923	
54.00	-41.686	171.762	
55.00	-41.980	166.590	
56.00	-41.621	158.664	
57.00	-41.168	148.193	
58.00	-40.497	144.891	
59.00	-40.026	142.110	
60.00	-39.881	139.861	
61.00	-39.264	135.041	
62.00	-39.288	135.650	
63.00	-39.435	135.387	
64.00	-39.305	130.451	
65.00	-39.833	135.366	
66.00	-40.204	135.686	
67.00	-40.610	130.640	
68.00	-41.042	131.579	
69.00	-41.796	137.010	
70.00	-42.287	128.584	
71.00	-42.950	130.851	
72.00	-43.602	127.577	
73.00	-43.126	129.362	
74.00	-45.030	120.917	
75.00	-44.241	124.493	
76.00	-44.657	128.625	
77.00	-44.478	134.246	
78.00	-43.258	133.025	
79.00	-44.018	144.319	
80.00	-42.880	154.809	
81.00	-43.075	154.831	
82.00	-42.499	165.089	
83.00	-42.409	169.133	
84.00	-41.840	-176.977	
85.00	-41.866	-172.886	
86.00	-41.755	-166.069	
87.00	-41.051	-152.872	
88.00	-41.111	-142.050	
89.00	-41.101	-130.458	
90.00	-40.646	-122.334	
91.00	-40.621	-112.789	
92.00	-40.223	-99.917	
93.00	-40.166	-90.471	
94.00	-39.980	-80.885	
95.00	-39.660	-67.897	
96.00	-39.668	-56.176	
97.00	-39.649	-45.237	
98.00	-39.367	-33.292	
99.00	-39.412	-23.679	
100.00	-40.410	-14.708	
101.00	-39.784	-8.910	
102.00	-40.484	2.098	
103.00	-41.617	6.480	
104.00	-42.004	19.296	
105.00	-42.325	18.442	
106.00	-45.452	29.637	
107.00	-48.081	10.466	
108.00	-46.191	-20.814	
109.00	-49.496	-36.993	
110.00	-44.147	-40.356	
111.00	-42.632	-37.224	
112.00	-40.155	-41.611	
113.00	-39.132	-29.770	
114.00	-38.101	-21.433	
115.00	-37.904	-12.610	
116.00	-36.836	2.225	
117.00	-36.903	11.496	
118.00	-36.348	24.186	
119.00	-36.925	33.155	
120.00	-37.721	49.853	
121.00	-37.007	70.644	
122.00	-37.895	89.751	
123.00	-38.187	110.000	
124.00	-38.405	129.938	
125.00	-39.243	155.664	
126.00	-39.100	178.891	
127.00	-38.590	-159.874	
128.00	-38.508	-140.411	
129.00	-38.005	-117.486	
130.00	-38.209	-96.197	
131.00	-38.065	-75.806	
132.00	-38.491	-54.237	
133.00	-38.396	-29.376	
134.00	-37.963	-4.005	
135.00	-36.857	18.159	
136.00	-35.714	36.973	
137.00	-35.215	53.283	
138.00	-34.898	67.279	
139.00	-34.994	80.433	
140.00	-35.375	96.702	
141.00	-36.123	110.074	
142.00	-37.329	120.995	
143.00	-39.121	133.792	
144.00	-41.743	145.241	
145.00	-46.010	158.073	
146.00	-56.130	-179.698	
147.00	-55.977	-42.390	
148.00	-48.712	-18.860	
149.00	-45.941	-5.613	
150.00	-45.037	7.595	
151.00	-46.073	24.930	
152.00	-47.862	41.346	
153.00	-49.973	77.601	
154.00	-49.239	130.010	
155.00	-46.440	160.727	
156.00	-44.267	-177.597	
157.00	-42.341	-162.531	
158.00	-41.857	-149.405	
159.00	-42.215	-138.178	
160.00	-43.673	-127.314	
161.00	-46.744	-108.649	
162.00	-50.687	-68.080	
163.00	-49.603	2.060	
164.00	-44.286	27.430	
165.00	-40.835	43.122	
166.00	-38.783	52.254	
167.00	-38.166	57.384	
168.00	-39.045	60.780	
169.00	-41.415	62.273	
170.00	-48.250	36.686	
171.00	-45.006	-69.054	
172.00	-36.343	-83.744	
173.00	-31.416	-87.563	
174.00	-28.069	-88.240	
175.00	-25.590	-85.545	
176.00	-23.815	-85.352	
177.00	-22.505	-88.148	
178.00	-21.513	-85.912	
179.00	-20.934	-84.115	
180.00	-20.694	-86.233	
181.00	-20.766	-86.776	
182.00	-21.111	-85.545	
183.00	-21.801	-87.315	
184.00	-22.768	-90.493	
185.00	-24.135	-90.538	
186.00	-25.915	-89.382	
187.00	-28.248	-90.621	
188.00	-31.288	-90.004	
189.00	-35.481	-83.464	
190.00	-42.115	-63.295	
191.00	-44.965	5.102	
192.00	-39.944	38.975	
193.00	-37.532	44.821	
194.00	-36.647	48.303	
195.00	-36.625	49.676	
196.00	-37.557	49.877	
197.00	-39.474	53.394	
198.00	-43.104	59.202	
199.00	-48.156	88.767	
200.00	-47.101	143.994	
201.00	-43.179	163.417	
202.00	-40.629	170.454	
203.00	-39.098	169.430	
204.00	-38.936	161.310	
205.00	-38.921	155.121	
206.00	-39.955	139.687	
207.00	-40.784	118.467	
208.00	-41.131	98.024	
209.00	-40.345	74.247	
210.00	-40.240	55.257	
211.00	-39.842	39.745	
212.00	-41.239	31.487	
213.00	-42.958	11.734	
214.00	-46.703	-9.360	
215.00	-49.427	-62.382	
216.00	-46.335	-113.743	
217.00	-41.873	-139.210	
218.00	-39.751	-153.409	
219.00	-38.413	-162.109	
220.00	-38.181	-169.185	
221.00	-38.426	-177.793	
222.00	-39.718	170.617	
223.00	-41.939	155.545	
224.00	-44.493	131.602	
225.00	-45.050	91.965	
226.00	-43.443	61.806	
227.00	-41.736	42.269	
228.00	-40.548	34.975	
229.00	-40.363	27.131	
230.00	-41.109	24.395	
231.00	-42.354	28.876	
232.00	-44.342	38.448	
233.00	-44.869	57.752	
234.00	-44.191	81.054	
235.00	-42.106	94.060	
236.00	-40.263	95.214	
237.00	-38.914	99.489	
238.00	-37.741	97.784	
239.00	-37.473	89.898	
240.00	-37.234	87.527	
241.00	-37.588	86.604	
242.00	-38.735	79.075	
243.00	-39.913	72.947	
244.00	-42.303	71.912	
245.00	-45.297	64.344	
246.00	-50.355	60.983	
247.00	-58.115	114.004	
248.00	-51.231	-160.597	
249.00	-46.146	-162.706	
250.00	-42.593	-160.814	
251.00	-40.378	-169.972	
252.00	-39.014	-175.283	
253.00	-37.619	177.249	
254.00	-37.187	168.984	
255.00	-36.937	160.859	
256.00	-36.434	151.893	
257.00	-35.935	143.003	
258.00	-35.896	135.248	
259.00	-35.559	125.472	
260.00	-35.688	115.882	
261.00	-35.609	108.404	
262.00	-35.829	99.509	
263.00	-36.122	92.035	
264.00	-36.355	86.781	
265.00	-36.888	79.726	
266.00	-37.641	73.306	
267.00	-38.488	71.131	
268.00	-39.724	67.070	
269.00	-41.048	65.371	
270.00	-43.090	71.011	
271.00	-45.110	83.803	
272.00	-45.790	102.624	
273.00	-45.054	125.229	
274.00	-42.907	136.501	
275.00	-40.879	140.079	
276.00	-38.799	140.608	
277.00	-37.254	138.712	
278.00	-35.874	133.130	
279.00	-34.880	127.835	
280.00	-34.116	124.674	
281.00	-33.471	119.196	
282.00	-33.153	111.207	
283.00	-32.959	107.387	
284.00	-33.032	101.837	
285.00	-33.235	93.091	
286.00	-33.834	87.092	
287.00	-34.705	85.746	
288.00	-35.604	80.453	
289.00	-36.781	80.040	
290.00	-38.374	86.904	
291.00	-39.031	93.467	
292.00	-38.939	105.188	
293.00	-38.638	109.383	
294.00	-37.767	110.697	
295.00	-37.705	109.942	
296.00	-37.941	109.672	
297.00	-38.735	107.918	
298.00	-39.920	109.866	
299.00	-41.238	120.720	
300.00	-41.314	136.151	
301.00	-40.169	145.843	
302.00	-38.484	148.444	
303.00	-37.311	147.627	
304.00	-37.069	141.679	
305.00	-37.294	132.621	
306.00	-38.058	127.559	
307.00	-39.546	122.156	
308.00	-41.322	116.535	
309.00	-43.521	117.214	
310.00	-45.026	117.374	
311.00	-46.063	109.296	
312.00	-46.541	93.274	
313.00	-47.087	70.773	
314.00	-46.149	37.494	
315.00	-45.363	12.365	
316.00	-44.135	-2.323	
317.00	-43.978	-16.934	
318.00	-44.900	-21.474	
319.00	-45.689	-19.609	
320.00	-45.914	-14.153	
321.00	-48.135	-11.142	
322.00	-50.019	-5.424	
323.00	-54.835	28.865	
324.00	-51.575	104.520	
325.00	-45.240	112.369	
326.00	-42.551	111.390	
327.00	-40.840	106.048	
328.00	-40.399	101.493	
329.00	-41.153	103.513	
330.00	-42.087	109.330	
331.00	-43.617	110.696	
332.00	-45.353	116.601	
333.00	-49.933	131.448	
334.00	-55.739	-155.575	
335.00	-47.748	-116.729	
336.00	-42.701	-100.287	
337.00	-40.377	-98.185	
338.00	-39.835	-105.765	
339.00	-40.216	-106.754	
340.00	-41.684	-106.613	
341.00	-45.127	-108.652	
342.00	-55.241	-119.132	
343.00	-51.789	81.959	
344.00	-42.576	70.180	
345.00	-38.495	67.056	
346.00	-36.697	61.573	
347.00	-35.916	52.655	
348.00	-37.141	42.700	
349.00	-40.530	25.669	
350.00	-44.241	-30.640	
351.00	-38.956	-83.688	
352.00	-33.426	-103.928	
353.00	-29.638	-113.520	
354.00	-26.904	-114.667	
355.00	-24.831	-119.077	
356.00	-23.314	-122.419	
357.00	-22.315	-122.204	
358.00	-21.595	-121.041	
359.00	-21.285	-120.777	
Frequency	2550.00	MHz	
Channel	test		
Scan Axis name	Azimuth  [deg]		
Scan Axis	Amplitude	Phase	
			
0.00	-21.189	-96.379	
1.00	-21.445	-97.523	
2.00	-22.041	-93.475	
3.00	-22.948	-91.556	
4.00	-24.179	-91.758	
5.00	-25.874	-85.681	
6.00	-28.146	-81.488	
7.00	-31.157	-80.048	
8.00	-35.389	-69.086	
9.00	-41.155	-47.375	
10.00	-45.113	9.579	
11.00	-42.364	58.576	
12.00	-40.246	77.230	
13.00	-39.270	87.900	
14.00	-39.383	100.404	
15.00	-40.561	116.496	
16.00	-41.720	130.410	
17.00	-43.053	147.262	
18.00	-43.697	170.896	
19.00	-43.165	-166.280	
20.00	-42.498	-151.476	
21.00	-41.641	-137.879	
22.00	-41.421	-124.039	
23.00	-41.493	-115.429	
24.00	-41.739	-112.286	
25.00	-42.386	-109.180	
26.00	-42.720	-109.956	
27.00	-43.329	-115.984	
28.00	-43.866	-118.272	
29.00	-44.960	-119.408	
30.00	-46.689	-125.036	
31.00	-48.428	-134.671	
32.00	-49.586	-143.301	
33.00	-49.857	-153.773	
34.00	-49.660	-157.389	
35.00	-50.243	-153.093	
36.00	-51.521	-141.407	
37.00	-53.520	-124.472	
38.00	-54.514	-99.773	
39.00	-53.184	-71.718	
40.00	-50.373	-54.368	
41.00	-48.325	-42.629	
42.00	-46.462	-31.137	
43.00	-45.624	-23.349	
44.00	-45.751	-16.244	
45.00	-47.062	-5.983	
46.00	-49.113	1.623	
47.00	-53.861	-0.354	
48.00	-58.037	-29.376	
49.00	-56.095	-64.380	
50.00	-53.843	-72.142	
51.00	-52.820	-63.152	
52.00	-52.596	-39.632	
53.00	-52.968	-16.593	
54.00	-52.932	12.138	
55.00	-51.406	35.921	
56.00	-49.647	49.960	
57.00	-48.282	52.149	
58.00	-46.754	56.854	
59.00	-45.195	58.843	
60.00	-43.913	60.170	
61.00	-42.768	62.212	
62.00	-41.983	67.212	
63.00	-41.231	72.322	
64.00	-41.176	75.051	
65.00	-41.237	81.444	
66.00	-41.713	89.637	
67.00	-42.051	92.540	
68.00	-43.038	98.324	
69.00	-44.304	107.054	
70.00	-45.646	114.019	
71.00	-46.780	119.519	
72.00	-48.153	127.947	
73.00	-49.640	137.845	
74.00	-50.339	142.982	
75.00	-51.145	152.434	
76.00	-51.518	158.645	
77.00	-50.991	164.934	
78.00	-51.055	169.360	
79.00	-50.428	173.566	
80.00	-50.327	173.757	
81.00	-49.763	169.744	
82.00	-48.826	171.684	
83.00	-47.942	170.906	
84.00	-46.817	170.931	
85.00	-45.569	173.888	
86.00	-44.905	178.111	
87.00	-44.012	-176.759	
88.00	-43.075	-171.069	
89.00	-42.640	-162.592	
90.00	-41.938	-156.315	
91.00	-41.360	-147.290	
92.00	-40.881	-136.114	
93.00	-40.346	-127.392	
94.00	-40.064	-119.993	
95.00	-39.856	-106.367	
96.00	-39.479	-95.406	
97.00	-39.373	-86.735	
98.00	-39.328	-74.325	
99.00	-39.366	-63.089	
100.00	-39.378	-57.289	
101.00	-39.685	-50.218	
102.00	-39.836	-39.545	
103.00	-40.372	-31.337	
104.00	-40.811	-24.080	
105.00	-41.372	-15.123	
106.00	-42.138	-10.557	
107.00	-43.154	-11.064	
108.00	-43.975	-10.960	
109.00	-44.919	-11.603	
110.00	-45.009	-15.716	
111.00	-45.122	-20.802	
112.00	-44.867	-20.087	
113.00	-44.743	-18.439	
114.00	-44.427	-11.660	
115.00	-45.211	-0.309	
116.00	-45.510	18.973	
117.00	-45.747	40.318	
118.00	-45.019	66.888	
119.00	-43.193	88.414	
120.00	-41.337	106.259	
121.00	-39.640	121.250	
122.00	-38.260	133.648	
123.00	-37.396	145.614	
124.00	-36.857	156.292	
125.00	-36.432	171.013	
126.00	-36.106	-171.213	
127.00	-35.895	-157.071	
128.00	-35.733	-144.356	
129.00	-35.886	-127.583	
130.00	-36.309	-112.190	
131.00	-37.285	-99.278	
132.00	-38.427	-81.651	
133.00	-40.082	-58.228	
134.00	-41.168	-25.212	
135.00	-40.707	6.230	
136.00	-39.346	34.323	
137.00	-38.033	55.283	
138.00	-37.209	72.129	
139.00	-36.503	88.356	
140.00	-36.153	104.641	
141.00	-36.005	117.784	
142.00	-36.426	129.281	
143.00	-37.337	141.380	
144.00	-39.148	153.471	
145.00	-41.729	169.229	
146.00	-44.462	-169.237	
147.00	-46.638	-137.670	
148.00	-47.439	-110.189	
149.00	-49.010	-89.310	
150.00	-52.430	-68.950	
151.00	-59.483	-26.421	
152.00	-61.561	67.648	
153.00	-53.904	119.676	
154.00	-49.355	147.373	
155.00	-46.431	161.823	
156.00	-44.513	173.944	
157.00	-43.596	-175.743	
158.00	-43.710	-165.178	
159.00	-44.371	-152.523	
160.00	-45.691	-136.910	
161.00	-47.076	-115.850	
162.00	-49.086	-95.245	
163.00	-52.783	-61.987	
164.00	-52.868	8.997	
165.00	-47.041	46.519	
166.00	-43.274	59.936	
167.00	-41.292	65.019	
168.00	-40.391	66.888	
169.00	-40.721	63.057	
170.00	-41.608	45.676	
171.00	-41.262	13.596	
172.00	-37.369	-15.116	
173.00	-32.972	-32.060	
174.00	-29.509	-40.272	
175.00	-26.724	-41.487	
176.00	-24.641	-43.193	
177.00	-23.024	-46.767	
178.00	-21.826	-44.802	
179.00	-21.051	-42.899	
180.00	-20.636	-44.689	
181.00	-20.586	-44.512	
182.00	-20.918	-42.350	
183.00	-21.571	-42.920	
184.00	-22.631	-44.904	
185.00	-24.166	-43.310	
186.00	-26.236	-40.444	
187.00	-28.952	-39.595	
188.00	-32.524	-35.574	
189.00	-37.327	-22.068	
190.00	-42.342	13.693	
191.00	-41.678	58.655	
192.00	-39.197	73.051	
193.00	-38.091	73.318	
194.00	-37.887	67.842	
195.00	-38.456	56.240	
196.00	-39.277	37.554	
197.00	-40.217	16.109	
198.00	-40.258	-10.378	
199.00	-40.017	-32.111	
200.00	-39.675	-50.067	
201.00	-39.968	-67.545	
202.00	-40.899	-82.833	
203.00	-42.265	-102.805	
204.00	-43.542	-128.886	
205.00	-44.855	-154.089	
206.00	-45.563	172.577	
207.00	-45.648	137.092	
208.00	-44.991	112.046	
209.00	-44.349	86.098	
210.00	-43.846	60.723	
211.00	-44.638	37.979	
212.00	-45.393	7.735	
213.00	-44.574	-27.765	
214.00	-42.887	-57.271	
215.00	-40.901	-76.523	
216.00	-39.442	-92.024	
217.00	-38.362	-103.654	
218.00	-37.853	-116.807	
219.00	-37.736	-125.513	
220.00	-38.113	-130.644	
221.00	-39.323	-134.149	
222.00	-41.591	-136.100	
223.00	-45.484	-121.262	
224.00	-48.840	-79.390	
225.00	-45.403	-34.659	
226.00	-41.427	-24.487	
227.00	-39.235	-22.229	
228.00	-38.030	-24.163	
229.00	-37.637	-29.092	
230.00	-37.950	-34.632	
231.00	-38.758	-40.842	
232.00	-40.217	-50.521	
233.00	-42.421	-60.675	
234.00	-44.815	-68.807	
235.00	-49.139	-86.904	
236.00	-57.698	-114.493	
237.00	-57.102	128.736	
238.00	-50.253	99.386	
239.00	-46.452	80.035	
240.00	-44.629	68.569	
241.00	-43.564	61.025	
242.00	-43.132	45.489	
243.00	-43.206	31.372	
244.00	-43.505	18.458	
245.00	-44.052	-0.584	
246.00	-44.313	-20.538	
247.00	-44.225	-38.929	
248.00	-43.943	-57.186	
249.00	-43.522	-73.388	
250.00	-43.095	-87.518	
251.00	-43.110	-99.165	
252.00	-43.406	-109.476	
253.00	-44.230	-120.451	
254.00	-45.626	-133.037	
255.00	-47.102	-147.794	
256.00	-49.110	-173.788	
257.00	-49.369	156.677	
258.00	-48.415	128.640	
259.00	-46.407	106.497	
260.00	-44.554	90.277	
261.00	-43.085	80.620	
262.00	-41.767	71.138	
263.00	-40.953	65.414	
264.00	-40.415	60.989	
265.00	-40.062	54.131	
266.00	-39.982	48.553	
267.00	-40.030	46.169	
268.00	-40.493	39.323	
269.00	-41.097	34.006	
270.00	-41.941	32.568	
271.00	-43.320	27.967	
272.00	-44.795	25.430	
273.00	-46.997	26.061	
274.00	-49.838	28.217	
275.00	-53.513	43.535	
276.00	-54.606	77.525	
277.00	-51.833	102.478	
278.00	-48.687	105.577	
279.00	-46.766	104.851	
280.00	-45.535	102.780	
281.00	-44.666	97.818	
282.00	-44.339	91.396	
283.00	-44.555	85.676	
284.00	-45.172	79.455	
285.00	-46.278	73.653	
286.00	-48.143	74.570	
287.00	-50.510	86.938	
288.00	-50.902	108.346	
289.00	-48.758	126.304	
290.00	-45.945	134.153	
291.00	-43.753	132.577	
292.00	-42.238	125.604	
293.00	-41.330	115.365	
294.00	-41.222	105.259	
295.00	-41.704	96.255	
296.00	-42.919	88.371	
297.00	-45.010	82.591	
298.00	-48.140	86.850	
299.00	-50.600	111.387	
300.00	-48.952	137.204	
301.00	-45.948	141.075	
302.00	-43.874	135.241	
303.00	-42.833	127.567	
304.00	-42.533	115.140	
305.00	-43.042	101.826	
306.00	-43.813	93.083	
307.00	-45.269	85.917	
308.00	-46.441	76.925	
309.00	-47.503	71.468	
310.00	-47.868	62.809	
311.00	-47.533	50.079	
312.00	-46.581	37.330	
313.00	-46.022	26.031	
314.00	-45.495	13.936	
315.00	-45.098	6.767	
316.00	-44.970	7.526	
317.00	-44.240	9.656	
318.00	-43.110	10.760	
319.00	-42.179	10.265	
320.00	-41.530	3.253	
321.00	-41.532	-4.806	
322.00	-42.269	-12.938	
323.00	-43.830	-20.642	
324.00	-45.991	-30.200	
325.00	-48.848	-41.196	
326.00	-52.016	-60.127	
327.00	-53.913	-99.183	
328.00	-51.128	-135.370	
329.00	-47.632	-155.948	
330.00	-46.654	-160.970	
331.00	-47.179	-170.184	
332.00	-50.069	-159.747	
333.00	-51.674	-117.137	
334.00	-46.781	-72.257	
335.00	-42.424	-69.827	
336.00	-39.512	-71.322	
337.00	-37.613	-71.397	
338.00	-36.566	-73.270	
339.00	-36.214	-79.118	
340.00	-36.546	-81.444	
341.00	-37.551	-86.375	
342.00	-39.610	-95.316	
343.00	-43.867	-103.106	
344.00	-52.219	-106.937	
345.00	-58.660	67.602	
346.00	-48.897	56.843	
347.00	-46.357	43.216	
348.00	-47.659	27.350	
349.00	-48.109	-22.950	
350.00	-42.256	-67.119	
351.00	-36.514	-79.264	
352.00	-32.399	-86.468	
353.00	-29.285	-92.585	
354.00	-26.937	-92.104	
355.00	-25.093	-94.337	
356.00	-23.641	-96.418	
357.00	-22.568	-94.850	
358.00	-21.784	-92.766	
359.00	-21.394	-92.084	
Frequency	2600.00	MHz	
Channel	test		
Scan Axis name	Azimuth  [deg]		
Scan Axis	Amplitude	Phase	
			
0.00	-22.185	-63.557	
1.00	-22.336	-65.248	
2.00	-22.862	-61.574	
3.00	-23.722	-60.476	
4.00	-24.984	-61.274	
5.00	-26.714	-54.982	
6.00	-28.927	-49.603	
7.00	-31.708	-45.266	
8.00	-35.087	-29.800	
9.00	-38.788	-8.779	
10.00	-41.781	21.142	
11.00	-42.654	59.797	
12.00	-42.248	87.100	
13.00	-41.879	105.264	
14.00	-42.113	124.431	
15.00	-42.460	145.639	
16.00	-42.699	163.115	
17.00	-42.540	-179.257	
18.00	-42.160	-159.288	
19.00	-41.792	-144.949	
20.00	-41.554	-138.755	
21.00	-41.324	-133.362	
22.00	-41.472	-127.070	
23.00	-41.462	-125.617	
24.00	-41.913	-127.405	
25.00	-42.364	-126.105	
26.00	-43.039	-124.172	
27.00	-43.793	-126.006	
28.00	-44.350	-121.053	
29.00	-44.790	-112.683	
30.00	-45.238	-101.109	
31.00	-45.510	-88.382	
32.00	-45.943	-74.954	
33.00	-45.412	-65.967	
34.00	-44.868	-63.979	
35.00	-44.273	-58.743	
36.00	-43.853	-55.633	
37.00	-43.466	-58.141	
38.00	-43.326	-60.644	
39.00	-43.365	-62.238	
40.00	-43.556	-67.396	
41.00	-43.790	-72.306	
42.00	-43.831	-75.017	
43.00	-44.564	-80.236	
44.00	-44.952	-89.826	
45.00	-45.564	-99.642	
46.00	-45.355	-108.232	
47.00	-44.582	-123.485	
48.00	-43.276	-126.897	
49.00	-42.116	-121.235	
50.00	-41.938	-117.850	
51.00	-42.015	-110.233	
52.00	-42.312	-94.572	
53.00	-43.187	-81.008	
54.00	-43.735	-65.007	
55.00	-43.715	-43.474	
56.00	-43.326	-25.198	
57.00	-42.494	-12.985	
58.00	-41.482	0.943	
59.00	-40.547	12.553	
60.00	-39.562	20.375	
61.00	-38.948	26.945	
62.00	-38.432	36.442	
63.00	-38.077	44.786	
64.00	-37.989	49.869	
65.00	-38.140	57.273	
66.00	-38.346	66.713	
67.00	-38.664	71.799	
68.00	-39.262	76.159	
69.00	-39.986	83.911	
70.00	-40.816	87.391	
71.00	-41.681	90.285	
72.00	-42.684	96.964	
73.00	-43.638	99.791	
74.00	-44.613	100.443	
75.00	-45.374	104.033	
76.00	-46.236	107.380	
77.00	-46.902	107.222	
78.00	-47.398	108.022	
79.00	-47.835	112.655	
80.00	-48.037	113.836	
81.00	-48.247	116.431	
82.00	-48.258	122.857	
83.00	-48.396	130.304	
84.00	-48.145	139.599	
85.00	-47.624	150.143	
86.00	-47.699	161.241	
87.00	-47.506	174.963	
88.00	-46.602	-170.835	
89.00	-45.915	-154.612	
90.00	-44.982	-142.345	
91.00	-43.871	-130.585	
92.00	-42.914	-116.666	
93.00	-41.995	-106.132	
94.00	-41.199	-98.043	
95.00	-40.630	-85.262	
96.00	-40.237	-74.357	
97.00	-39.913	-65.447	
98.00	-39.817	-54.092	
99.00	-39.891	-43.023	
100.00	-40.009	-37.245	
101.00	-40.263	-29.810	
102.00	-40.795	-20.175	
103.00	-41.440	-12.759	
104.00	-42.327	-6.001	
105.00	-43.477	1.704	
106.00	-45.160	4.667	
107.00	-46.892	-0.269	
108.00	-48.585	-8.870	
109.00	-49.526	-20.464	
110.00	-48.830	-35.482	
111.00	-47.517	-42.348	
112.00	-46.177	-42.261	
113.00	-45.792	-39.868	
114.00	-45.304	-33.313	
115.00	-45.842	-24.421	
116.00	-46.619	-13.098	
117.00	-48.088	3.444	
118.00	-49.946	26.131	
119.00	-50.784	57.768	
120.00	-49.809	90.401	
121.00	-48.533	117.557	
122.00	-47.151	138.721	
123.00	-46.276	161.124	
124.00	-45.333	179.697	
125.00	-44.223	-159.682	
126.00	-43.036	-140.351	
127.00	-41.983	-125.438	
128.00	-41.515	-114.090	
129.00	-41.264	-100.338	
130.00	-41.532	-86.805	
131.00	-42.560	-73.684	
132.00	-43.959	-53.318	
133.00	-44.760	-23.823	
134.00	-44.138	6.552	
135.00	-42.849	32.558	
136.00	-41.385	52.428	
137.00	-40.445	66.835	
138.00	-39.978	78.241	
139.00	-40.036	88.914	
140.00	-40.539	100.968	
141.00	-41.770	109.871	
142.00	-43.622	119.823	
143.00	-46.602	131.861	
144.00	-51.046	152.549	
145.00	-56.600	-154.257	
146.00	-55.443	-92.721	
147.00	-53.860	-66.402	
148.00	-53.798	-41.448	
149.00	-54.456	-8.021	
150.00	-54.079	34.295	
151.00	-52.552	72.777	
152.00	-49.712	96.773	
153.00	-48.626	111.645	
154.00	-46.729	126.814	
155.00	-46.405	140.860	
156.00	-46.501	147.946	
157.00	-48.104	158.378	
158.00	-50.256	179.066	
159.00	-52.177	-151.294	
160.00	-53.136	-134.437	
161.00	-52.232	-131.714	
162.00	-53.465	-144.083	
163.00	-51.753	-166.075	
164.00	-49.564	168.099	
165.00	-46.327	155.360	
166.00	-44.076	144.774	
167.00	-42.182	134.573	
168.00	-41.183	124.412	
169.00	-40.560	110.768	
170.00	-39.806	88.723	
171.00	-37.918	64.970	
172.00	-35.007	46.292	
173.00	-32.056	32.456	
174.00	-29.517	23.549	
175.00	-27.342	20.600	
176.00	-25.594	16.782	
177.00	-24.230	11.215	
178.00	-23.224	11.756	
179.00	-22.539	12.099	
180.00	-22.205	9.196	
181.00	-22.226	8.652	
182.00	-22.521	10.272	
183.00	-23.169	8.856	
184.00	-24.190	6.628	
185.00	-25.710	8.194	
186.00	-27.808	10.735	
187.00	-30.556	11.100	
188.00	-34.346	14.109	
189.00	-39.674	24.914	
190.00	-46.758	63.951	
191.00	-44.897	127.375	
192.00	-42.525	143.140	
193.00	-42.031	144.630	
194.00	-43.933	141.586	
195.00	-49.028	122.124	
196.00	-53.754	37.757	
197.00	-46.344	-12.317	
198.00	-41.796	-30.065	
199.00	-39.587	-40.931	
200.00	-38.078	-49.492	
201.00	-37.384	-62.021	
202.00	-37.462	-70.747	
203.00	-37.995	-85.149	
204.00	-38.530	-101.778	
205.00	-39.550	-117.813	
206.00	-40.358	-137.775	
207.00	-40.672	-156.163	
208.00	-41.577	-165.632	
209.00	-43.194	-177.868	
210.00	-45.646	168.835	
211.00	-48.975	167.002	
212.00	-53.325	-174.146	
213.00	-52.432	-125.065	
214.00	-46.777	-101.313	
215.00	-43.154	-98.401	
216.00	-40.987	-100.717	
217.00	-39.676	-107.250	
218.00	-39.194	-115.829	
219.00	-39.203	-123.291	
220.00	-39.800	-128.064	
221.00	-40.863	-136.524	
222.00	-42.357	-138.012	
223.00	-44.851	-134.230	
224.00	-48.573	-116.849	
225.00	-49.506	-81.526	
226.00	-46.299	-52.323	
227.00	-43.209	-43.732	
228.00	-41.383	-44.071	
229.00	-40.531	-52.944	
230.00	-39.850	-62.671	
231.00	-39.407	-74.242	
232.00	-39.127	-90.198	
233.00	-38.777	-104.635	
234.00	-38.557	-114.311	
235.00	-38.429	-127.107	
236.00	-38.755	-139.674	
237.00	-39.233	-147.477	
238.00	-39.928	-159.907	
239.00	-41.353	-174.645	
240.00	-42.621	173.097	
241.00	-43.807	161.991	
242.00	-45.813	141.998	
243.00	-47.572	124.711	
244.00	-50.127	104.049	
245.00	-52.351	77.885	
246.00	-52.587	33.362	
247.00	-52.012	2.081	
248.00	-50.390	-27.026	
249.00	-48.354	-45.776	
250.00	-46.434	-57.685	
251.00	-45.453	-67.264	
252.00	-44.432	-73.770	
253.00	-44.646	-77.522	
254.00	-44.884	-80.732	
255.00	-45.845	-84.992	
256.00	-47.374	-88.662	
257.00	-49.871	-86.342	
258.00	-53.191	-79.131	
259.00	-57.930	-61.126	
260.00	-58.933	2.290	
261.00	-53.492	33.436	
262.00	-49.996	40.319	
263.00	-47.333	43.602	
264.00	-45.664	43.513	
265.00	-44.218	39.289	
266.00	-43.317	37.278	
267.00	-42.949	35.417	
268.00	-42.873	27.892	
269.00	-42.912	22.375	
270.00	-43.284	19.329	
271.00	-44.090	11.992	
272.00	-45.066	3.669	
273.00	-46.371	-3.054	
274.00	-47.995	-15.325	
275.00	-49.999	-32.867	
276.00	-51.725	-49.556	
277.00	-53.807	-70.296	
278.00	-54.102	-87.405	
279.00	-55.111	-103.132	
280.00	-54.323	-112.126	
281.00	-54.697	-113.204	
282.00	-53.278	-113.022	
283.00	-51.301	-111.011	
284.00	-49.314	-110.698	
285.00	-47.501	-116.132	
286.00	-45.474	-121.464	
287.00	-43.880	-128.101	
288.00	-42.423	-137.048	
289.00	-41.436	-146.126	
290.00	-40.673	-154.074	
291.00	-40.287	-163.026	
292.00	-40.200	-172.390	
293.00	-40.419	178.337	
294.00	-40.884	170.761	
295.00	-41.586	165.864	
296.00	-42.262	162.244	
297.00	-42.722	160.559	
298.00	-43.288	159.435	
299.00	-43.448	157.421	
300.00	-43.165	154.749	
301.00	-43.042	147.401	
302.00	-43.233	137.523	
303.00	-43.622	127.542	
304.00	-44.423	113.363	
305.00	-45.854	93.084	
306.00	-46.849	78.045	
307.00	-47.679	58.807	
308.00	-48.229	37.633	
309.00	-48.097	18.732	
310.00	-47.655	8.589	
311.00	-47.508	-4.115	
312.00	-47.595	-10.526	
313.00	-48.097	-12.952	
314.00	-48.957	-14.423	
315.00	-49.734	-5.391	
316.00	-49.956	10.940	
317.00	-47.997	23.706	
318.00	-46.462	27.855	
319.00	-45.510	28.668	
320.00	-45.750	26.451	
321.00	-46.341	20.401	
322.00	-48.499	21.750	
323.00	-51.804	23.369	
324.00	-60.834	30.349	
325.00	-60.683	-164.708	
326.00	-50.516	-160.956	
327.00	-45.941	-161.819	
328.00	-43.062	-168.102	
329.00	-41.488	-171.437	
330.00	-40.895	-173.194	
331.00	-41.571	-176.813	
332.00	-43.409	-175.883	
333.00	-47.086	-159.313	
334.00	-48.428	-100.913	
335.00	-43.752	-73.478	
336.00	-40.492	-64.885	
337.00	-38.310	-62.811	
338.00	-36.953	-66.136	
339.00	-36.336	-70.461	
340.00	-36.435	-74.290	
341.00	-37.082	-80.375	
342.00	-38.406	-92.338	
343.00	-39.981	-104.826	
344.00	-41.447	-122.963	
345.00	-42.362	-144.851	
346.00	-42.408	-166.234	
347.00	-42.484	177.967	
348.00	-43.613	172.295	
349.00	-47.450	172.257	
350.00	-53.659	-115.146	
351.00	-43.230	-58.435	
352.00	-36.606	-54.739	
353.00	-32.335	-56.054	
354.00	-29.197	-53.880	
355.00	-26.769	-55.874	
356.00	-24.911	-58.693	
357.00	-23.573	-58.168	
358.00	-22.611	-57.369	
359.00	-22.163	-57.571	
Frequency	2650.00	MHz	
Channel	test		
Scan Axis name	Azimuth  [deg]		
Scan Axis	Amplitude	Phase	
			
0.00	-22.321	-31.000	
1.00	-22.620	-33.217	
2.00	-23.235	-29.882	
3.00	-24.241	-29.116	
4.00	-25.610	-29.856	
5.00	-27.312	-23.245	
6.00	-29.476	-18.841	
7.00	-32.107	-16.498	
8.00	-35.291	-5.075	
9.00	-39.383	9.391	
10.00	-44.284	32.921	
11.00	-46.794	77.803	
12.00	-46.041	117.104	
13.00	-44.906	133.845	
14.00	-44.091	147.548	
15.00	-44.438	162.792	
16.00	-45.051	167.848	
17.00	-45.804	173.972	
18.00	-46.118	-175.361	
19.00	-46.066	-169.534	
20.00	-46.375	-168.366	
21.00	-45.904	-165.287	
22.00	-46.111	-161.995	
23.00	-45.826	-163.129	
24.00	-46.376	-160.173	
25.00	-46.839	-160.075	
26.00	-46.916	-153.430	
27.00	-46.535	-145.650	
28.00	-47.432	-136.127	
29.00	-47.774	-118.804	
30.00	-47.888	-105.869	
31.00	-47.648	-83.163	
32.00	-47.957	-75.135	
33.00	-47.490	-64.817	
34.00	-47.226	-64.005	
35.00	-47.258	-58.932	
36.00	-48.346	-60.473	
37.00	-48.448	-71.861	
38.00	-48.246	-79.223	
39.00	-47.993	-87.692	
40.00	-46.586	-103.289	
41.00	-45.426	-107.354	
42.00	-44.051	-104.029	
43.00	-44.078	-108.823	
44.00	-43.557	-108.060	
45.00	-44.436	-110.821	
46.00	-44.824	-112.548	
47.00	-45.402	-120.440	
48.00	-45.348	-124.952	
49.00	-45.096	-126.387	
50.00	-45.137	-125.358	
51.00	-45.662	-118.608	
52.00	-46.138	-103.588	
53.00	-46.916	-90.012	
54.00	-47.614	-73.964	
55.00	-46.512	-46.840	
56.00	-45.608	-27.557	
57.00	-43.752	-12.414	
58.00	-42.240	0.598	
59.00	-40.805	14.079	
60.00	-39.551	21.651	
61.00	-39.057	28.450	
62.00	-38.171	38.311	
63.00	-37.836	46.042	
64.00	-37.876	49.859	
65.00	-38.253	58.370	
66.00	-38.750	65.103	
67.00	-39.327	67.464	
68.00	-39.697	68.627	
69.00	-41.225	75.195	
70.00	-42.374	72.531	
71.00	-42.256	78.072	
72.00	-44.640	80.627	
73.00	-44.805	76.660	
74.00	-44.880	79.002	
75.00	-45.831	75.068	
76.00	-45.417	83.548	
77.00	-47.193	82.392	
78.00	-47.623	85.240	
79.00	-48.350	83.912	
80.00	-47.716	95.838	
81.00	-48.692	96.962	
82.00	-48.623	111.196	
83.00	-48.561	120.759	
84.00	-47.608	127.471	
85.00	-47.586	140.965	
86.00	-48.032	151.090	
87.00	-46.187	159.667	
88.00	-45.115	174.552	
89.00	-44.630	-173.894	
90.00	-43.370	-163.142	
91.00	-42.889	-155.478	
92.00	-42.356	-143.251	
93.00	-42.152	-133.230	
94.00	-41.680	-124.948	
95.00	-41.654	-112.071	
96.00	-41.610	-98.173	
97.00	-41.616	-89.878	
98.00	-43.169	-72.868	
99.00	-44.506	-67.114	
100.00	-45.125	-61.042	
101.00	-45.243	-43.629	
102.00	-46.647	-36.329	
103.00	-47.038	-10.108	
104.00	-49.329	-18.278	
105.00	-51.823	-25.862	
106.00	-53.996	1.057	
107.00	-54.236	-47.436	
108.00	-55.016	-85.088	
109.00	-50.560	-82.008	
110.00	-45.817	-70.430	
111.00	-44.555	-58.906	
112.00	-43.760	-58.229	
113.00	-42.994	-68.791	
114.00	-43.948	-54.006	
115.00	-43.021	-40.841	
116.00	-44.846	-36.871	
117.00	-45.393	-27.512	
118.00	-47.883	-0.399	
119.00	-52.378	-7.430	
120.00	-55.686	44.927	
121.00	-71.399	100.742	
122.00	-52.730	-177.968	
123.00	-50.919	-145.748	
124.00	-48.366	-136.891	
125.00	-46.612	-126.494	
126.00	-44.956	-108.514	
127.00	-43.872	-94.412	
128.00	-43.171	-86.045	
129.00	-42.876	-65.799	
130.00	-43.064	-50.623	
131.00	-43.616	-29.479	
132.00	-43.446	-8.633	
133.00	-42.800	8.974	
134.00	-41.993	28.428	
135.00	-41.305	38.902	
136.00	-40.883	50.101	
137.00	-41.349	58.966	
138.00	-42.485	64.546	
139.00	-44.355	67.894	
140.00	-47.332	71.450	
141.00	-53.769	56.288	
142.00	-57.376	-39.678	
143.00	-49.353	-56.032	
144.00	-45.879	-57.606	
145.00	-43.299	-56.903	
146.00	-42.207	-51.008	
147.00	-41.598	-49.100	
148.00	-42.069	-42.089	
149.00	-42.985	-35.844	
150.00	-44.640	-24.299	
151.00	-48.226	-4.421	
152.00	-51.842	18.076	
153.00	-53.740	58.337	
154.00	-54.135	93.813	
155.00	-52.949	106.639	
156.00	-55.751	137.149	
157.00	-59.011	148.874	
158.00	-59.186	-161.829	
159.00	-62.650	-92.183	
160.00	-57.639	-61.675	
161.00	-58.921	-54.802	
162.00	-63.948	-27.582	
163.00	-63.143	101.944	
164.00	-54.423	133.493	
165.00	-48.506	144.149	
166.00	-45.744	141.513	
167.00	-44.074	147.576	
168.00	-42.740	138.007	
169.00	-41.701	128.576	
170.00	-40.333	108.483	
171.00	-38.001	90.608	
172.00	-35.067	77.223	
173.00	-32.039	67.231	
174.00	-29.380	61.388	
175.00	-27.288	61.366	
176.00	-25.620	59.545	
177.00	-24.276	56.587	
178.00	-23.288	58.621	
179.00	-22.644	60.031	
180.00	-22.363	58.243	
181.00	-22.391	58.519	
182.00	-22.761	60.261	
183.00	-23.458	58.610	
184.00	-24.542	55.882	
185.00	-26.039	56.402	
186.00	-28.047	58.140	
187.00	-30.610	56.688	
188.00	-34.056	58.736	
189.00	-38.356	64.689	
190.00	-43.950	80.079	
191.00	-47.774	116.402	
192.00	-47.408	143.985	
193.00	-47.710	137.253	
194.00	-48.451	107.641	
195.00	-45.918	75.695	
196.00	-42.596	50.329	
197.00	-39.909	38.070	
198.00	-38.469	29.738	
199.00	-38.340	23.261	
200.00	-38.986	16.593	
201.00	-40.824	4.360	
202.00	-43.846	-10.653	
203.00	-48.396	-48.097	
204.00	-47.665	-114.277	
205.00	-43.037	-144.795	
206.00	-40.160	-161.073	
207.00	-38.364	-173.249	
208.00	-37.994	-176.037	
209.00	-38.095	175.973	
210.00	-39.200	166.925	
211.00	-41.509	163.155	
212.00	-45.045	158.258	
213.00	-51.449	156.614	
214.00	-67.239	176.713	
215.00	-52.433	-63.187	
216.00	-47.244	-63.117	
217.00	-44.714	-70.568	
218.00	-44.254	-85.685	
219.00	-43.451	-93.421	
220.00	-43.537	-104.639	
221.00	-44.428	-112.701	
222.00	-46.856	-122.972	
223.00	-49.737	-134.287	
224.00	-52.888	-127.087	
225.00	-60.217	-76.460	
226.00	-52.818	-27.038	
227.00	-48.165	-18.513	
228.00	-45.946	-29.299	
229.00	-44.380	-35.783	
230.00	-42.586	-54.071	
231.00	-42.177	-63.674	
232.00	-40.830	-82.242	
233.00	-40.222	-98.144	
234.00	-39.946	-111.036	
235.00	-38.844	-128.106	
236.00	-38.613	-137.446	
237.00	-38.280	-147.184	
238.00	-38.532	-159.586	
239.00	-39.048	-172.921	
240.00	-39.373	178.373	
241.00	-40.185	169.906	
242.00	-41.171	157.338	
243.00	-41.827	148.546	
244.00	-44.659	139.954	
245.00	-46.767	128.730	
246.00	-51.075	114.194	
247.00	-50.972	86.481	
248.00	-56.485	4.374	
249.00	-54.190	-49.068	
250.00	-52.462	-44.359	
251.00	-50.326	-48.419	
252.00	-49.403	-49.465	
253.00	-47.778	-61.946	
254.00	-48.846	-62.968	
255.00	-50.231	-47.239	
256.00	-50.709	-39.106	
257.00	-49.844	-30.142	
258.00	-48.756	-3.352	
259.00	-48.805	-4.281	
260.00	-46.259	1.879	
261.00	-46.207	6.771	
262.00	-44.680	6.566	
263.00	-44.646	14.372	
264.00	-43.386	12.105	
265.00	-44.084	11.377	
266.00	-43.453	12.607	
267.00	-42.596	9.190	
268.00	-43.077	2.333	
269.00	-43.110	0.993	
270.00	-43.573	1.146	
271.00	-44.563	-12.566	
272.00	-46.437	-16.093	
273.00	-47.196	-16.969	
274.00	-47.784	-45.975	
275.00	-50.174	-72.446	
276.00	-48.890	-76.103	
277.00	-50.893	-89.411	
278.00	-48.500	-111.381	
279.00	-47.857	-126.175	
280.00	-45.920	-128.147	
281.00	-45.187	-129.583	
282.00	-44.436	-134.720	
283.00	-42.964	-129.240	
284.00	-41.490	-134.450	
285.00	-40.081	-140.705	
286.00	-39.328	-142.858	
287.00	-38.031	-143.900	
288.00	-37.345	-153.075	
289.00	-36.327	-159.630	
290.00	-36.178	-161.008	
291.00	-36.049	-167.741	
292.00	-36.003	-172.638	
293.00	-36.171	179.754	
294.00	-36.500	174.393	
295.00	-36.719	173.922	
296.00	-37.336	168.987	
297.00	-37.594	165.741	
298.00	-38.278	162.709	
299.00	-38.724	159.805	
300.00	-39.356	154.185	
301.00	-40.739	144.466	
302.00	-42.081	135.930	
303.00	-44.195	126.144	
304.00	-46.427	106.177	
305.00	-49.010	78.447	
306.00	-51.324	40.914	
307.00	-48.790	6.107	
308.00	-46.602	-14.527	
309.00	-44.784	-26.059	
310.00	-43.759	-32.565	
311.00	-43.306	-39.400	
312.00	-43.900	-40.856	
313.00	-44.598	-39.888	
314.00	-45.942	-37.141	
315.00	-47.560	-25.602	
316.00	-48.137	-3.907	
317.00	-47.226	11.160	
318.00	-45.286	21.078	
319.00	-45.726	25.045	
320.00	-45.681	33.211	
321.00	-46.021	38.464	
322.00	-46.931	49.609	
323.00	-49.028	53.421	
324.00	-52.033	61.750	
325.00	-57.354	90.750	
326.00	-53.193	179.844	
327.00	-47.532	-170.383	
328.00	-44.954	-170.852	
329.00	-43.369	-169.615	
330.00	-43.016	-172.099	
331.00	-45.140	-175.864	
332.00	-48.105	-178.965	
333.00	-58.883	-177.341	
334.00	-51.042	-40.629	
335.00	-45.252	-28.031	
336.00	-41.537	-19.317	
337.00	-39.028	-19.357	
338.00	-37.234	-24.939	
339.00	-36.557	-29.634	
340.00	-36.616	-34.502	
341.00	-37.288	-39.767	
342.00	-38.941	-52.665	
343.00	-41.466	-69.995	
344.00	-44.042	-99.211	
345.00	-44.282	-135.147	
346.00	-42.690	-161.096	
347.00	-41.877	-177.204	
348.00	-42.910	173.873	
349.00	-47.812	160.190	
350.00	-57.141	6.625	
351.00	-41.870	-14.612	
352.00	-35.023	-17.935	
353.00	-31.069	-23.353	
354.00	-28.166	-23.158	
355.00	-25.947	-26.350	
356.00	-24.371	-29.622	
357.00	-23.161	-30.057	
358.00	-22.324	-29.138	
359.00	-21.924	-30.129	
Frequency	2700.00	MHz	
Channel	test		
Scan Axis name	Azimuth  [deg]		
Scan Axis	Amplitude	Phase	
			
0.00	-21.333	-1.341	
1.00	-21.644	-2.848	
2.00	-22.281	0.759	
3.00	-23.274	1.061	
4.00	-24.620	-0.417	
5.00	-26.434	3.877	
6.00	-28.751	4.858	
7.00	-31.657	0.297	
8.00	-35.729	1.143	
9.00	-41.346	-8.510	
10.00	-50.117	-66.711	
11.00	-45.446	-129.246	
12.00	-41.643	-143.672	
13.00	-40.287	-148.009	
14.00	-40.237	-149.109	
15.00	-40.845	-145.514	
16.00	-42.435	-148.969	
17.00	-44.895	-153.113	
18.00	-46.824	-160.031	
19.00	-49.234	-175.042	
20.00	-52.617	172.917	
21.00	-52.322	159.226	
22.00	-52.651	171.250	
23.00	-52.158	-163.042	
24.00	-52.221	-136.270	
25.00	-48.114	-103.868	
26.00	-46.538	-91.523	
27.00	-44.124	-80.945	
28.00	-43.223	-75.095	
29.00	-42.750	-68.020	
30.00	-42.391	-63.757	
31.00	-43.242	-60.742	
32.00	-44.606	-50.953	
33.00	-47.724	-47.502	
34.00	-51.077	-41.128	
35.00	-60.440	-48.910	
36.00	-64.294	-161.607	
37.00	-54.610	-169.195	
38.00	-50.558	-164.652	
39.00	-48.169	-164.708	
40.00	-46.840	-165.337	
41.00	-45.643	-156.118	
42.00	-44.513	-143.555	
43.00	-44.118	-135.079	
44.00	-44.192	-126.748	
45.00	-44.447	-111.851	
46.00	-45.506	-97.629	
47.00	-45.752	-87.398	
48.00	-46.293	-76.019	
49.00	-46.237	-60.876	
50.00	-45.836	-52.089	
51.00	-45.354	-40.485	
52.00	-44.185	-25.645	
53.00	-43.075	-18.818	
54.00	-42.139	-14.693	
55.00	-41.745	-5.822	
56.00	-41.601	-2.425	
57.00	-40.793	-3.135	
58.00	-39.724	0.741	
59.00	-38.890	6.781	
60.00	-38.522	10.911	
61.00	-38.231	15.119	
62.00	-38.354	23.916	
63.00	-38.804	30.622	
64.00	-39.658	36.462	
65.00	-40.676	44.841	
66.00	-42.816	53.500	
67.00	-44.131	61.071	
68.00	-47.349	59.053	
69.00	-50.278	57.035	
70.00	-52.662	64.582	
71.00	-53.369	47.635	
72.00	-53.917	29.948	
73.00	-53.684	40.170	
74.00	-54.688	45.212	
75.00	-52.249	57.949	
76.00	-50.743	75.314	
77.00	-50.247	89.102	
78.00	-48.966	105.753	
79.00	-47.441	118.738	
80.00	-46.311	127.977	
81.00	-45.826	133.449	
82.00	-44.890	143.469	
83.00	-44.602	148.541	
84.00	-43.776	155.679	
85.00	-43.450	161.195	
86.00	-43.503	167.364	
87.00	-43.261	173.368	
88.00	-43.192	179.361	
89.00	-43.461	-171.554	
90.00	-43.501	-163.880	
91.00	-43.861	-157.226	
92.00	-44.598	-146.451	
93.00	-45.283	-138.991	
94.00	-46.629	-129.962	
95.00	-48.802	-120.184	
96.00	-50.776	-100.181	
97.00	-53.759	-76.922	
98.00	-56.556	-27.627	
99.00	-56.234	26.858	
100.00	-54.031	50.723	
101.00	-51.394	69.804	
102.00	-49.636	91.939	
103.00	-48.619	104.320	
104.00	-48.460	115.076	
105.00	-48.177	136.701	
106.00	-48.017	155.623	
107.00	-48.773	173.550	
108.00	-48.894	-161.312	
109.00	-49.720	-129.419	
110.00	-49.316	-103.180	
111.00	-47.737	-83.578	
112.00	-47.272	-62.295	
113.00	-47.533	-46.824	
114.00	-47.370	-30.177	
115.00	-48.617	-12.673	
116.00	-50.236	9.912	
117.00	-50.841	42.546	
118.00	-50.399	79.792	
119.00	-50.038	109.393	
120.00	-48.815	129.895	
121.00	-48.573	153.479	
122.00	-49.262	174.548	
123.00	-48.882	-164.308	
124.00	-48.411	-127.664	
125.00	-47.987	-105.423	
126.00	-46.830	-86.606	
127.00	-46.082	-70.328	
128.00	-45.114	-54.662	
129.00	-46.128	-34.292	
130.00	-47.417	-9.723	
131.00	-47.894	8.903	
132.00	-46.128	38.547	
133.00	-44.946	52.368	
134.00	-44.193	61.122	
135.00	-44.308	66.625	
136.00	-45.228	65.205	
137.00	-47.486	62.943	
138.00	-49.237	46.847	
139.00	-51.986	15.033	
140.00	-48.709	-8.829	
141.00	-46.452	-21.841	
142.00	-44.132	-28.486	
143.00	-42.419	-29.679	
144.00	-41.038	-28.453	
145.00	-40.370	-28.985	
146.00	-40.412	-24.557	
147.00	-41.219	-22.477	
148.00	-42.368	-30.873	
149.00	-43.864	-26.893	
150.00	-44.664	-20.826	
151.00	-45.072	-13.121	
152.00	-46.123	-7.591	
153.00	-46.569	2.862	
154.00	-47.733	12.119	
155.00	-49.203	23.220	
156.00	-49.884	40.565	
157.00	-50.325	50.914	
158.00	-50.863	63.036	
159.00	-51.587	67.578	
160.00	-50.666	66.872	
161.00	-54.513	63.908	
162.00	-55.229	44.299	
163.00	-56.021	21.947	
164.00	-54.313	-0.536	
165.00	-50.939	-20.309	
166.00	-48.332	-24.661	
167.00	-46.888	-32.677	
168.00	-47.449	-26.329	
169.00	-49.543	0.795	
170.00	-48.295	52.669	
171.00	-43.066	85.102	
172.00	-37.812	101.178	
173.00	-33.526	104.994	
174.00	-30.159	106.396	
175.00	-27.396	109.450	
176.00	-25.410	109.907	
177.00	-23.818	107.501	
178.00	-22.697	110.281	
179.00	-21.924	111.861	
180.00	-21.559	109.294	
181.00	-21.584	109.080	
182.00	-22.007	110.099	
183.00	-22.873	107.169	
184.00	-24.116	102.710	
185.00	-25.831	100.729	
186.00	-28.055	98.582	
187.00	-30.819	91.424	
188.00	-34.452	81.408	
189.00	-38.936	62.230	
190.00	-42.033	27.013	
191.00	-42.453	-8.251	
192.00	-42.476	-19.803	
193.00	-42.729	-16.288	
194.00	-42.901	-0.446	
195.00	-41.744	18.575	
196.00	-39.485	32.945	
197.00	-37.287	40.248	
198.00	-35.796	40.686	
199.00	-34.886	42.263	
200.00	-35.047	40.819	
201.00	-35.536	34.688	
202.00	-36.725	30.840	
203.00	-38.938	25.412	
204.00	-42.281	14.625	
205.00	-47.858	4.813	
206.00	-60.522	-57.614	
207.00	-51.271	-166.587	
208.00	-45.719	-169.856	
209.00	-44.806	172.361	
210.00	-43.723	154.478	
211.00	-44.294	139.116	
212.00	-45.751	121.368	
213.00	-47.085	88.570	
214.00	-46.884	56.143	
215.00	-45.779	29.436	
216.00	-44.908	12.752	
217.00	-44.718	-2.286	
218.00	-46.145	-18.954	
219.00	-48.447	-34.764	
220.00	-52.238	-64.920	
221.00	-53.013	-113.663	
222.00	-51.854	-157.573	
223.00	-50.554	172.678	
224.00	-50.043	150.102	
225.00	-48.958	122.251	
226.00	-48.240	90.275	
227.00	-47.827	65.210	
228.00	-46.739	41.643	
229.00	-45.854	11.892	
230.00	-44.271	-7.756	
231.00	-43.042	-29.252	
232.00	-42.109	-50.993	
233.00	-40.968	-67.652	
234.00	-40.267	-80.335	
235.00	-40.068	-97.439	
236.00	-39.658	-113.748	
237.00	-39.585	-125.811	
238.00	-39.712	-137.284	
239.00	-40.027	-153.706	
240.00	-40.230	-163.736	
241.00	-40.546	-169.536	
242.00	-41.266	-179.358	
243.00	-42.241	171.896	
244.00	-43.204	173.924	
245.00	-44.867	170.818	
246.00	-46.683	-179.224	
247.00	-46.847	-165.053	
248.00	-46.810	-154.667	
249.00	-45.729	-147.777	
250.00	-45.101	-147.656	
251.00	-45.344	-137.433	
252.00	-45.015	-141.435	
253.00	-46.742	-146.418	
254.00	-47.688	-149.136	
255.00	-49.349	-152.808	
256.00	-53.205	-161.483	
257.00	-65.271	170.778	
258.00	-62.649	44.497	
259.00	-54.838	7.805	
260.00	-49.527	-2.566	
261.00	-46.881	-9.017	
262.00	-45.411	-12.919	
263.00	-44.224	-19.611	
264.00	-43.722	-24.151	
265.00	-43.242	-32.196	
266.00	-43.119	-39.405	
267.00	-42.882	-44.397	
268.00	-42.833	-55.330	
269.00	-42.639	-62.877	
270.00	-42.548	-68.760	
271.00	-42.117	-78.160	
272.00	-42.086	-88.808	
273.00	-41.529	-96.553	
274.00	-41.020	-104.779	
275.00	-40.679	-114.724	
276.00	-40.078	-122.575	
277.00	-39.497	-130.395	
278.00	-39.239	-138.929	
279.00	-38.790	-146.061	
280.00	-38.460	-149.469	
281.00	-38.330	-154.594	
282.00	-38.138	-159.471	
283.00	-37.951	-161.943	
284.00	-37.793	-164.904	
285.00	-37.754	-169.590	
286.00	-37.698	-171.412	
287.00	-37.473	-171.266	
288.00	-36.963	-171.289	
289.00	-36.768	-174.208	
290.00	-36.495	-172.470	
291.00	-36.121	-172.863	
292.00	-35.761	-175.195	
293.00	-35.689	-177.428	
294.00	-35.576	178.450	
295.00	-35.324	177.397	
296.00	-35.395	174.173	
297.00	-35.485	169.178	
298.00	-35.652	163.983	
299.00	-36.120	161.030	
300.00	-36.769	154.569	
301.00	-37.698	147.954	
302.00	-39.069	141.802	
303.00	-41.056	137.804	
304.00	-43.795	128.919	
305.00	-47.925	118.574	
306.00	-52.937	98.601	
307.00	-59.720	43.992	
308.00	-55.369	-16.703	
309.00	-50.778	-29.647	
310.00	-48.368	-36.911	
311.00	-46.680	-42.744	
312.00	-45.952	-37.877	
313.00	-45.563	-31.708	
314.00	-45.167	-28.815	
315.00	-44.467	-24.223	
316.00	-45.327	-21.783	
317.00	-46.447	-21.313	
318.00	-48.423	-19.474	
319.00	-51.825	-2.303	
320.00	-54.851	37.091	
321.00	-50.868	70.810	
322.00	-49.280	81.913	
323.00	-48.465	92.419	
324.00	-47.636	97.358	
325.00	-48.962	105.776	
326.00	-50.595	126.645	
327.00	-50.635	160.911	
328.00	-47.761	-176.071	
329.00	-46.886	-159.515	
330.00	-46.119	-153.088	
331.00	-46.226	-150.269	
332.00	-47.536	-137.602	
333.00	-51.375	-106.372	
334.00	-49.096	-50.815	
335.00	-45.613	-29.009	
336.00	-41.183	-15.190	
337.00	-39.227	-14.285	
338.00	-36.633	-16.093	
339.00	-35.897	-19.623	
340.00	-35.542	-23.599	
341.00	-35.527	-29.516	
342.00	-36.327	-43.250	
343.00	-37.370	-58.295	
344.00	-37.806	-73.916	
345.00	-37.980	-95.586	
346.00	-37.955	-111.532	
347.00	-37.853	-119.055	
348.00	-38.882	-125.049	
349.00	-40.855	-117.348	
350.00	-43.678	-82.127	
351.00	-40.175	-32.500	
352.00	-34.799	-14.445	
353.00	-30.714	-8.454	
354.00	-27.719	-2.701	
355.00	-25.420	-2.395	
356.00	-23.749	-4.106	
357.00	-22.611	-2.162	
358.00	-21.912	-0.520	
359.00	-21.578	-0.535	
