Date:	08/10/2009						
Time:	10:38						
Comment:	No S21 Tuning Tabs
						
							
[Scan Axis] Name: 	Azimuth  [deg]Start: 	0.000000	Stop	359.000000	Increment	1.000000[Step Axis] Name: 	Start: 	0.000000	Stop	0.000000	Increment	0.000000[Tert] Name: 	None [Forth] Name: 	None  [ Freq.]  (List) 	MHz.	3300.000000	3350.000000	3400.000000	3450.000000	3500.000000	3550.000000	3600.000000	3650.000000	3700.000000	3750.000000	3800.000000
 [Switch]  	None [Channel]  	test			 [ Beam] 	None			
Database:			
First Question			
2nd			
3rd			
4th			
			
Frequency	3300.00	MHz	
Channel	test		
Scan Axis name	Azimuth  [deg]		
Scan Axis	Amplitude	Phase	
			
0.00	-54.914	-129.438	
1.00	-57.940	-122.117	
2.00	-61.060	-114.698	
3.00	-67.107	-67.393	
4.00	-72.125	-12.736	
5.00	-66.909	37.841	
6.00	-62.697	51.127	
7.00	-60.985	67.917	
8.00	-60.589	88.691	
9.00	-60.114	92.471	
10.00	-61.036	103.788	
11.00	-61.649	122.280	
12.00	-61.878	136.049	
13.00	-63.599	151.187	
14.00	-65.277	163.768	
15.00	-65.943	-174.046	
16.00	-70.111	-155.852	
17.00	-69.786	-132.022	
18.00	-72.795	-103.623	
19.00	-72.029	-118.557	
20.00	-73.053	-127.353	
21.00	-73.237	-133.521	
22.00	-71.564	168.017	
23.00	-67.604	-177.458	
24.00	-65.108	174.649	
25.00	-64.204	164.739	
26.00	-63.170	-178.189	
27.00	-63.319	176.913	
28.00	-63.277	-176.342	
29.00	-64.013	-171.795	
30.00	-66.109	-144.407	
31.00	-68.025	-151.852	
32.00	-68.680	-133.045	
33.00	-71.450	-93.710	
34.00	-71.124	-106.280	
35.00	-74.287	-102.380	
36.00	-70.053	-99.307	
37.00	-71.926	-116.821	
38.00	-67.212	-127.588	
39.00	-67.933	-136.884	
40.00	-65.415	-134.240	
41.00	-64.157	-132.289	
42.00	-63.227	-134.049	
43.00	-63.090	-136.784	
44.00	-61.934	-136.314	
45.00	-62.638	-137.427	
46.00	-61.755	-141.017	
47.00	-62.592	-131.492	
48.00	-63.040	-146.104	
49.00	-64.000	-146.869	
50.00	-64.639	-161.052	
51.00	-65.855	-170.110	
52.00	-64.934	-175.578	
53.00	-65.602	172.517	
54.00	-64.887	173.916	
55.00	-63.383	-177.337	
56.00	-63.791	175.083	
57.00	-64.208	-170.404	
58.00	-64.659	-175.613	
59.00	-65.576	-169.754	
60.00	-68.540	-154.535	
61.00	-69.694	-131.937	
62.00	-68.738	-119.914	
63.00	-69.552	-109.141	
64.00	-71.574	-71.345	
65.00	-71.911	-82.333	
66.00	-68.384	-51.461	
67.00	-67.847	-55.945	
68.00	-70.315	-34.195	
69.00	-71.541	-25.050	
70.00	-71.062	-72.744	
71.00	-76.210	-54.826	
72.00	-74.190	-66.163	
73.00	-76.545	-81.277	
74.00	-74.145	-115.195	
75.00	-74.049	-101.656	
76.00	-68.745	-111.558	
77.00	-67.229	-109.155	
78.00	-68.690	-89.601	
79.00	-65.204	-105.302	
80.00	-64.387	-89.298	
81.00	-64.868	-88.433	
82.00	-65.696	-86.560	
83.00	-64.839	-93.645	
84.00	-64.464	-81.204	
85.00	-66.625	-74.811	
86.00	-65.693	-75.894	
87.00	-65.699	-79.616	
88.00	-65.405	-74.133	
89.00	-65.680	-63.773	
90.00	-63.092	-74.900	
91.00	-63.020	-64.633	
92.00	-61.693	-74.226	
93.00	-60.825	-77.339	
94.00	-59.155	-66.963	
95.00	-57.936	-68.983	
96.00	-56.470	-62.443	
97.00	-55.832	-57.070	
98.00	-54.336	-50.902	
99.00	-53.416	-45.601	
100.00	-52.286	-42.788	
101.00	-51.504	-31.881	
102.00	-50.326	-26.372	
103.00	-49.678	-18.743	
104.00	-48.910	-13.284	
105.00	-47.956	-6.594	
106.00	-47.323	-1.038	
107.00	-46.693	7.282	
108.00	-46.203	14.021	
109.00	-45.846	21.045	
110.00	-45.488	27.137	
111.00	-45.432	34.481	
112.00	-45.138	41.270	
113.00	-45.186	47.089	
114.00	-45.514	55.229	
115.00	-45.879	60.956	
116.00	-46.195	67.276	
117.00	-46.987	72.155	
118.00	-48.359	77.543	
119.00	-49.995	81.472	
120.00	-52.428	82.898	
121.00	-56.484	75.219	
122.00	-59.579	42.469	
123.00	-58.308	-5.568	
124.00	-53.484	-19.879	
125.00	-50.489	-19.418	
126.00	-47.964	-16.817	
127.00	-46.629	-11.442	
128.00	-45.616	-6.025	
129.00	-45.056	1.492	
130.00	-45.062	10.437	
131.00	-45.466	21.301	
132.00	-46.053	36.536	
133.00	-46.898	54.964	
134.00	-47.684	79.344	
135.00	-47.102	105.525	
136.00	-45.863	129.482	
137.00	-44.257	147.787	
138.00	-42.823	162.592	
139.00	-41.891	172.187	
140.00	-41.371	-178.346	
141.00	-41.363	-171.030	
142.00	-41.993	-163.969	
143.00	-43.343	-156.640	
144.00	-45.596	-148.849	
145.00	-49.854	-136.808	
146.00	-55.772	-99.183	
147.00	-55.597	-21.579	
148.00	-49.894	6.182	
149.00	-47.733	14.090	
150.00	-47.081	16.524	
151.00	-48.083	11.321	
152.00	-50.087	-0.825	
153.00	-52.410	-42.532	
154.00	-48.881	-87.725	
155.00	-44.634	-104.636	
156.00	-42.115	-111.762	
157.00	-40.516	-115.485	
158.00	-40.093	-118.848	
159.00	-40.977	-123.998	
160.00	-43.255	-131.691	
161.00	-47.918	-155.345	
162.00	-49.487	130.234	
163.00	-43.227	90.705	
164.00	-39.195	78.665	
165.00	-36.796	71.904	
166.00	-35.651	64.441	
167.00	-35.360	55.729	
168.00	-35.882	43.528	
169.00	-36.700	25.997	
170.00	-37.214	1.297	
171.00	-36.750	-23.301	
172.00	-35.765	-43.556	
173.00	-35.255	-57.446	
174.00	-35.885	-69.361	
175.00	-38.597	-82.714	
176.00	-45.837	-127.688	
177.00	-39.785	134.698	
178.00	-32.315	115.989	
179.00	-27.882	108.539	
180.00	-24.875	103.357	
181.00	-22.749	99.579	
182.00	-21.303	96.264	
183.00	-20.411	93.231	
184.00	-20.000	90.490	
185.00	-20.060	87.825	
186.00	-20.534	85.157	
187.00	-21.462	82.410	
188.00	-22.905	79.514	
189.00	-24.910	76.334	
190.00	-27.600	72.498	
191.00	-31.042	67.338	
192.00	-35.678	57.356	
193.00	-41.317	32.642	
194.00	-43.783	-15.497	
195.00	-41.646	-41.519	
196.00	-40.007	-44.035	
197.00	-38.873	-35.803	
198.00	-37.760	-25.491	
199.00	-36.664	-16.328	
200.00	-35.642	-10.349	
201.00	-35.161	-6.919	
202.00	-35.178	-6.137	
203.00	-35.983	-7.041	
204.00	-37.591	-9.630	
205.00	-40.433	-14.407	
206.00	-45.201	-25.303	
207.00	-53.838	-69.499	
208.00	-49.713	-158.124	
209.00	-44.617	-176.910	
210.00	-42.148	176.134	
211.00	-41.315	173.044	
212.00	-41.695	171.823	
213.00	-42.991	174.932	
214.00	-45.426	-175.436	
215.00	-47.637	-150.714	
216.00	-46.993	-116.422	
217.00	-44.455	-97.781	
218.00	-42.472	-89.862	
219.00	-40.972	-88.527	
220.00	-40.258	-88.725	
221.00	-40.210	-91.327	
222.00	-40.599	-94.140	
223.00	-41.697	-96.538	
224.00	-43.328	-97.727	
225.00	-45.980	-99.385	
226.00	-49.411	-94.684	
227.00	-54.330	-78.560	
228.00	-57.094	-28.520	
229.00	-53.660	5.522	
230.00	-50.538	12.313	
231.00	-49.340	13.214	
232.00	-48.864	8.586	
233.00	-49.270	2.364	
234.00	-50.310	-3.745	
235.00	-51.831	-9.376	
236.00	-54.118	-19.715	
237.00	-58.479	-38.657	
238.00	-64.893	-84.319	
239.00	-61.710	-166.542	
240.00	-56.348	167.785	
241.00	-53.451	155.675	
242.00	-52.002	147.443	
243.00	-50.518	139.946	
244.00	-50.195	131.846	
245.00	-49.683	124.254	
246.00	-49.516	117.452	
247.00	-50.219	109.014	
248.00	-50.642	100.908	
249.00	-51.453	93.249	
250.00	-52.129	83.720	
251.00	-53.519	74.865	
252.00	-55.834	66.797	
253.00	-57.183	55.211	
254.00	-59.425	44.484	
255.00	-62.635	31.644	
256.00	-66.255	3.226	
257.00	-67.545	-44.321	
258.00	-66.696	-75.989	
259.00	-64.711	-106.637	
260.00	-61.980	-131.554	
261.00	-61.378	-131.282	
262.00	-59.651	-148.794	
263.00	-58.983	-153.031	
264.00	-58.466	-158.589	
265.00	-58.460	-172.897	
266.00	-57.042	-178.496	
267.00	-57.298	171.226	
268.00	-57.906	163.316	
269.00	-58.468	159.653	
270.00	-58.612	149.481	
271.00	-58.014	139.915	
272.00	-58.455	135.633	
273.00	-59.107	137.424	
274.00	-61.135	128.883	
275.00	-62.111	124.306	
276.00	-63.891	120.040	
277.00	-65.883	125.274	
278.00	-68.487	110.543	
279.00	-72.680	98.493	
280.00	-77.364	89.203	
281.00	-76.375	-105.522	
282.00	-77.848	-86.653	
283.00	-69.952	-103.532	
284.00	-68.608	-121.772	
285.00	-65.205	-122.029	
286.00	-65.236	-128.770	
287.00	-62.689	-126.782	
288.00	-62.793	-141.040	
289.00	-62.078	-143.695	
290.00	-59.800	-156.695	
291.00	-59.172	-160.337	
292.00	-59.173	-167.602	
293.00	-59.506	-178.919	
294.00	-58.612	177.866	
295.00	-59.279	178.076	
296.00	-60.984	164.103	
297.00	-59.878	153.129	
298.00	-63.598	148.398	
299.00	-62.686	145.355	
300.00	-64.939	126.161	
301.00	-66.868	105.939	
302.00	-67.321	87.322	
303.00	-65.666	53.055	
304.00	-66.803	55.603	
305.00	-68.449	44.334	
306.00	-66.297	31.851	
307.00	-67.095	29.292	
308.00	-66.022	38.941	
309.00	-67.710	56.733	
310.00	-66.229	67.978	
311.00	-65.385	69.279	
312.00	-64.620	86.731	
313.00	-62.131	76.616	
314.00	-62.415	87.530	
315.00	-61.166	72.730	
316.00	-61.034	77.088	
317.00	-61.427	66.734	
318.00	-62.904	67.322	
319.00	-62.896	65.725	
320.00	-65.606	46.585	
321.00	-68.800	45.584	
322.00	-74.976	-12.661	
323.00	-71.647	-66.786	
324.00	-72.521	-116.023	
325.00	-68.627	-133.218	
326.00	-72.276	-138.362	
327.00	-76.459	-173.143	
328.00	-74.664	156.660	
329.00	-70.031	86.291	
330.00	-67.815	73.345	
331.00	-65.517	55.774	
332.00	-64.371	40.864	
333.00	-64.083	40.391	
334.00	-64.056	29.648	
335.00	-65.910	17.739	
336.00	-71.005	20.360	
337.00	-80.389	9.903	
338.00	-73.236	-151.283	
339.00	-68.057	-166.245	
340.00	-66.432	-171.004	
341.00	-63.350	171.318	
342.00	-62.052	162.282	
343.00	-63.288	152.037	
344.00	-63.402	137.528	
345.00	-65.291	111.755	
346.00	-66.937	88.007	
347.00	-66.586	69.918	
348.00	-70.656	31.912	
349.00	-71.374	-32.236	
350.00	-65.745	-94.743	
351.00	-59.575	-113.981	
352.00	-56.474	-119.102	
353.00	-53.869	-122.033	
354.00	-52.093	-124.893	
355.00	-51.145	-128.581	
356.00	-50.302	-130.750	
357.00	-51.076	-131.329	
358.00	-51.238	-129.330	
359.00	-51.810	-126.199	
Frequency	3350.00	MHz	
Channel	test		
Scan Axis name	Azimuth  [deg]		
Scan Axis	Amplitude	Phase	
			
0.00	-52.942	61.728	
1.00	-54.958	69.420	
2.00	-57.307	83.073	
3.00	-60.639	99.274	
4.00	-63.596	127.851	
5.00	-63.923	160.952	
6.00	-66.902	-150.389	
7.00	-65.096	-131.202	
8.00	-64.365	-97.276	
9.00	-63.299	-84.562	
10.00	-63.278	-69.810	
11.00	-63.914	-65.774	
12.00	-65.418	-41.822	
13.00	-66.162	-36.905	
14.00	-70.085	-24.552	
15.00	-74.601	-7.094	
16.00	-71.628	29.233	
17.00	-73.034	-5.402	
18.00	-76.919	-14.292	
19.00	-71.193	-34.979	
20.00	-67.722	-20.878	
21.00	-64.030	-28.999	
22.00	-61.095	-27.835	
23.00	-59.601	-24.789	
24.00	-60.083	-25.902	
25.00	-59.556	-26.973	
26.00	-59.624	-20.502	
27.00	-59.826	-24.891	
28.00	-62.651	-30.494	
29.00	-63.754	-43.793	
30.00	-66.538	-42.689	
31.00	-68.894	-54.862	
32.00	-70.953	-65.153	
33.00	-70.779	-55.729	
34.00	-73.035	-75.213	
35.00	-77.804	-65.517	
36.00	-74.621	-10.269	
37.00	-70.031	44.103	
38.00	-69.098	40.937	
39.00	-66.362	44.279	
40.00	-65.578	41.659	
41.00	-63.968	46.041	
42.00	-65.332	39.013	
43.00	-65.498	28.441	
44.00	-66.318	12.963	
45.00	-65.260	4.780	
46.00	-64.139	-7.612	
47.00	-63.774	-27.018	
48.00	-62.597	-25.833	
49.00	-61.491	-31.931	
50.00	-61.693	-23.743	
51.00	-61.948	-28.641	
52.00	-62.897	-26.547	
53.00	-63.257	-18.981	
54.00	-64.028	-14.958	
55.00	-68.910	-23.750	
56.00	-69.819	-8.605	
57.00	-75.253	-8.548	
58.00	-85.951	148.881	
59.00	-75.286	168.082	
60.00	-75.816	-147.330	
61.00	-71.047	175.549	
62.00	-70.982	-168.533	
63.00	-72.094	-178.031	
64.00	-70.020	-145.730	
65.00	-69.571	-155.204	
66.00	-74.776	-156.847	
67.00	-76.481	-135.427	
68.00	-85.044	-140.444	
69.00	-76.720	108.992	
70.00	-73.876	41.542	
71.00	-69.464	87.438	
72.00	-67.467	87.038	
73.00	-64.705	97.609	
74.00	-62.957	101.174	
75.00	-62.159	105.944	
76.00	-61.512	110.797	
77.00	-60.280	128.183	
78.00	-60.860	127.232	
79.00	-59.965	140.398	
80.00	-59.516	142.154	
81.00	-59.780	150.206	
82.00	-59.492	151.820	
83.00	-59.834	167.148	
84.00	-59.932	173.801	
85.00	-61.836	177.181	
86.00	-61.648	-177.931	
87.00	-63.242	-167.712	
88.00	-64.947	-159.730	
89.00	-69.024	-148.401	
90.00	-72.885	-129.519	
91.00	-79.151	-49.424	
92.00	-74.255	46.298	
93.00	-70.696	52.357	
94.00	-66.732	53.749	
95.00	-63.211	61.983	
96.00	-59.730	71.735	
97.00	-58.041	79.111	
98.00	-56.454	88.315	
99.00	-55.824	100.777	
100.00	-54.271	106.708	
101.00	-52.986	118.776	
102.00	-51.668	124.248	
103.00	-50.719	135.916	
104.00	-50.191	144.502	
105.00	-49.336	154.747	
106.00	-48.617	160.455	
107.00	-47.993	171.504	
108.00	-47.523	179.627	
109.00	-46.972	-170.080	
110.00	-46.556	-161.333	
111.00	-46.248	-153.129	
112.00	-46.175	-143.871	
113.00	-45.979	-135.698	
114.00	-46.067	-126.613	
115.00	-46.196	-117.718	
116.00	-46.707	-110.108	
117.00	-47.386	-102.190	
118.00	-48.715	-93.792	
119.00	-50.517	-87.319	
120.00	-53.791	-81.065	
121.00	-58.693	-80.287	
122.00	-72.794	-142.656	
123.00	-57.820	135.235	
124.00	-52.013	141.748	
125.00	-48.321	146.363	
126.00	-46.055	153.015	
127.00	-44.316	159.204	
128.00	-43.203	166.727	
129.00	-42.408	174.820	
130.00	-42.086	-177.029	
131.00	-42.251	-168.165	
132.00	-42.791	-157.781	
133.00	-44.023	-145.660	
134.00	-45.650	-129.444	
135.00	-47.336	-104.389	
136.00	-48.100	-69.009	
137.00	-46.640	-36.605	
138.00	-44.573	-13.031	
139.00	-42.765	2.480	
140.00	-41.543	13.451	
141.00	-41.227	22.570	
142.00	-41.361	31.744	
143.00	-42.344	39.906	
144.00	-44.276	50.284	
145.00	-47.480	66.503	
146.00	-51.881	99.351	
147.00	-51.865	160.337	
148.00	-47.595	-170.979	
149.00	-45.496	-158.346	
150.00	-44.606	-153.726	
151.00	-45.174	-154.960	
152.00	-47.241	-164.447	
153.00	-49.988	159.591	
154.00	-47.052	114.426	
155.00	-42.766	93.876	
156.00	-39.535	86.984	
157.00	-37.707	83.950	
158.00	-36.910	83.423	
159.00	-37.041	82.653	
160.00	-38.397	82.741	
161.00	-41.358	83.697	
162.00	-48.735	87.789	
163.00	-55.406	-115.594	
164.00	-43.447	-106.686	
165.00	-39.180	-107.194	
166.00	-37.429	-110.681	
167.00	-37.102	-117.111	
168.00	-37.926	-128.564	
169.00	-39.699	-151.312	
170.00	-39.990	172.097	
171.00	-37.849	139.963	
172.00	-35.563	121.383	
173.00	-34.197	108.366	
174.00	-34.176	97.870	
175.00	-35.838	82.227	
176.00	-38.959	45.946	
177.00	-36.821	-17.851	
178.00	-31.026	-46.939	
179.00	-26.835	-58.735	
180.00	-23.879	-65.365	
181.00	-21.848	-70.012	
182.00	-20.478	-73.806	
183.00	-19.657	-76.996	
184.00	-19.359	-79.936	
185.00	-19.536	-82.574	
186.00	-20.208	-85.231	
187.00	-21.359	-87.794	
188.00	-23.126	-90.658	
189.00	-25.612	-93.777	
190.00	-29.088	-98.104	
191.00	-34.088	-105.655	
192.00	-41.942	-129.809	
193.00	-44.670	145.132	
194.00	-39.736	118.142	
195.00	-37.728	114.975	
196.00	-37.297	120.792	
197.00	-37.450	131.706	
198.00	-37.441	146.850	
199.00	-36.945	160.791	
200.00	-36.442	169.858	
201.00	-36.291	174.963	
202.00	-36.835	176.985	
203.00	-38.379	176.043	
204.00	-41.282	171.754	
205.00	-46.866	158.893	
206.00	-54.435	78.948	
207.00	-46.460	20.561	
208.00	-41.904	7.265	
209.00	-39.881	1.377	
210.00	-38.980	-2.929	
211.00	-39.212	-5.927	
212.00	-40.390	-6.472	
213.00	-42.704	-3.863	
214.00	-46.209	8.358	
215.00	-49.541	42.538	
216.00	-47.475	84.344	
217.00	-44.176	99.544	
218.00	-41.898	102.900	
219.00	-40.926	102.042	
220.00	-40.479	100.055	
221.00	-40.800	96.940	
222.00	-41.895	92.791	
223.00	-43.579	89.377	
224.00	-46.103	86.769	
225.00	-50.289	89.549	
226.00	-56.978	104.917	
227.00	-59.080	172.777	
228.00	-54.073	-156.340	
229.00	-50.838	-153.845	
230.00	-49.286	-160.198	
231.00	-48.600	-162.773	
232.00	-48.717	-167.941	
233.00	-50.086	-178.482	
234.00	-51.787	172.665	
235.00	-55.580	154.282	
236.00	-60.175	121.004	
237.00	-60.916	54.717	
238.00	-56.507	15.298	
239.00	-52.300	-1.098	
240.00	-50.285	-13.336	
241.00	-48.568	-23.646	
242.00	-47.998	-32.702	
243.00	-47.329	-40.026	
244.00	-47.133	-47.537	
245.00	-47.056	-55.867	
246.00	-47.446	-63.793	
247.00	-48.278	-71.170	
248.00	-49.008	-78.119	
249.00	-49.662	-87.681	
250.00	-50.842	-91.483	
251.00	-52.033	-99.700	
252.00	-53.722	-107.709	
253.00	-55.147	-113.566	
254.00	-57.388	-121.196	
255.00	-59.817	-130.967	
256.00	-63.507	-139.859	
257.00	-65.755	-132.333	
258.00	-70.673	-116.769	
259.00	-73.219	-75.598	
260.00	-66.972	-69.898	
261.00	-64.791	-54.285	
262.00	-63.693	-46.875	
263.00	-60.950	-61.450	
264.00	-60.030	-66.620	
265.00	-59.077	-68.745	
266.00	-58.388	-77.285	
267.00	-57.640	-81.142	
268.00	-57.222	-84.786	
269.00	-57.323	-93.920	
270.00	-56.796	-99.849	
271.00	-57.126	-101.613	
272.00	-56.786	-109.641	
273.00	-57.251	-114.568	
274.00	-57.152	-122.638	
275.00	-57.250	-128.340	
276.00	-57.811	-136.627	
277.00	-59.068	-146.723	
278.00	-59.811	-150.490	
279.00	-60.330	-158.606	
280.00	-62.134	-169.118	
281.00	-63.147	-176.650	
282.00	-65.120	178.944	
283.00	-67.370	161.877	
284.00	-67.013	150.851	
285.00	-69.123	118.568	
286.00	-73.514	73.532	
287.00	-72.865	41.775	
288.00	-69.542	12.810	
289.00	-68.216	14.852	
290.00	-67.226	2.229	
291.00	-66.042	-6.443	
292.00	-65.237	-20.862	
293.00	-64.880	-19.878	
294.00	-66.274	-36.184	
295.00	-67.482	-23.744	
296.00	-64.279	-37.633	
297.00	-67.027	-59.216	
298.00	-66.850	-42.333	
299.00	-67.071	-54.567	
300.00	-71.966	-46.625	
301.00	-73.335	-65.571	
302.00	-76.417	4.019	
303.00	-75.903	-37.858	
304.00	-72.415	-43.152	
305.00	-72.749	-40.785	
306.00	-73.840	-20.302	
307.00	-74.925	-46.318	
308.00	-70.508	-60.167	
309.00	-71.979	-89.247	
310.00	-68.892	-78.535	
311.00	-66.542	-80.988	
312.00	-66.611	-91.817	
313.00	-65.512	-98.290	
314.00	-65.121	-112.824	
315.00	-65.749	-124.343	
316.00	-65.138	-131.350	
317.00	-67.727	-124.881	
318.00	-66.846	-156.152	
319.00	-73.029	-162.843	
320.00	-78.130	167.722	
321.00	-81.759	156.679	
322.00	-76.494	54.166	
323.00	-74.945	67.754	
324.00	-70.653	27.202	
325.00	-72.835	29.969	
326.00	-74.923	9.683	
327.00	-83.773	-3.482	
328.00	-81.526	-57.298	
329.00	-71.819	-131.778	
330.00	-68.325	-118.727	
331.00	-69.125	-138.141	
332.00	-66.471	-136.344	
333.00	-68.260	-152.948	
334.00	-66.725	-147.148	
335.00	-71.782	-159.134	
336.00	-77.722	162.952	
337.00	-80.204	-19.522	
338.00	-73.499	-2.647	
339.00	-72.128	-8.601	
340.00	-67.848	8.866	
341.00	-69.299	-25.332	
342.00	-66.461	-24.138	
343.00	-68.430	-33.610	
344.00	-68.929	-79.965	
345.00	-68.414	-91.354	
346.00	-69.259	-116.158	
347.00	-70.905	-151.383	
348.00	-73.779	166.502	
349.00	-70.679	118.555	
350.00	-63.652	69.394	
351.00	-60.129	66.743	
352.00	-56.459	57.623	
353.00	-53.943	51.853	
354.00	-51.957	48.617	
355.00	-50.551	47.680	
356.00	-49.967	46.887	
357.00	-50.005	48.217	
358.00	-50.079	51.161	
359.00	-50.839	54.063	
Frequency	3400.00	MHz	
Channel	test		
Scan Axis name	Azimuth  [deg]		
Scan Axis	Amplitude	Phase	
			
0.00	-50.951	-129.955	
1.00	-52.145	-124.800	
2.00	-53.524	-119.921	
3.00	-56.519	-112.090	
4.00	-61.661	-104.037	
5.00	-67.154	-64.526	
6.00	-74.120	21.547	
7.00	-64.230	70.969	
8.00	-61.797	102.240	
9.00	-59.424	116.475	
10.00	-58.135	134.326	
11.00	-57.703	148.343	
12.00	-57.663	165.812	
13.00	-57.099	174.271	
14.00	-58.798	-172.214	
15.00	-60.878	-172.988	
16.00	-63.042	-165.378	
17.00	-67.447	168.756	
18.00	-67.083	101.753	
19.00	-62.788	102.193	
20.00	-60.075	99.314	
21.00	-57.944	107.120	
22.00	-56.659	116.778	
23.00	-56.490	125.038	
24.00	-56.516	134.549	
25.00	-57.632	146.632	
26.00	-60.708	158.883	
27.00	-63.387	169.665	
28.00	-66.669	179.901	
29.00	-80.384	-135.771	
30.00	-73.289	-11.591	
31.00	-65.545	19.636	
32.00	-63.269	31.251	
33.00	-63.438	41.814	
34.00	-63.356	65.867	
35.00	-63.015	95.622	
36.00	-64.230	135.676	
37.00	-62.378	152.996	
38.00	-60.797	177.368	
39.00	-59.763	-163.904	
40.00	-59.402	-149.971	
41.00	-58.982	-146.601	
42.00	-60.544	-131.533	
43.00	-64.061	-124.622	
44.00	-69.052	-134.870	
45.00	-72.430	162.421	
46.00	-68.127	96.446	
47.00	-61.395	107.342	
48.00	-59.001	105.907	
49.00	-57.509	112.603	
50.00	-57.535	120.834	
51.00	-57.126	125.830	
52.00	-57.588	139.661	
53.00	-58.797	149.122	
54.00	-60.513	165.776	
55.00	-63.323	-169.145	
56.00	-65.211	-145.196	
57.00	-64.539	-109.294	
58.00	-63.778	-72.647	
59.00	-61.192	-50.221	
60.00	-59.690	-41.695	
61.00	-59.451	-28.637	
62.00	-59.703	-17.225	
63.00	-59.335	-13.577	
64.00	-61.061	2.795	
65.00	-63.488	1.337	
66.00	-66.306	19.226	
67.00	-77.613	63.228	
68.00	-72.617	-146.305	
69.00	-67.738	-128.746	
70.00	-60.665	-139.856	
71.00	-58.912	-124.918	
72.00	-56.389	-116.889	
73.00	-55.715	-113.686	
74.00	-54.521	-105.756	
75.00	-53.961	-97.573	
76.00	-52.901	-86.163	
77.00	-52.447	-80.661	
78.00	-52.535	-75.868	
79.00	-52.290	-66.372	
80.00	-52.228	-57.450	
81.00	-52.354	-50.915	
82.00	-52.200	-43.123	
83.00	-53.093	-32.583	
84.00	-53.386	-25.846	
85.00	-54.216	-15.387	
86.00	-54.662	-7.357	
87.00	-55.632	4.752	
88.00	-56.220	14.511	
89.00	-57.078	24.964	
90.00	-57.179	37.185	
91.00	-59.268	55.720	
92.00	-59.085	66.988	
93.00	-60.166	79.389	
94.00	-59.883	97.821	
95.00	-61.292	110.824	
96.00	-61.768	136.381	
97.00	-62.622	149.660	
98.00	-62.179	179.767	
99.00	-61.700	-160.724	
100.00	-60.690	-140.068	
101.00	-60.010	-116.097	
102.00	-58.492	-101.975	
103.00	-57.229	-85.667	
104.00	-56.160	-71.768	
105.00	-54.957	-57.897	
106.00	-54.126	-43.462	
107.00	-53.039	-29.226	
108.00	-52.286	-14.042	
109.00	-51.087	-4.558	
110.00	-50.651	8.115	
111.00	-49.907	20.790	
112.00	-49.112	33.499	
113.00	-48.445	45.815	
114.00	-48.060	58.219	
115.00	-47.736	68.299	
116.00	-47.630	76.985	
117.00	-47.512	88.615	
118.00	-47.809	100.665	
119.00	-48.442	111.976	
120.00	-49.321	123.818	
121.00	-51.237	139.492	
122.00	-53.585	158.241	
123.00	-56.157	-170.838	
124.00	-57.636	-113.437	
125.00	-54.795	-73.770	
126.00	-50.542	-48.883	
127.00	-47.787	-33.502	
128.00	-45.745	-21.014	
129.00	-44.225	-9.524	
130.00	-43.398	0.707	
131.00	-42.768	12.045	
132.00	-42.827	22.758	
133.00	-43.184	34.588	
134.00	-43.932	48.628	
135.00	-45.135	67.441	
136.00	-46.313	91.475	
137.00	-46.731	122.559	
138.00	-45.729	151.473	
139.00	-44.102	174.172	
140.00	-42.749	-168.767	
141.00	-41.764	-155.546	
142.00	-41.403	-144.643	
143.00	-41.750	-133.581	
144.00	-42.893	-123.234	
145.00	-44.893	-110.319	
146.00	-48.170	-88.544	
147.00	-50.934	-43.593	
148.00	-49.649	3.013	
149.00	-46.828	26.387	
150.00	-45.607	38.974	
151.00	-45.788	44.511	
152.00	-47.795	46.991	
153.00	-53.950	26.494	
154.00	-53.402	-71.919	
155.00	-44.896	-92.769	
156.00	-40.285	-95.636	
157.00	-37.744	-95.288	
158.00	-36.233	-94.591	
159.00	-35.725	-93.473	
160.00	-36.194	-92.190	
161.00	-37.853	-91.020	
162.00	-41.364	-89.572	
163.00	-49.490	-87.853	
164.00	-53.627	83.470	
165.00	-42.959	84.892	
166.00	-39.550	84.750	
167.00	-38.505	82.146	
168.00	-39.135	75.652	
169.00	-41.591	61.804	
170.00	-45.030	20.374	
171.00	-42.697	-34.556	
172.00	-38.393	-59.232	
173.00	-35.984	-71.228	
174.00	-35.355	-81.121	
175.00	-36.356	-95.508	
176.00	-38.882	-127.296	
177.00	-37.286	173.031	
178.00	-31.703	141.592	
179.00	-27.367	128.932	
180.00	-24.324	122.261	
181.00	-22.209	117.818	
182.00	-20.752	114.487	
183.00	-19.900	111.714	
184.00	-19.563	109.385	
185.00	-19.735	107.291	
186.00	-20.420	105.487	
187.00	-21.611	103.926	
188.00	-23.401	102.784	
189.00	-25.991	101.958	
190.00	-29.679	101.898	
191.00	-35.160	104.114	
192.00	-45.880	117.589	
193.00	-47.497	-100.680	
194.00	-40.633	-85.296	
195.00	-38.873	-76.352	
196.00	-39.031	-64.214	
197.00	-39.580	-44.724	
198.00	-39.325	-22.117	
199.00	-38.426	-4.211	
200.00	-37.378	6.759	
201.00	-37.264	11.649	
202.00	-38.040	14.376	
203.00	-39.999	14.028	
204.00	-44.164	13.392	
205.00	-56.226	11.608	
206.00	-50.671	-169.860	
207.00	-43.173	-170.872	
208.00	-40.123	-174.132	
209.00	-38.646	-176.901	
210.00	-38.480	-178.904	
211.00	-39.146	-179.418	
212.00	-40.860	-178.974	
213.00	-43.893	-173.928	
214.00	-48.249	-153.227	
215.00	-49.269	-104.039	
216.00	-45.691	-75.083	
217.00	-43.008	-66.625	
218.00	-41.290	-66.758	
219.00	-40.753	-69.149	
220.00	-40.873	-71.824	
221.00	-41.732	-75.766	
222.00	-43.493	-80.667	
223.00	-46.407	-85.525	
224.00	-50.532	-87.469	
225.00	-60.680	-84.017	
226.00	-61.740	50.855	
227.00	-52.913	58.104	
228.00	-49.789	54.672	
229.00	-48.123	49.475	
230.00	-47.754	41.492	
231.00	-48.117	36.507	
232.00	-49.269	28.905	
233.00	-51.634	20.645	
234.00	-56.351	9.291	
235.00	-64.745	-13.581	
236.00	-64.133	-153.955	
237.00	-55.733	-174.017	
238.00	-52.033	174.031	
239.00	-49.705	165.533	
240.00	-47.897	157.042	
241.00	-46.980	149.589	
242.00	-46.458	141.608	
243.00	-46.194	133.547	
244.00	-46.076	126.149	
245.00	-46.596	118.657	
246.00	-47.042	110.572	
247.00	-48.202	101.743	
248.00	-49.333	94.955	
249.00	-50.366	85.289	
250.00	-51.989	76.669	
251.00	-53.621	63.838	
252.00	-55.359	53.520	
253.00	-57.298	37.636	
254.00	-60.013	21.853	
255.00	-61.642	8.122	
256.00	-63.296	-5.067	
257.00	-66.725	-32.091	
258.00	-68.191	-63.200	
259.00	-71.776	-82.973	
260.00	-70.007	-121.766	
261.00	-71.225	-167.133	
262.00	-70.516	-165.131	
263.00	-68.409	154.943	
264.00	-69.792	112.330	
265.00	-67.274	105.537	
266.00	-64.240	90.543	
267.00	-62.959	67.270	
268.00	-61.784	63.109	
269.00	-60.779	49.466	
270.00	-59.189	41.908	
271.00	-59.394	37.681	
272.00	-58.814	34.991	
273.00	-57.656	31.158	
274.00	-58.282	23.114	
275.00	-58.832	18.790	
276.00	-59.374	10.281	
277.00	-60.600	5.413	
278.00	-62.884	1.373	
279.00	-63.752	-5.207	
280.00	-66.398	-18.797	
281.00	-70.299	-24.461	
282.00	-86.092	-28.456	
283.00	-78.770	152.810	
284.00	-69.094	154.125	
285.00	-66.625	149.855	
286.00	-63.632	143.898	
287.00	-61.895	122.836	
288.00	-60.503	121.887	
289.00	-60.727	103.886	
290.00	-60.094	101.405	
291.00	-59.956	92.862	
292.00	-60.485	80.469	
293.00	-60.380	72.616	
294.00	-62.409	66.137	
295.00	-64.239	63.785	
296.00	-67.803	50.893	
297.00	-71.702	13.968	
298.00	-77.935	-37.523	
299.00	-72.987	-85.349	
300.00	-67.760	-136.677	
301.00	-64.996	-137.632	
302.00	-62.603	-143.829	
303.00	-64.937	-149.605	
304.00	-65.837	-166.786	
305.00	-65.641	-176.159	
306.00	-67.050	154.852	
307.00	-71.071	101.126	
308.00	-66.694	67.585	
309.00	-64.725	40.354	
310.00	-62.432	30.127	
311.00	-60.529	19.375	
312.00	-59.818	15.690	
313.00	-58.851	11.836	
314.00	-59.194	6.666	
315.00	-60.641	12.844	
316.00	-61.958	12.827	
317.00	-65.371	25.414	
318.00	-65.699	54.938	
319.00	-64.422	79.058	
320.00	-63.291	103.671	
321.00	-61.183	107.107	
322.00	-60.706	109.991	
323.00	-60.912	118.824	
324.00	-62.006	122.683	
325.00	-65.263	136.366	
326.00	-66.406	163.128	
327.00	-68.390	-164.199	
328.00	-66.165	-128.407	
329.00	-66.077	-124.173	
330.00	-64.913	-114.347	
331.00	-68.294	-102.855	
332.00	-66.718	-80.543	
333.00	-72.211	-49.676	
334.00	-69.665	-2.999	
335.00	-65.088	11.481	
336.00	-65.705	38.564	
337.00	-64.236	41.970	
338.00	-66.809	55.417	
339.00	-68.172	71.295	
340.00	-68.668	91.536	
341.00	-69.692	133.283	
342.00	-66.258	154.322	
343.00	-64.232	162.130	
344.00	-62.819	174.037	
345.00	-64.676	173.533	
346.00	-67.455	-153.839	
347.00	-69.493	-135.971	
348.00	-71.166	-109.107	
349.00	-66.221	-95.305	
350.00	-63.613	-92.550	
351.00	-60.693	-110.547	
352.00	-57.314	-122.160	
353.00	-55.499	-127.812	
354.00	-53.541	-134.666	
355.00	-51.836	-139.671	
356.00	-50.497	-136.939	
357.00	-49.939	-138.901	
358.00	-49.918	-135.764	
359.00	-50.286	-132.951	
Frequency	3450.00	MHz	
Channel	test		
Scan Axis name	Azimuth  [deg]		
Scan Axis	Amplitude	Phase	
			
0.00	-53.980	35.713	
1.00	-55.741	43.715	
2.00	-57.890	46.432	
3.00	-60.567	57.968	
4.00	-66.902	58.551	
5.00	-76.721	16.955	
6.00	-71.084	-58.066	
7.00	-63.898	-76.566	
8.00	-60.660	-73.778	
9.00	-58.549	-72.617	
10.00	-57.078	-66.923	
11.00	-57.331	-64.158	
12.00	-57.641	-58.208	
13.00	-59.352	-48.874	
14.00	-61.235	-51.956	
15.00	-66.617	-40.670	
16.00	-70.067	-27.678	
17.00	-85.193	-38.977	
18.00	-77.055	-92.717	
19.00	-70.895	-84.689	
20.00	-67.813	-65.222	
21.00	-62.939	-61.225	
22.00	-59.776	-57.197	
23.00	-58.982	-54.236	
24.00	-57.877	-49.591	
25.00	-57.365	-38.408	
26.00	-59.216	-41.264	
27.00	-61.344	-32.804	
28.00	-65.081	-17.966	
29.00	-71.328	-16.220	
30.00	-73.571	159.812	
31.00	-66.157	164.888	
32.00	-63.370	173.667	
33.00	-62.463	-178.916	
34.00	-63.919	-170.758	
35.00	-64.674	-153.936	
36.00	-70.007	-128.573	
37.00	-73.491	-78.922	
38.00	-71.765	-24.304	
39.00	-67.660	-4.397	
40.00	-63.453	11.017	
41.00	-63.807	25.083	
42.00	-63.654	43.992	
43.00	-65.768	52.634	
44.00	-70.338	81.483	
45.00	-73.744	103.408	
46.00	-70.632	-177.499	
47.00	-65.574	-139.841	
48.00	-64.346	-113.127	
49.00	-62.104	-110.485	
50.00	-61.941	-97.477	
51.00	-62.928	-77.119	
52.00	-62.148	-71.076	
53.00	-64.808	-59.579	
54.00	-67.402	-36.691	
55.00	-68.105	12.689	
56.00	-66.767	50.664	
57.00	-64.579	69.294	
58.00	-64.470	87.491	
59.00	-62.939	100.747	
60.00	-63.703	113.504	
61.00	-63.761	120.856	
62.00	-66.482	143.313	
63.00	-69.472	146.618	
64.00	-83.601	172.792	
65.00	-76.085	-41.528	
66.00	-65.665	-3.122	
67.00	-62.707	-10.143	
68.00	-60.356	2.363	
69.00	-57.472	4.024	
70.00	-56.200	14.634	
71.00	-54.528	24.482	
72.00	-54.716	30.412	
73.00	-54.212	39.635	
74.00	-53.602	43.070	
75.00	-53.555	51.224	
76.00	-53.612	58.154	
77.00	-53.536	66.236	
78.00	-54.030	76.912	
79.00	-54.280	85.644	
80.00	-54.615	94.237	
81.00	-55.686	100.753	
82.00	-55.814	113.273	
83.00	-57.198	120.639	
84.00	-58.141	133.748	
85.00	-58.434	141.095	
86.00	-59.865	155.577	
87.00	-60.461	159.622	
88.00	-62.608	-179.032	
89.00	-63.669	-171.656	
90.00	-64.682	-157.661	
91.00	-64.989	-127.937	
92.00	-66.155	-109.955	
93.00	-68.189	-97.663	
94.00	-67.141	-59.389	
95.00	-67.321	-49.449	
96.00	-66.011	-20.213	
97.00	-67.476	-6.357	
98.00	-65.177	12.219	
99.00	-64.956	35.490	
100.00	-63.212	51.408	
101.00	-62.595	68.821	
102.00	-61.381	85.877	
103.00	-61.216	99.371	
104.00	-59.615	120.119	
105.00	-59.010	136.243	
106.00	-57.843	157.215	
107.00	-55.849	174.064	
108.00	-54.880	-173.928	
109.00	-53.511	-158.200	
110.00	-52.291	-146.840	
111.00	-51.085	-135.069	
112.00	-49.805	-123.351	
113.00	-48.556	-112.652	
114.00	-47.951	-103.080	
115.00	-47.498	-91.046	
116.00	-46.839	-82.255	
117.00	-46.325	-71.391	
118.00	-46.145	-63.636	
119.00	-46.179	-54.566	
120.00	-46.833	-45.443	
121.00	-47.695	-37.213	
122.00	-49.389	-29.358	
123.00	-51.973	-16.872	
124.00	-57.161	-2.806	
125.00	-65.309	89.352	
126.00	-55.711	157.755	
127.00	-49.594	174.964	
128.00	-46.152	-174.890	
129.00	-43.707	-166.990	
130.00	-42.059	-158.930	
131.00	-41.035	-150.932	
132.00	-40.542	-142.936	
133.00	-40.384	-134.180	
134.00	-40.765	-125.090	
135.00	-41.778	-112.539	
136.00	-43.225	-97.614	
137.00	-45.210	-74.191	
138.00	-46.222	-42.494	
139.00	-45.580	-8.293	
140.00	-43.640	16.716	
141.00	-41.956	34.259	
142.00	-40.792	47.526	
143.00	-40.635	57.508	
144.00	-41.139	67.868	
145.00	-42.541	79.040	
146.00	-45.099	94.284	
147.00	-48.761	123.067	
148.00	-50.151	177.120	
149.00	-47.002	-143.495	
150.00	-44.592	-126.520	
151.00	-43.505	-117.787	
152.00	-44.127	-113.577	
153.00	-47.210	-111.336	
154.00	-57.150	-126.651	
155.00	-50.842	99.380	
156.00	-42.672	93.380	
157.00	-38.727	92.974	
158.00	-36.408	94.369	
159.00	-35.437	95.622	
160.00	-35.292	96.596	
161.00	-36.227	97.032	
162.00	-38.508	97.882	
163.00	-43.509	98.295	
164.00	-60.278	107.806	
165.00	-46.828	-84.899	
166.00	-41.039	-85.197	
167.00	-38.853	-88.810	
168.00	-38.688	-94.588	
169.00	-40.235	-106.390	
170.00	-43.139	-134.081	
171.00	-43.169	175.197	
172.00	-39.421	142.263	
173.00	-36.818	126.349	
174.00	-35.910	115.155	
175.00	-36.855	101.984	
176.00	-39.805	70.811	
177.00	-38.683	4.809	
178.00	-32.423	-28.972	
179.00	-27.825	-41.196	
180.00	-24.617	-47.514	
181.00	-22.454	-51.566	
182.00	-20.974	-54.564	
183.00	-20.083	-57.137	
184.00	-19.748	-59.266	
185.00	-19.924	-61.156	
186.00	-20.613	-62.749	
187.00	-21.823	-64.060	
188.00	-23.636	-65.148	
189.00	-26.219	-65.579	
190.00	-29.847	-65.043	
191.00	-35.095	-62.358	
192.00	-44.513	-51.543	
193.00	-51.316	79.320	
194.00	-43.191	106.505	
195.00	-41.178	118.915	
196.00	-41.169	135.073	
197.00	-41.162	157.910	
198.00	-40.282	-179.289	
199.00	-38.978	-163.871	
200.00	-38.155	-156.003	
201.00	-38.379	-151.668	
202.00	-39.610	-149.501	
203.00	-42.586	-148.548	
204.00	-49.534	-142.762	
205.00	-57.813	-5.208	
206.00	-45.270	15.086	
207.00	-40.952	15.824	
208.00	-38.908	14.455	
209.00	-38.114	13.226	
210.00	-38.376	11.751	
211.00	-39.605	11.820	
212.00	-41.906	15.407	
213.00	-45.567	26.371	
214.00	-48.927	59.819	
215.00	-47.458	103.859	
216.00	-44.143	119.330	
217.00	-42.127	124.734	
218.00	-41.219	124.941	
219.00	-41.225	122.561	
220.00	-41.920	119.400	
221.00	-43.479	116.522	
222.00	-45.840	114.899	
223.00	-49.826	116.171	
224.00	-56.385	134.740	
225.00	-57.059	-154.140	
226.00	-51.995	-128.858	
227.00	-48.891	-128.913	
228.00	-47.530	-132.061	
229.00	-46.814	-138.020	
230.00	-47.086	-145.531	
231.00	-48.047	-153.025	
232.00	-49.612	-166.873	
233.00	-52.199	179.354	
234.00	-55.680	151.974	
235.00	-58.115	105.554	
236.00	-56.489	61.129	
237.00	-53.436	30.788	
238.00	-50.992	13.126	
239.00	-49.017	0.721	
240.00	-47.982	-10.124	
241.00	-47.307	-18.690	
242.00	-47.190	-27.635	
243.00	-47.175	-36.007	
244.00	-47.294	-43.662	
245.00	-48.069	-51.179	
246.00	-48.602	-57.930	
247.00	-49.755	-64.350	
248.00	-51.323	-69.590	
249.00	-52.879	-77.687	
250.00	-54.765	-84.135	
251.00	-57.972	-88.805	
252.00	-61.024	-93.803	
253.00	-65.538	-100.010	
254.00	-73.750	-94.612	
255.00	-73.383	13.504	
256.00	-70.082	39.069	
257.00	-64.183	34.185	
258.00	-63.898	31.557	
259.00	-63.384	31.857	
260.00	-63.060	16.582	
261.00	-63.226	18.277	
262.00	-62.235	11.279	
263.00	-63.138	-3.570	
264.00	-62.488	-7.732	
265.00	-63.573	-27.852	
266.00	-65.228	-35.172	
267.00	-65.373	-52.740	
268.00	-65.363	-48.091	
269.00	-66.866	-84.647	
270.00	-66.696	-110.035	
271.00	-67.821	-116.880	
272.00	-66.783	-142.834	
273.00	-66.600	-146.900	
274.00	-66.377	-165.241	
275.00	-64.813	-172.625	
276.00	-65.360	-177.315	
277.00	-63.666	-176.187	
278.00	-62.595	-174.311	
279.00	-61.619	-176.570	
280.00	-62.531	-172.232	
281.00	-61.497	-168.658	
282.00	-61.596	-169.171	
283.00	-60.728	-168.834	
284.00	-59.413	-169.683	
285.00	-59.374	-174.373	
286.00	-58.365	-174.523	
287.00	-57.607	179.126	
288.00	-57.240	177.310	
289.00	-57.387	166.595	
290.00	-56.409	161.416	
291.00	-56.787	154.033	
292.00	-56.770	145.181	
293.00	-58.192	137.431	
294.00	-57.265	122.615	
295.00	-58.221	118.362	
296.00	-58.774	102.580	
297.00	-60.813	83.098	
298.00	-62.994	62.552	
299.00	-62.432	45.482	
300.00	-62.985	15.809	
301.00	-62.730	-1.108	
302.00	-62.058	-33.871	
303.00	-64.661	-52.059	
304.00	-66.165	-69.186	
305.00	-65.437	-89.524	
306.00	-67.312	-129.009	
307.00	-68.006	-165.195	
308.00	-66.692	165.992	
309.00	-65.554	126.233	
310.00	-63.066	116.327	
311.00	-61.544	87.478	
312.00	-61.148	72.849	
313.00	-61.627	55.714	
314.00	-62.250	49.457	
315.00	-64.773	29.272	
316.00	-68.113	3.165	
317.00	-69.994	-37.881	
318.00	-69.992	-89.523	
319.00	-66.354	-119.914	
320.00	-64.407	-144.817	
321.00	-63.155	-165.270	
322.00	-63.006	-176.382	
323.00	-63.395	156.593	
324.00	-65.564	135.863	
325.00	-66.123	85.659	
326.00	-65.341	41.022	
327.00	-62.264	21.506	
328.00	-60.797	-1.846	
329.00	-58.944	-9.935	
330.00	-60.453	-21.354	
331.00	-61.892	-30.743	
332.00	-63.416	-40.853	
333.00	-70.954	-41.896	
334.00	-76.474	128.084	
335.00	-68.976	113.803	
336.00	-63.151	110.907	
337.00	-61.292	103.323	
338.00	-60.588	83.753	
339.00	-62.255	70.689	
340.00	-63.109	55.497	
341.00	-63.716	16.588	
342.00	-62.493	-18.609	
343.00	-61.006	-30.705	
344.00	-60.262	-53.279	
345.00	-59.884	-53.213	
346.00	-63.377	-68.757	
347.00	-66.590	-64.143	
348.00	-73.140	-3.669	
349.00	-64.903	61.729	
350.00	-60.321	58.954	
351.00	-55.502	55.867	
352.00	-53.463	52.054	
353.00	-51.797	47.059	
354.00	-51.107	44.155	
355.00	-50.651	39.158	
356.00	-50.316	34.602	
357.00	-50.688	34.856	
358.00	-51.306	33.707	
359.00	-52.064	32.223	
Frequency	3500.00	MHz	
Channel	test		
Scan Axis name	Azimuth  [deg]		
Scan Axis	Amplitude	Phase	
			
0.00	-55.176	-136.759	
1.00	-57.360	-133.763	
2.00	-59.704	-130.839	
3.00	-63.578	-138.075	
4.00	-67.705	-156.791	
5.00	-67.719	128.479	
6.00	-62.661	104.356	
7.00	-59.984	103.616	
8.00	-58.041	99.049	
9.00	-57.910	97.514	
10.00	-57.919	97.425	
11.00	-59.327	100.890	
12.00	-61.165	101.313	
13.00	-63.700	102.737	
14.00	-67.500	112.427	
15.00	-71.269	128.099	
16.00	-70.208	122.248	
17.00	-71.399	129.738	
18.00	-67.719	124.228	
19.00	-63.595	111.305	
20.00	-61.027	115.982	
21.00	-59.089	110.023	
22.00	-58.374	108.213	
23.00	-57.781	112.539	
24.00	-57.877	113.847	
25.00	-60.328	116.346	
26.00	-61.859	117.475	
27.00	-65.341	119.544	
28.00	-74.345	116.347	
29.00	-85.011	-23.377	
30.00	-71.132	-51.103	
31.00	-67.314	-50.158	
32.00	-69.070	-50.638	
33.00	-66.298	-47.297	
34.00	-67.884	-51.207	
35.00	-72.059	-49.202	
36.00	-75.775	-130.728	
37.00	-70.866	-173.927	
38.00	-64.864	-171.512	
39.00	-63.779	-173.044	
40.00	-62.986	176.943	
41.00	-62.385	-172.646	
42.00	-63.384	-166.247	
43.00	-65.052	-156.965	
44.00	-66.330	-169.249	
45.00	-70.683	168.813	
46.00	-78.217	154.436	
47.00	-76.366	125.861	
48.00	-72.770	105.593	
49.00	-71.900	106.279	
50.00	-69.250	127.865	
51.00	-68.910	119.531	
52.00	-65.657	127.136	
53.00	-68.093	139.253	
54.00	-69.189	160.445	
55.00	-69.762	-172.799	
56.00	-69.378	-153.618	
57.00	-70.829	-137.252	
58.00	-70.103	-92.700	
59.00	-70.614	-94.708	
60.00	-72.716	-92.614	
61.00	-74.330	-75.553	
62.00	-89.415	21.343	
63.00	-73.414	86.390	
64.00	-72.534	92.484	
65.00	-67.253	122.102	
66.00	-63.822	137.562	
67.00	-60.828	138.726	
68.00	-60.031	149.542	
69.00	-59.263	158.846	
70.00	-58.136	169.535	
71.00	-57.243	174.592	
72.00	-56.810	-172.904	
73.00	-57.271	-169.208	
74.00	-56.940	-159.603	
75.00	-56.656	-148.466	
76.00	-57.559	-134.511	
77.00	-57.353	-126.371	
78.00	-57.463	-119.815	
79.00	-58.217	-106.446	
80.00	-58.384	-94.084	
81.00	-59.275	-88.699	
82.00	-59.862	-72.993	
83.00	-61.426	-61.827	
84.00	-61.385	-48.349	
85.00	-63.550	-38.492	
86.00	-63.407	-29.534	
87.00	-63.471	-10.061	
88.00	-63.713	3.954	
89.00	-64.291	19.372	
90.00	-64.236	25.851	
91.00	-65.747	41.503	
92.00	-66.887	78.355	
93.00	-67.265	89.310	
94.00	-66.509	106.827	
95.00	-65.859	122.021	
96.00	-65.172	146.114	
97.00	-64.057	162.963	
98.00	-63.923	-179.767	
99.00	-63.335	-168.910	
100.00	-62.354	-152.569	
101.00	-62.231	-134.062	
102.00	-60.410	-119.464	
103.00	-60.436	-105.098	
104.00	-60.749	-82.485	
105.00	-60.522	-64.940	
106.00	-58.797	-54.483	
107.00	-57.647	-29.086	
108.00	-56.586	-11.445	
109.00	-55.617	5.915	
110.00	-54.448	23.364	
111.00	-53.095	39.738	
112.00	-51.058	55.474	
113.00	-49.978	69.393	
114.00	-48.816	81.301	
115.00	-47.869	93.057	
116.00	-46.804	103.646	
117.00	-46.069	115.086	
118.00	-45.671	124.879	
119.00	-45.176	133.549	
120.00	-45.195	143.943	
121.00	-45.688	153.811	
122.00	-46.677	163.816	
123.00	-48.198	175.597	
124.00	-50.807	-169.001	
125.00	-54.661	-138.838	
126.00	-56.415	-71.069	
127.00	-51.400	-22.069	
128.00	-46.988	-3.132	
129.00	-43.928	7.939	
130.00	-41.728	18.020	
131.00	-40.225	27.646	
132.00	-39.351	35.551	
133.00	-38.883	43.778	
134.00	-38.977	51.930	
135.00	-39.458	61.828	
136.00	-40.629	72.690	
137.00	-42.583	89.172	
138.00	-44.868	112.469	
139.00	-46.465	149.908	
140.00	-45.313	-172.003	
141.00	-42.902	-146.691	
142.00	-41.087	-130.377	
143.00	-40.170	-119.087	
144.00	-39.909	-108.246	
145.00	-40.551	-98.746	
146.00	-42.205	-86.811	
147.00	-45.256	-68.784	
148.00	-48.631	-31.606	
149.00	-48.515	19.786	
150.00	-45.157	50.856	
151.00	-43.282	65.206	
152.00	-42.814	73.511	
153.00	-44.286	78.128	
154.00	-48.529	81.147	
155.00	-71.291	-17.881	
156.00	-46.952	-83.260	
157.00	-40.755	-84.047	
158.00	-37.495	-82.294	
159.00	-35.750	-81.033	
160.00	-35.089	-80.299	
161.00	-35.402	-79.612	
162.00	-36.986	-80.102	
163.00	-40.175	-82.454	
164.00	-46.482	-90.625	
165.00	-55.546	158.158	
166.00	-44.794	115.035	
167.00	-41.207	105.782	
168.00	-40.242	98.527	
169.00	-41.359	85.350	
170.00	-43.826	55.884	
171.00	-43.241	5.842	
172.00	-39.365	-26.999	
173.00	-36.658	-41.645	
174.00	-35.491	-52.213	
175.00	-36.103	-63.848	
176.00	-38.806	-87.337	
177.00	-40.087	-148.620	
178.00	-33.847	166.160	
179.00	-28.781	151.210	
180.00	-25.297	143.942	
181.00	-22.969	139.719	
182.00	-21.387	136.654	
183.00	-20.420	134.283	
184.00	-20.012	132.302	
185.00	-20.164	130.753	
186.00	-20.809	129.465	
187.00	-22.009	128.651	
188.00	-23.810	128.132	
189.00	-26.332	128.329	
190.00	-29.884	129.712	
191.00	-34.894	133.731	
192.00	-42.980	146.637	
193.00	-53.581	-122.255	
194.00	-45.909	-59.007	
195.00	-43.438	-38.130	
196.00	-42.494	-13.887	
197.00	-41.220	11.660	
198.00	-39.331	29.901	
199.00	-37.875	40.115	
200.00	-37.409	46.642	
201.00	-37.924	50.570	
202.00	-39.641	55.159	
203.00	-43.436	64.695	
204.00	-49.550	102.326	
205.00	-46.949	176.974	
206.00	-41.527	-165.231	
207.00	-38.671	-160.590	
208.00	-37.301	-159.963	
209.00	-36.994	-160.376	
210.00	-37.621	-160.298	
211.00	-39.132	-159.206	
212.00	-41.707	-154.237	
213.00	-45.693	-138.190	
214.00	-48.383	-98.520	
215.00	-46.253	-60.487	
216.00	-43.426	-47.286	
217.00	-41.688	-44.808	
218.00	-41.132	-44.338	
219.00	-41.412	-45.869	
220.00	-42.397	-48.495	
221.00	-44.293	-49.997	
222.00	-47.149	-48.407	
223.00	-51.640	-35.458	
224.00	-55.991	3.519	
225.00	-53.225	46.355	
226.00	-50.011	58.045	
227.00	-48.101	58.411	
228.00	-47.570	52.687	
229.00	-47.819	46.440	
230.00	-48.863	37.894	
231.00	-50.687	25.612	
232.00	-53.846	8.203	
233.00	-57.669	-31.335	
234.00	-57.492	-91.047	
235.00	-53.671	-126.641	
236.00	-50.877	-143.790	
237.00	-48.570	-156.847	
238.00	-47.368	-166.412	
239.00	-46.498	-176.971	
240.00	-46.023	173.586	
241.00	-46.096	166.765	
242.00	-46.377	158.250	
243.00	-46.922	147.543	
244.00	-47.579	140.073	
245.00	-48.516	130.915	
246.00	-49.915	122.479	
247.00	-51.025	113.108	
248.00	-52.803	105.362	
249.00	-54.639	101.243	
250.00	-56.907	91.160	
251.00	-59.339	85.673	
252.00	-65.120	78.916	
253.00	-79.450	92.261	
254.00	-77.596	161.568	
255.00	-67.703	-152.779	
256.00	-64.999	-138.553	
257.00	-62.627	-154.231	
258.00	-61.589	-163.566	
259.00	-60.765	-162.898	
260.00	-60.260	-172.724	
261.00	-60.546	178.782	
262.00	-60.512	166.162	
263.00	-61.621	159.655	
264.00	-61.291	151.680	
265.00	-62.418	133.643	
266.00	-64.452	127.024	
267.00	-66.473	123.807	
268.00	-65.587	108.559	
269.00	-70.145	94.772	
270.00	-67.874	67.039	
271.00	-67.257	57.782	
272.00	-65.280	41.607	
273.00	-65.338	23.815	
274.00	-63.508	29.588	
275.00	-62.928	26.686	
276.00	-61.816	19.920	
277.00	-62.978	11.762	
278.00	-63.595	8.375	
279.00	-63.176	3.349	
280.00	-63.724	-4.843	
281.00	-62.605	-4.679	
282.00	-63.365	-8.379	
283.00	-63.748	-25.781	
284.00	-63.800	-36.327	
285.00	-64.290	-38.289	
286.00	-63.673	-32.430	
287.00	-63.257	-49.417	
288.00	-63.534	-45.018	
289.00	-63.224	-56.740	
290.00	-64.793	-69.690	
291.00	-63.031	-78.673	
292.00	-63.695	-91.330	
293.00	-65.680	-99.264	
294.00	-64.603	-115.888	
295.00	-65.154	-122.504	
296.00	-66.427	-141.166	
297.00	-64.408	-164.712	
298.00	-65.302	-162.405	
299.00	-66.162	174.197	
300.00	-66.135	154.956	
301.00	-70.597	151.567	
302.00	-68.327	136.652	
303.00	-70.656	132.992	
304.00	-74.655	102.003	
305.00	-84.416	175.446	
306.00	-78.472	-126.935	
307.00	-73.765	-121.575	
308.00	-69.058	-119.866	
309.00	-65.282	-131.347	
310.00	-64.438	-145.965	
311.00	-62.918	-155.593	
312.00	-63.820	-172.672	
313.00	-62.303	173.365	
314.00	-63.515	162.147	
315.00	-64.497	147.858	
316.00	-66.362	110.971	
317.00	-64.905	98.282	
318.00	-68.105	63.247	
319.00	-68.186	45.279	
320.00	-69.012	13.829	
321.00	-72.014	-35.803	
322.00	-73.648	-53.633	
323.00	-69.974	-122.372	
324.00	-68.057	-150.200	
325.00	-64.837	-159.784	
326.00	-62.223	171.769	
327.00	-61.033	169.877	
328.00	-59.890	155.731	
329.00	-61.448	147.932	
330.00	-60.973	142.646	
331.00	-62.867	136.349	
332.00	-64.664	144.354	
333.00	-67.962	165.210	
334.00	-67.303	-174.843	
335.00	-65.840	-161.544	
336.00	-64.499	-148.372	
337.00	-61.327	-161.025	
338.00	-61.180	-162.898	
339.00	-59.939	-168.567	
340.00	-60.603	177.213	
341.00	-60.487	163.092	
342.00	-62.129	153.314	
343.00	-60.614	131.482	
344.00	-61.801	115.759	
345.00	-63.164	97.478	
346.00	-64.242	102.876	
347.00	-67.173	75.204	
348.00	-75.617	137.788	
349.00	-72.160	-154.300	
350.00	-61.003	-133.454	
351.00	-57.414	-137.402	
352.00	-54.680	-143.079	
353.00	-52.417	-141.641	
354.00	-51.215	-143.785	
355.00	-50.806	-145.898	
356.00	-50.761	-144.956	
357.00	-51.037	-146.170	
358.00	-51.945	-144.321	
359.00	-52.640	-142.134	
Frequency	3550.00	MHz	
Channel	test		
Scan Axis name	Azimuth  [deg]		
Scan Axis	Amplitude	Phase	
			
0.00	-54.887	47.820	
1.00	-57.758	50.945	
2.00	-60.676	50.590	
3.00	-67.611	48.739	
4.00	-69.563	-31.528	
5.00	-65.303	-79.841	
6.00	-61.384	-88.242	
7.00	-58.693	-95.435	
8.00	-58.225	-92.283	
9.00	-59.199	-91.844	
10.00	-59.986	-93.480	
11.00	-60.823	-96.687	
12.00	-64.006	-102.253	
13.00	-65.471	-99.764	
14.00	-67.655	-103.394	
15.00	-67.934	-82.825	
16.00	-65.920	-77.481	
17.00	-63.368	-71.112	
18.00	-62.906	-68.681	
19.00	-59.758	-70.182	
20.00	-59.835	-75.709	
21.00	-59.716	-74.563	
22.00	-58.599	-77.687	
23.00	-59.915	-78.650	
24.00	-59.885	-83.444	
25.00	-59.766	-83.600	
26.00	-62.599	-93.826	
27.00	-63.284	-94.416	
28.00	-65.783	-92.493	
29.00	-72.440	-87.002	
30.00	-75.854	-78.200	
31.00	-78.291	-34.899	
32.00	-70.311	40.891	
33.00	-69.169	50.128	
34.00	-66.192	30.231	
35.00	-66.851	43.109	
36.00	-67.411	29.697	
37.00	-67.662	16.972	
38.00	-66.252	-13.855	
39.00	-65.348	-31.666	
40.00	-62.788	-40.345	
41.00	-61.717	-43.393	
42.00	-60.927	-40.216	
43.00	-60.153	-42.721	
44.00	-60.302	-43.273	
45.00	-62.279	-39.116	
46.00	-63.799	-40.943	
47.00	-64.142	-38.961	
48.00	-68.835	-54.494	
49.00	-73.423	-55.009	
50.00	-72.300	-101.520	
51.00	-68.915	-126.978	
52.00	-68.532	-126.661	
53.00	-69.844	-103.116	
54.00	-70.745	-97.739	
55.00	-71.349	-98.606	
56.00	-71.254	-84.824	
57.00	-72.029	-39.011	
58.00	-69.690	-32.613	
59.00	-71.256	-4.178	
60.00	-68.158	-16.351	
61.00	-69.129	32.263	
62.00	-69.949	19.731	
63.00	-70.804	43.360	
64.00	-74.172	51.012	
65.00	-75.260	9.214	
66.00	-74.386	-40.783	
67.00	-73.858	-42.167	
68.00	-69.327	-38.036	
69.00	-67.989	-35.199	
70.00	-64.867	-38.169	
71.00	-62.988	-31.531	
72.00	-61.133	-22.722	
73.00	-61.244	-18.193	
74.00	-59.848	-5.674	
75.00	-61.052	-4.600	
76.00	-60.688	4.081	
77.00	-59.930	11.189	
78.00	-60.177	27.656	
79.00	-59.710	22.082	
80.00	-61.091	41.806	
81.00	-61.478	51.739	
82.00	-61.654	63.091	
83.00	-61.579	79.579	
84.00	-62.020	84.319	
85.00	-62.634	101.793	
86.00	-62.953	104.701	
87.00	-61.541	121.383	
88.00	-63.227	138.158	
89.00	-62.163	145.079	
90.00	-61.570	157.009	
91.00	-62.987	163.904	
92.00	-62.687	172.081	
93.00	-61.694	-169.144	
94.00	-62.741	-159.709	
95.00	-64.408	-153.950	
96.00	-64.970	-132.656	
97.00	-64.558	-123.081	
98.00	-68.017	-113.279	
99.00	-67.923	-93.995	
100.00	-71.318	-48.678	
101.00	-69.058	-53.011	
102.00	-73.805	-18.428	
103.00	-76.093	4.989	
104.00	-72.718	58.918	
105.00	-71.646	104.601	
106.00	-68.768	142.049	
107.00	-67.237	149.029	
108.00	-64.315	-173.255	
109.00	-61.375	-152.657	
110.00	-58.710	-131.916	
111.00	-56.391	-120.917	
112.00	-53.740	-105.604	
113.00	-51.629	-95.111	
114.00	-50.027	-85.072	
115.00	-48.220	-75.653	
116.00	-46.709	-65.120	
117.00	-45.723	-56.163	
118.00	-44.702	-46.904	
119.00	-44.205	-37.718	
120.00	-43.411	-28.886	
121.00	-43.476	-19.771	
122.00	-43.524	-10.516	
123.00	-44.332	0.987	
124.00	-45.327	12.633	
125.00	-47.060	27.769	
126.00	-49.046	51.439	
127.00	-50.592	92.366	
128.00	-49.559	133.743	
129.00	-46.400	162.817	
130.00	-43.692	-178.763	
131.00	-41.571	-165.584	
132.00	-40.131	-154.612	
133.00	-39.243	-145.338	
134.00	-38.896	-136.077	
135.00	-39.017	-126.692	
136.00	-39.794	-116.824	
137.00	-41.239	-105.680	
138.00	-43.429	-88.398	
139.00	-46.553	-59.851	
140.00	-47.627	-13.334	
141.00	-45.356	24.935	
142.00	-42.381	47.149	
143.00	-40.769	61.375	
144.00	-39.832	71.298	
145.00	-39.861	81.220	
146.00	-40.711	91.314	
147.00	-42.747	104.158	
148.00	-45.790	125.780	
149.00	-48.915	168.917	
150.00	-47.052	-143.914	
151.00	-44.279	-118.953	
152.00	-42.800	-107.771	
153.00	-42.795	-100.603	
154.00	-44.839	-95.864	
155.00	-50.721	-95.010	
156.00	-60.946	108.430	
157.00	-45.682	100.145	
158.00	-40.352	100.044	
159.00	-37.688	101.064	
160.00	-36.341	101.336	
161.00	-36.130	100.616	
162.00	-36.931	98.722	
163.00	-39.074	94.469	
164.00	-42.937	82.257	
165.00	-48.247	42.445	
166.00	-46.749	-20.675	
167.00	-43.241	-45.348	
168.00	-42.150	-57.570	
169.00	-43.499	-71.538	
170.00	-47.064	-104.092	
171.00	-45.965	-168.923	
172.00	-40.717	157.145	
173.00	-37.290	143.474	
174.00	-35.745	133.817	
175.00	-35.846	123.061	
176.00	-37.706	102.385	
177.00	-39.342	53.529	
178.00	-34.757	5.104	
179.00	-29.651	-14.331	
180.00	-26.039	-23.408	
181.00	-23.575	-28.554	
182.00	-21.889	-32.127	
183.00	-20.825	-34.730	
184.00	-20.325	-36.705	
185.00	-20.360	-38.376	
186.00	-20.945	-39.572	
187.00	-22.030	-40.366	
188.00	-23.690	-40.725	
189.00	-26.031	-40.377	
190.00	-29.210	-39.055	
191.00	-33.553	-36.668	
192.00	-39.935	-32.830	
193.00	-53.128	-24.137	
194.00	-51.976	164.899	
195.00	-44.965	-176.196	
196.00	-41.720	-157.520	
197.00	-39.224	-142.113	
198.00	-37.365	-131.775	
199.00	-36.240	-124.885	
200.00	-35.979	-119.626	
201.00	-36.754	-115.640	
202.00	-38.602	-109.375	
203.00	-41.871	-96.074	
204.00	-45.522	-61.170	
205.00	-44.059	-11.063	
206.00	-40.382	9.577	
207.00	-38.129	17.146	
208.00	-37.122	19.022	
209.00	-37.114	19.555	
210.00	-37.908	19.825	
211.00	-39.910	21.516	
212.00	-43.047	26.929	
213.00	-48.157	47.552	
214.00	-50.503	101.505	
215.00	-46.266	134.859	
216.00	-43.316	143.941	
217.00	-41.897	144.711	
218.00	-41.528	143.385	
219.00	-42.027	141.316	
220.00	-43.336	139.780	
221.00	-45.876	138.940	
222.00	-49.696	144.583	
223.00	-54.818	168.408	
224.00	-55.158	-135.610	
225.00	-51.530	-112.418	
226.00	-49.013	-110.668	
227.00	-47.994	-112.960	
228.00	-47.774	-118.569	
229.00	-48.494	-124.771	
230.00	-50.358	-134.123	
231.00	-53.511	-142.735	
232.00	-58.570	-167.378	
233.00	-64.975	116.040	
234.00	-57.351	48.101	
235.00	-52.161	32.266	
236.00	-49.828	21.980	
237.00	-48.052	11.746	
238.00	-46.997	3.736	
239.00	-46.459	-6.045	
240.00	-46.340	-15.094	
241.00	-46.273	-23.692	
242.00	-46.865	-32.658	
243.00	-47.687	-41.370	
244.00	-48.373	-49.463	
245.00	-49.613	-58.856	
246.00	-51.255	-68.055	
247.00	-53.003	-77.650	
248.00	-55.361	-85.579	
249.00	-58.515	-98.196	
250.00	-61.975	-116.865	
251.00	-68.983	-141.809	
252.00	-70.704	159.229	
253.00	-67.444	97.736	
254.00	-64.088	78.596	
255.00	-61.709	65.575	
256.00	-60.603	49.514	
257.00	-59.618	46.537	
258.00	-60.193	33.335	
259.00	-59.925	27.922	
260.00	-59.248	17.144	
261.00	-59.675	4.024	
262.00	-59.697	-7.558	
263.00	-59.289	-21.970	
264.00	-59.214	-37.451	
265.00	-59.632	-47.200	
266.00	-59.663	-59.522	
267.00	-59.271	-73.719	
268.00	-58.089	-80.426	
269.00	-58.416	-82.534	
270.00	-58.632	-98.203	
271.00	-58.452	-96.357	
272.00	-59.619	-104.700	
273.00	-59.482	-109.642	
274.00	-60.400	-121.744	
275.00	-61.223	-120.552	
276.00	-60.692	-141.805	
277.00	-60.905	-150.778	
278.00	-60.718	-159.837	
279.00	-60.813	-169.913	
280.00	-60.523	-168.864	
281.00	-60.675	177.899	
282.00	-60.139	172.027	
283.00	-60.462	163.882	
284.00	-60.392	154.678	
285.00	-61.115	153.341	
286.00	-61.948	139.201	
287.00	-62.237	148.028	
288.00	-63.803	120.847	
289.00	-64.138	114.149	
290.00	-66.820	99.836	
291.00	-69.532	93.187	
292.00	-69.325	66.510	
293.00	-69.655	63.777	
294.00	-69.574	9.376	
295.00	-66.367	-6.361	
296.00	-65.585	-25.263	
297.00	-65.290	-53.276	
298.00	-64.657	-68.557	
299.00	-64.381	-76.423	
300.00	-66.398	-99.148	
301.00	-66.879	-126.518	
302.00	-67.074	-132.101	
303.00	-70.737	-135.137	
304.00	-72.443	-170.202	
305.00	-73.171	171.025	
306.00	-70.883	121.601	
307.00	-68.363	91.727	
308.00	-72.425	60.637	
309.00	-67.978	33.939	
310.00	-68.596	7.271	
311.00	-67.233	0.161	
312.00	-65.322	-31.383	
313.00	-64.672	-52.921	
314.00	-63.360	-70.611	
315.00	-63.778	-94.860	
316.00	-63.678	-107.829	
317.00	-65.076	-120.336	
318.00	-64.596	-143.245	
319.00	-65.971	-151.140	
320.00	-68.248	179.100	
321.00	-72.444	122.641	
322.00	-71.919	93.535	
323.00	-68.701	19.806	
324.00	-65.360	7.851	
325.00	-63.063	-6.425	
326.00	-60.873	-19.500	
327.00	-60.731	-27.497	
328.00	-60.260	-34.192	
329.00	-60.849	-42.362	
330.00	-61.352	-50.708	
331.00	-62.760	-55.364	
332.00	-63.445	-60.251	
333.00	-64.035	-37.373	
334.00	-63.635	-27.035	
335.00	-63.691	-16.542	
336.00	-62.680	-8.033	
337.00	-61.524	-9.618	
338.00	-61.160	-9.429	
339.00	-60.346	-13.827	
340.00	-59.013	-16.377	
341.00	-60.959	-20.274	
342.00	-61.012	-30.230	
343.00	-62.409	-47.932	
344.00	-64.694	-55.127	
345.00	-65.695	-62.655	
346.00	-69.422	-90.568	
347.00	-71.521	-62.960	
348.00	-73.697	-15.211	
349.00	-66.295	19.619	
350.00	-61.494	22.544	
351.00	-57.721	25.069	
352.00	-55.080	23.868	
353.00	-53.220	25.960	
354.00	-51.995	27.917	
355.00	-51.238	27.865	
356.00	-50.811	28.148	
357.00	-51.205	31.622	
358.00	-52.457	37.253	
359.00	-53.241	38.851	
Frequency	3600.00	MHz	
Channel	test		
Scan Axis name	Azimuth  [deg]		
Scan Axis	Amplitude	Phase	
			
0.00	-56.259	-127.484	
1.00	-61.586	-132.557	
2.00	-67.140	-129.670	
3.00	-74.140	111.298	
4.00	-63.709	72.788	
5.00	-60.451	81.607	
6.00	-58.495	83.134	
7.00	-58.482	85.370	
8.00	-59.991	94.450	
9.00	-63.779	94.699	
10.00	-67.975	98.357	
11.00	-71.848	88.467	
12.00	-72.945	39.240	
13.00	-70.972	40.377	
14.00	-65.640	20.459	
15.00	-64.099	45.995	
16.00	-62.578	62.074	
17.00	-60.180	71.222	
18.00	-59.029	79.926	
19.00	-58.052	89.408	
20.00	-58.608	95.072	
21.00	-59.802	98.571	
22.00	-61.434	93.664	
23.00	-62.736	87.088	
24.00	-63.803	65.047	
25.00	-63.045	53.714	
26.00	-62.145	42.102	
27.00	-60.807	42.716	
28.00	-62.416	55.168	
29.00	-63.286	67.037	
30.00	-64.472	86.177	
31.00	-66.196	102.713	
32.00	-65.409	140.281	
33.00	-64.578	169.909	
34.00	-65.630	-174.031	
35.00	-64.343	-164.237	
36.00	-66.355	-165.881	
37.00	-78.375	-161.190	
38.00	-73.647	34.278	
39.00	-65.891	67.539	
40.00	-61.379	74.518	
41.00	-59.493	78.875	
42.00	-58.489	89.084	
43.00	-58.541	99.124	
44.00	-58.526	108.695	
45.00	-61.344	121.632	
46.00	-61.366	138.681	
47.00	-65.558	168.542	
48.00	-68.870	-156.262	
49.00	-66.165	-109.798	
50.00	-66.631	-60.043	
51.00	-65.060	-29.445	
52.00	-63.788	-20.041	
53.00	-61.860	-2.344	
54.00	-61.400	25.449	
55.00	-61.279	44.729	
56.00	-61.905	67.914	
57.00	-60.900	94.592	
58.00	-60.356	111.596	
59.00	-59.793	128.822	
60.00	-59.704	153.645	
61.00	-60.010	165.397	
62.00	-60.771	-177.032	
63.00	-61.347	-163.740	
64.00	-62.462	-144.374	
65.00	-63.764	-116.235	
66.00	-63.884	-99.778	
67.00	-64.724	-75.384	
68.00	-65.017	-37.540	
69.00	-66.067	1.463	
70.00	-63.983	27.272	
71.00	-62.018	40.902	
72.00	-62.273	56.162	
73.00	-61.625	69.987	
74.00	-60.417	81.669	
75.00	-59.757	90.302	
76.00	-59.925	104.486	
77.00	-60.037	118.601	
78.00	-60.377	137.871	
79.00	-60.211	153.391	
80.00	-61.379	167.132	
81.00	-61.254	-179.972	
82.00	-61.656	-153.086	
83.00	-61.439	-137.765	
84.00	-60.270	-117.923	
85.00	-58.562	-103.400	
86.00	-59.072	-96.252	
87.00	-58.434	-87.958	
88.00	-57.474	-74.381	
89.00	-56.987	-64.301	
90.00	-56.406	-59.113	
91.00	-55.852	-47.017	
92.00	-55.854	-43.625	
93.00	-56.667	-32.631	
94.00	-55.957	-23.963	
95.00	-56.618	-15.880	
96.00	-56.245	-6.876	
97.00	-57.082	0.857	
98.00	-57.011	8.727	
99.00	-58.180	15.478	
100.00	-58.785	19.260	
101.00	-60.092	28.975	
102.00	-60.299	44.580	
103.00	-61.023	50.605	
104.00	-60.811	51.259	
105.00	-61.989	56.911	
106.00	-63.127	62.205	
107.00	-62.257	62.269	
108.00	-61.860	73.582	
109.00	-58.860	72.259	
110.00	-58.018	73.691	
111.00	-55.172	81.807	
112.00	-53.577	87.932	
113.00	-51.584	93.348	
114.00	-49.817	101.036	
115.00	-48.152	111.464	
116.00	-46.641	118.582	
117.00	-45.236	125.823	
118.00	-44.175	133.805	
119.00	-43.159	141.894	
120.00	-42.522	149.672	
121.00	-42.010	157.825	
122.00	-41.822	165.550	
123.00	-41.792	173.992	
124.00	-42.067	-177.934	
125.00	-42.813	-168.663	
126.00	-44.087	-158.749	
127.00	-45.901	-146.578	
128.00	-48.677	-126.650	
129.00	-52.356	-94.293	
130.00	-52.700	-34.735	
131.00	-48.562	1.146	
132.00	-45.107	19.234	
133.00	-42.997	31.876	
134.00	-41.665	41.996	
135.00	-41.127	51.113	
136.00	-41.161	59.656	
137.00	-41.959	69.190	
138.00	-43.700	81.388	
139.00	-46.590	99.628	
140.00	-50.036	137.065	
141.00	-49.657	-169.029	
142.00	-45.544	-134.159	
143.00	-42.740	-119.362	
144.00	-41.013	-109.180	
145.00	-40.374	-101.125	
146.00	-40.718	-93.284	
147.00	-41.975	-83.915	
148.00	-44.644	-73.542	
149.00	-49.526	-48.892	
150.00	-52.751	14.832	
151.00	-47.638	60.695	
152.00	-44.454	75.012	
153.00	-43.217	82.033	
154.00	-43.343	85.289	
155.00	-45.497	82.929	
156.00	-50.966	68.650	
157.00	-54.784	-20.997	
158.00	-45.863	-58.877	
159.00	-41.566	-66.002	
160.00	-39.489	-69.144	
161.00	-38.545	-72.606	
162.00	-39.019	-77.894	
163.00	-40.774	-88.079	
164.00	-43.477	-108.671	
165.00	-45.047	-149.898	
166.00	-42.890	172.341	
167.00	-40.839	153.544	
168.00	-40.118	142.340	
169.00	-40.913	131.779	
170.00	-43.757	113.372	
171.00	-47.770	67.650	
172.00	-44.639	2.483	
173.00	-40.020	-20.882	
174.00	-37.674	-34.794	
175.00	-37.215	-48.028	
176.00	-38.349	-69.620	
177.00	-39.185	-113.294	
178.00	-35.149	-158.419	
179.00	-30.393	-179.541	
180.00	-26.801	169.835	
181.00	-24.266	163.742	
182.00	-22.530	159.415	
183.00	-21.404	156.014	
184.00	-20.855	153.338	
185.00	-20.804	150.896	
186.00	-21.282	148.762	
187.00	-22.260	147.014	
188.00	-23.795	145.282	
189.00	-25.965	143.483	
190.00	-28.863	141.162	
191.00	-32.703	136.995	
192.00	-37.753	126.055	
193.00	-42.939	93.777	
194.00	-42.507	53.195	
195.00	-39.825	42.161	
196.00	-37.732	43.836	
197.00	-36.257	49.005	
198.00	-35.265	54.826	
199.00	-34.848	59.043	
200.00	-35.134	62.556	
201.00	-36.191	64.999	
202.00	-38.284	69.374	
203.00	-42.049	79.323	
204.00	-47.688	111.140	
205.00	-46.904	177.180	
206.00	-42.260	-160.946	
207.00	-39.703	-154.448	
208.00	-38.677	-152.355	
209.00	-38.799	-152.141	
210.00	-40.097	-151.469	
211.00	-42.402	-148.813	
212.00	-46.481	-140.175	
213.00	-51.908	-98.599	
214.00	-49.207	-44.810	
215.00	-45.252	-28.498	
216.00	-42.987	-25.474	
217.00	-42.262	-26.357	
218.00	-42.219	-29.145	
219.00	-43.391	-31.926	
220.00	-45.480	-34.673	
221.00	-48.724	-33.840	
222.00	-54.156	-22.014	
223.00	-58.774	40.765	
224.00	-53.685	78.163	
225.00	-50.268	83.938	
226.00	-48.614	81.611	
227.00	-47.914	75.863	
228.00	-48.287	68.141	
229.00	-49.581	57.702	
230.00	-51.430	52.217	
231.00	-54.628	35.542	
232.00	-61.017	9.379	
233.00	-66.086	-80.647	
234.00	-58.467	-131.368	
235.00	-54.616	-148.899	
236.00	-52.026	-159.687	
237.00	-50.678	-171.176	
238.00	-49.505	178.474	
239.00	-49.526	165.636	
240.00	-49.542	156.175	
241.00	-50.021	145.098	
242.00	-50.461	135.211	
243.00	-51.397	123.008	
244.00	-52.798	108.613	
245.00	-54.098	94.863	
246.00	-55.932	79.203	
247.00	-57.769	61.355	
248.00	-59.535	34.345	
249.00	-60.179	6.334	
250.00	-61.219	-21.324	
251.00	-59.979	-42.776	
252.00	-59.146	-68.037	
253.00	-59.259	-84.976	
254.00	-58.394	-98.803	
255.00	-57.960	-113.062	
256.00	-58.074	-123.566	
257.00	-58.346	-131.587	
258.00	-58.301	-147.013	
259.00	-58.768	-149.534	
260.00	-59.448	-164.023	
261.00	-59.756	-166.193	
262.00	-61.412	-171.957	
263.00	-62.104	172.069	
264.00	-63.122	161.550	
265.00	-65.773	155.491	
266.00	-66.514	143.028	
267.00	-67.388	125.170	
268.00	-65.258	111.395	
269.00	-69.036	84.494	
270.00	-71.959	69.209	
271.00	-69.166	38.234	
272.00	-67.873	20.929	
273.00	-64.419	11.210	
274.00	-63.819	7.314	
275.00	-63.851	7.731	
276.00	-62.397	-5.580	
277.00	-61.093	-7.000	
278.00	-63.177	-13.289	
279.00	-61.913	-20.733	
280.00	-61.662	-26.115	
281.00	-60.893	-34.112	
282.00	-60.406	-37.179	
283.00	-60.671	-38.540	
284.00	-61.022	-46.076	
285.00	-62.200	-56.822	
286.00	-62.245	-62.929	
287.00	-63.442	-64.823	
288.00	-66.319	-73.123	
289.00	-66.146	-85.630	
290.00	-67.504	-86.912	
291.00	-71.436	-102.682	
292.00	-71.519	-171.346	
293.00	-71.375	160.934	
294.00	-68.716	155.083	
295.00	-69.923	135.276	
296.00	-66.361	107.523	
297.00	-67.971	86.394	
298.00	-64.542	78.178	
299.00	-63.759	57.794	
300.00	-64.777	53.317	
301.00	-65.681	37.223	
302.00	-64.906	30.145	
303.00	-65.631	5.025	
304.00	-66.891	-3.400	
305.00	-67.756	-25.655	
306.00	-70.434	-61.494	
307.00	-69.580	-77.532	
308.00	-69.466	-92.316	
309.00	-71.356	-138.853	
310.00	-72.997	-146.401	
311.00	-67.810	170.076	
312.00	-68.854	145.035	
313.00	-69.284	122.493	
314.00	-71.081	91.477	
315.00	-68.982	68.005	
316.00	-67.076	53.174	
317.00	-67.703	26.575	
318.00	-69.197	14.370	
319.00	-66.592	2.912	
320.00	-71.095	-16.418	
321.00	-72.527	-54.074	
322.00	-77.000	-129.248	
323.00	-71.432	-171.953	
324.00	-64.687	172.324	
325.00	-64.081	154.786	
326.00	-61.055	147.564	
327.00	-60.025	138.377	
328.00	-60.590	124.814	
329.00	-60.543	122.492	
330.00	-61.876	106.352	
331.00	-63.196	98.977	
332.00	-63.930	105.545	
333.00	-64.517	102.863	
334.00	-65.074	117.258	
335.00	-66.279	119.089	
336.00	-62.572	135.567	
337.00	-60.811	143.805	
338.00	-59.336	142.439	
339.00	-58.236	145.429	
340.00	-58.020	144.571	
341.00	-58.030	143.373	
342.00	-59.008	143.839	
343.00	-60.383	138.283	
344.00	-62.950	143.767	
345.00	-66.563	143.302	
346.00	-70.941	159.753	
347.00	-70.329	158.615	
348.00	-70.054	-177.821	
349.00	-63.577	-173.044	
350.00	-60.313	-170.461	
351.00	-57.058	-172.198	
352.00	-55.405	-172.047	
353.00	-53.330	-172.800	
354.00	-52.285	-169.933	
355.00	-51.785	-165.856	
356.00	-51.376	-161.080	
357.00	-52.089	-155.684	
358.00	-52.976	-147.548	
359.00	-54.456	-142.632	
Frequency	3650.00	MHz	
Channel	test		
Scan Axis name	Azimuth  [deg]		
Scan Axis	Amplitude	Phase	
			
0.00	-55.058	45.097	
1.00	-59.111	57.215	
2.00	-66.469	84.656	
3.00	-67.666	-178.010	
4.00	-61.288	-135.221	
5.00	-57.740	-123.146	
6.00	-56.575	-107.444	
7.00	-55.825	-102.431	
8.00	-56.944	-99.552	
9.00	-58.605	-88.246	
10.00	-61.257	-81.687	
11.00	-66.338	-76.831	
12.00	-74.814	-85.281	
13.00	-74.235	-162.714	
14.00	-66.370	-172.409	
15.00	-63.977	-151.171	
16.00	-60.770	-137.093	
17.00	-59.214	-131.066	
18.00	-57.504	-113.108	
19.00	-57.893	-107.798	
20.00	-57.303	-99.489	
21.00	-59.807	-96.931	
22.00	-62.113	-99.067	
23.00	-64.756	-120.795	
24.00	-65.841	-146.592	
25.00	-63.001	-164.002	
26.00	-60.241	-169.988	
27.00	-59.964	-155.674	
28.00	-59.226	-152.988	
29.00	-59.076	-139.394	
30.00	-59.807	-116.115	
31.00	-60.649	-99.763	
32.00	-60.811	-75.016	
33.00	-62.523	-57.711	
34.00	-64.559	-34.195	
35.00	-65.117	-10.135	
36.00	-70.488	19.692	
37.00	-81.324	138.280	
38.00	-70.872	165.604	
39.00	-64.081	-161.199	
40.00	-62.823	-141.518	
41.00	-59.602	-125.160	
42.00	-59.163	-113.255	
43.00	-58.465	-101.259	
44.00	-58.445	-77.407	
45.00	-59.499	-61.884	
46.00	-59.992	-40.751	
47.00	-61.875	-16.926	
48.00	-63.695	8.930	
49.00	-62.623	49.461	
50.00	-61.341	77.744	
51.00	-61.135	112.403	
52.00	-61.552	131.167	
53.00	-60.672	155.211	
54.00	-59.376	171.932	
55.00	-59.618	-167.954	
56.00	-59.820	-147.168	
57.00	-59.695	-125.142	
58.00	-60.804	-98.032	
59.00	-60.101	-79.729	
60.00	-61.877	-57.703	
61.00	-62.075	-36.137	
62.00	-61.819	-14.696	
63.00	-60.595	8.960	
64.00	-61.826	29.225	
65.00	-61.327	41.019	
66.00	-62.196	68.277	
67.00	-62.216	81.687	
68.00	-62.127	101.523	
69.00	-62.987	123.171	
70.00	-64.683	136.016	
71.00	-66.376	156.270	
72.00	-66.763	-170.236	
73.00	-67.120	-149.340	
74.00	-67.963	-125.276	
75.00	-68.654	-99.079	
76.00	-64.867	-70.595	
77.00	-63.081	-39.299	
78.00	-62.052	-30.373	
79.00	-61.407	-6.863	
80.00	-60.088	1.539	
81.00	-59.724	13.511	
82.00	-58.950	31.841	
83.00	-57.777	30.536	
84.00	-57.241	44.991	
85.00	-56.886	53.945	
86.00	-56.583	65.574	
87.00	-55.619	72.584	
88.00	-55.250	80.132	
89.00	-55.330	89.394	
90.00	-54.649	96.862	
91.00	-55.288	106.522	
92.00	-53.876	109.972	
93.00	-55.559	116.675	
94.00	-55.307	123.708	
95.00	-55.165	131.834	
96.00	-55.320	139.738	
97.00	-56.271	149.790	
98.00	-56.388	155.994	
99.00	-57.184	158.947	
100.00	-57.211	170.501	
101.00	-57.448	178.353	
102.00	-58.004	-175.738	
103.00	-58.438	-167.499	
104.00	-58.639	-155.745	
105.00	-58.860	-155.855	
106.00	-58.521	-145.052	
107.00	-57.891	-134.778	
108.00	-57.236	-124.618	
109.00	-56.407	-116.160	
110.00	-54.788	-108.316	
111.00	-53.069	-98.591	
112.00	-51.547	-90.859	
113.00	-50.144	-83.340	
114.00	-48.830	-76.845	
115.00	-47.270	-69.898	
116.00	-46.203	-61.139	
117.00	-45.217	-54.978	
118.00	-44.138	-46.987	
119.00	-43.305	-40.639	
120.00	-42.658	-33.994	
121.00	-42.082	-26.722	
122.00	-41.880	-20.768	
123.00	-41.817	-14.000	
124.00	-42.132	-8.150	
125.00	-42.889	-2.207	
126.00	-44.005	2.843	
127.00	-46.137	6.304	
128.00	-49.289	8.187	
129.00	-55.358	2.635	
130.00	-61.122	-92.951	
131.00	-51.564	-125.463	
132.00	-46.753	-126.926	
133.00	-43.914	-124.160	
134.00	-42.396	-119.898	
135.00	-41.546	-114.642	
136.00	-41.349	-108.482	
137.00	-41.858	-102.185	
138.00	-43.168	-94.561	
139.00	-45.853	-84.409	
140.00	-49.998	-62.701	
141.00	-54.125	-6.361	
142.00	-50.156	50.015	
143.00	-45.922	70.446	
144.00	-43.773	80.768	
145.00	-42.675	89.108	
146.00	-42.643	97.272	
147.00	-43.888	103.719	
148.00	-46.338	115.509	
149.00	-50.512	136.282	
150.00	-53.933	-161.091	
151.00	-49.105	-115.549	
152.00	-45.590	-100.246	
153.00	-43.925	-96.435	
154.00	-43.655	-97.588	
155.00	-44.362	-103.241	
156.00	-46.178	-119.943	
157.00	-47.303	-150.859	
158.00	-45.683	174.895	
159.00	-43.412	155.952	
160.00	-41.925	144.439	
161.00	-41.528	136.993	
162.00	-42.575	127.929	
163.00	-44.901	112.567	
164.00	-48.867	80.124	
165.00	-48.193	18.627	
166.00	-43.851	-13.782	
167.00	-41.310	-29.402	
168.00	-40.446	-41.899	
169.00	-40.791	-57.416	
170.00	-41.992	-81.422	
171.00	-42.498	-118.103	
172.00	-40.378	-152.875	
173.00	-38.014	-175.478	
174.00	-36.612	168.519	
175.00	-36.551	152.760	
176.00	-37.715	128.236	
177.00	-38.141	85.243	
178.00	-34.659	43.161	
179.00	-30.273	21.205	
180.00	-26.877	9.086	
181.00	-24.448	1.503	
182.00	-22.777	-3.963	
183.00	-21.721	-8.527	
184.00	-21.238	-12.432	
185.00	-21.278	-16.111	
186.00	-21.868	-19.836	
187.00	-22.984	-23.585	
188.00	-24.678	-27.996	
189.00	-27.022	-33.719	
190.00	-30.140	-42.303	
191.00	-33.913	-57.898	
192.00	-37.395	-86.731	
193.00	-37.903	-119.705	
194.00	-36.773	-137.267	
195.00	-35.835	-141.624	
196.00	-35.354	-139.565	
197.00	-35.165	-134.692	
198.00	-35.152	-128.501	
199.00	-35.502	-123.851	
200.00	-36.446	-120.278	
201.00	-38.277	-117.705	
202.00	-41.717	-115.815	
203.00	-48.633	-109.789	
204.00	-57.504	22.247	
205.00	-45.131	46.974	
206.00	-40.902	47.963	
207.00	-38.930	46.430	
208.00	-38.490	43.417	
209.00	-38.995	41.970	
210.00	-40.441	40.004	
211.00	-43.379	39.444	
212.00	-48.771	44.509	
213.00	-56.319	99.538	
214.00	-50.149	164.058	
215.00	-45.979	170.827	
216.00	-43.764	170.368	
217.00	-43.158	166.437	
218.00	-43.533	162.842	
219.00	-44.800	158.950	
220.00	-47.436	156.600	
221.00	-51.900	159.703	
222.00	-57.865	-173.955	
223.00	-56.992	-102.083	
224.00	-51.972	-86.385	
225.00	-49.044	-89.234	
226.00	-47.725	-93.983	
227.00	-47.264	-101.296	
228.00	-47.735	-111.890	
229.00	-48.950	-121.239	
230.00	-50.487	-133.457	
231.00	-53.123	-151.706	
232.00	-56.824	-177.130	
233.00	-59.202	136.948	
234.00	-58.491	89.610	
235.00	-55.374	57.352	
236.00	-53.997	38.611	
237.00	-52.628	24.464	
238.00	-52.816	7.534	
239.00	-53.034	-5.432	
240.00	-53.306	-19.466	
241.00	-54.140	-35.737	
242.00	-55.214	-57.474	
243.00	-56.428	-78.283	
244.00	-57.200	-104.803	
245.00	-56.498	-130.366	
246.00	-56.554	-151.754	
247.00	-56.264	-169.868	
248.00	-56.400	173.792	
249.00	-55.326	155.934	
250.00	-54.883	142.647	
251.00	-55.565	130.369	
252.00	-55.300	118.954	
253.00	-55.962	104.927	
254.00	-56.507	96.540	
255.00	-56.026	81.095	
256.00	-56.846	72.046	
257.00	-56.617	57.423	
258.00	-56.743	47.384	
259.00	-58.220	39.550	
260.00	-59.180	29.571	
261.00	-59.124	22.261	
262.00	-60.287	9.128	
263.00	-61.164	7.448	
264.00	-64.029	13.143	
265.00	-64.786	-0.329	
266.00	-68.430	14.539	
267.00	-72.860	3.270	
268.00	-75.992	-41.878	
269.00	-75.807	-127.892	
270.00	-73.926	-162.816	
271.00	-69.943	-153.454	
272.00	-67.128	-150.055	
273.00	-65.978	-142.728	
274.00	-64.601	-153.955	
275.00	-63.948	-149.586	
276.00	-64.651	-168.961	
277.00	-63.829	-170.426	
278.00	-62.916	176.426	
279.00	-62.418	166.290	
280.00	-62.587	157.930	
281.00	-62.715	157.431	
282.00	-63.509	146.562	
283.00	-62.769	136.271	
284.00	-61.727	133.167	
285.00	-61.570	121.302	
286.00	-64.005	116.881	
287.00	-64.398	101.752	
288.00	-64.574	107.479	
289.00	-66.577	88.671	
290.00	-68.392	78.768	
291.00	-70.342	59.945	
292.00	-70.336	44.595	
293.00	-70.456	11.345	
294.00	-74.472	-23.367	
295.00	-71.659	-36.876	
296.00	-71.347	-59.395	
297.00	-68.359	-76.636	
298.00	-68.544	-97.803	
299.00	-68.915	-109.417	
300.00	-71.331	-143.257	
301.00	-70.389	-176.550	
302.00	-70.494	146.631	
303.00	-68.136	128.150	
304.00	-66.081	119.846	
305.00	-66.012	96.970	
306.00	-64.011	86.901	
307.00	-64.638	87.865	
308.00	-64.608	75.463	
309.00	-63.966	70.968	
310.00	-67.317	61.254	
311.00	-71.323	46.494	
312.00	-75.270	59.670	
313.00	-75.539	-148.616	
314.00	-72.802	-170.209	
315.00	-68.042	-155.529	
316.00	-65.107	-168.258	
317.00	-64.023	-170.137	
318.00	-64.822	-174.736	
319.00	-64.256	-169.211	
320.00	-67.374	-179.082	
321.00	-69.179	-155.136	
322.00	-76.544	-133.643	
323.00	-69.129	-39.771	
324.00	-69.799	-41.184	
325.00	-63.542	-47.341	
326.00	-62.957	-42.654	
327.00	-61.398	-45.827	
328.00	-62.928	-56.917	
329.00	-62.224	-52.768	
330.00	-64.044	-73.319	
331.00	-65.046	-83.306	
332.00	-65.644	-91.662	
333.00	-66.821	-90.734	
334.00	-66.974	-95.776	
335.00	-64.842	-91.181	
336.00	-63.907	-87.649	
337.00	-61.656	-79.675	
338.00	-60.372	-72.935	
339.00	-59.275	-64.499	
340.00	-59.098	-60.167	
341.00	-58.012	-56.861	
342.00	-58.186	-53.513	
343.00	-58.997	-51.589	
344.00	-59.566	-44.054	
345.00	-62.168	-48.216	
346.00	-62.815	-44.379	
347.00	-65.072	-46.996	
348.00	-69.365	-53.573	
349.00	-67.184	-26.527	
350.00	-64.890	-23.992	
351.00	-61.492	-15.131	
352.00	-59.104	-3.937	
353.00	-56.292	-0.550	
354.00	-54.390	9.700	
355.00	-52.848	12.911	
356.00	-52.169	20.905	
357.00	-51.944	26.424	
358.00	-52.253	34.378	
359.00	-53.434	42.184	
Frequency	3700.00	MHz	
Channel	test		
Scan Axis name	Azimuth  [deg]		
Scan Axis	Amplitude	Phase	
			
0.00	-55.901	-125.228	
1.00	-58.735	-104.487	
2.00	-62.633	-73.506	
3.00	-62.786	-29.769	
4.00	-60.018	14.685	
5.00	-57.588	40.585	
6.00	-56.233	50.184	
7.00	-55.785	58.040	
8.00	-56.955	63.641	
9.00	-59.137	67.619	
10.00	-62.885	69.404	
11.00	-68.528	60.546	
12.00	-68.146	6.680	
13.00	-66.079	-10.504	
14.00	-63.385	0.890	
15.00	-62.358	11.033	
16.00	-60.498	28.455	
17.00	-59.043	40.431	
18.00	-58.194	57.886	
19.00	-59.250	64.487	
20.00	-59.430	73.371	
21.00	-61.030	76.719	
22.00	-65.068	69.526	
23.00	-66.557	34.807	
24.00	-66.855	-4.497	
25.00	-63.193	-7.516	
26.00	-60.848	-2.980	
27.00	-60.307	4.757	
28.00	-60.356	16.484	
29.00	-61.255	35.987	
30.00	-61.988	56.244	
31.00	-63.286	80.509	
32.00	-63.828	94.491	
33.00	-65.022	127.090	
34.00	-68.369	154.950	
35.00	-70.407	-162.863	
36.00	-74.063	-90.474	
37.00	-68.033	-51.693	
38.00	-64.546	-19.262	
39.00	-64.839	-2.454	
40.00	-63.003	18.057	
41.00	-60.399	39.953	
42.00	-60.177	62.219	
43.00	-59.647	83.087	
44.00	-59.599	97.184	
45.00	-59.701	118.352	
46.00	-60.719	139.967	
47.00	-62.139	154.003	
48.00	-63.063	178.124	
49.00	-66.474	-152.860	
50.00	-67.938	-108.420	
51.00	-66.532	-62.445	
52.00	-65.306	-37.077	
53.00	-64.173	-7.189	
54.00	-64.072	12.305	
55.00	-63.368	34.124	
56.00	-61.703	54.671	
57.00	-61.385	69.998	
58.00	-62.308	93.729	
59.00	-62.754	113.259	
60.00	-62.351	127.227	
61.00	-63.832	153.422	
62.00	-64.795	174.359	
63.00	-64.213	-166.234	
64.00	-64.100	-149.363	
65.00	-66.238	-130.105	
66.00	-66.199	-114.103	
67.00	-68.398	-88.956	
68.00	-70.824	-67.631	
69.00	-71.930	-48.878	
70.00	-73.353	-9.436	
71.00	-71.590	28.540	
72.00	-69.741	47.109	
73.00	-69.777	96.485	
74.00	-67.835	111.601	
75.00	-66.621	142.555	
76.00	-64.741	146.406	
77.00	-65.051	165.754	
78.00	-62.898	170.819	
79.00	-62.017	-177.052	
80.00	-61.567	-167.670	
81.00	-60.545	-155.629	
82.00	-59.943	-142.190	
83.00	-60.087	-134.283	
84.00	-59.317	-127.872	
85.00	-59.650	-117.391	
86.00	-59.695	-111.018	
87.00	-59.861	-102.573	
88.00	-59.853	-89.782	
89.00	-59.123	-88.966	
90.00	-59.614	-79.023	
91.00	-59.559	-72.717	
92.00	-60.950	-66.413	
93.00	-60.870	-57.017	
94.00	-61.955	-51.800	
95.00	-60.668	-46.774	
96.00	-62.023	-40.021	
97.00	-64.935	-30.162	
98.00	-63.292	-33.567	
99.00	-64.512	-21.699	
100.00	-66.411	-19.507	
101.00	-68.642	-27.918	
102.00	-66.022	-27.355	
103.00	-66.329	-12.363	
104.00	-65.463	-7.587	
105.00	-65.976	6.726	
106.00	-64.483	17.878	
107.00	-62.766	24.400	
108.00	-60.096	31.515	
109.00	-58.701	42.783	
110.00	-57.307	50.602	
111.00	-55.522	61.851	
112.00	-53.503	72.013	
113.00	-52.013	80.814	
114.00	-50.080	92.508	
115.00	-48.498	99.399	
116.00	-47.216	108.374	
117.00	-46.127	118.108	
118.00	-44.987	126.971	
119.00	-44.024	136.042	
120.00	-43.286	144.561	
121.00	-42.959	151.017	
122.00	-42.647	158.671	
123.00	-42.727	166.795	
124.00	-42.981	174.028	
125.00	-43.881	179.927	
126.00	-45.370	-173.420	
127.00	-47.562	-167.887	
128.00	-51.800	-163.204	
129.00	-63.550	-167.818	
130.00	-57.928	44.720	
131.00	-49.641	47.254	
132.00	-45.617	50.769	
133.00	-43.176	57.255	
134.00	-41.774	62.483	
135.00	-40.926	68.379	
136.00	-40.788	74.264	
137.00	-41.321	80.654	
138.00	-42.701	86.332	
139.00	-44.989	95.965	
140.00	-49.762	109.264	
141.00	-58.894	155.113	
142.00	-53.201	-107.291	
143.00	-47.037	-86.764	
144.00	-43.992	-77.846	
145.00	-42.662	-70.317	
146.00	-42.342	-63.134	
147.00	-43.011	-53.499	
148.00	-44.811	-41.571	
149.00	-47.699	-22.530	
150.00	-50.200	17.515	
151.00	-48.595	58.304	
152.00	-46.331	77.787	
153.00	-44.674	86.261	
154.00	-44.354	86.403	
155.00	-45.163	77.470	
156.00	-46.100	57.126	
157.00	-45.277	28.903	
158.00	-43.248	7.038	
159.00	-41.241	-5.920	
160.00	-40.071	-12.370	
161.00	-39.950	-16.481	
162.00	-41.098	-19.562	
163.00	-43.823	-24.670	
164.00	-49.468	-34.127	
165.00	-58.582	-143.579	
166.00	-47.870	169.612	
167.00	-44.154	158.827	
168.00	-43.445	148.270	
169.00	-44.657	131.569	
170.00	-46.939	92.482	
171.00	-44.613	39.882	
172.00	-40.046	12.649	
173.00	-37.164	-2.244	
174.00	-35.895	-14.396	
175.00	-35.977	-30.267	
176.00	-36.844	-56.784	
177.00	-35.934	-98.458	
178.00	-32.217	-131.705	
179.00	-28.310	-149.898	
180.00	-25.282	-160.102	
181.00	-23.159	-166.809	
182.00	-21.735	-171.880	
183.00	-20.935	-176.120	
184.00	-20.709	-179.841	
185.00	-21.013	176.313	
186.00	-21.913	172.525	
187.00	-23.444	168.153	
188.00	-25.662	162.736	
189.00	-28.822	154.779	
190.00	-33.061	140.221	
191.00	-37.685	107.277	
192.00	-38.122	59.950	
193.00	-36.015	37.651	
194.00	-34.955	31.494	
195.00	-34.796	32.645	
196.00	-35.188	38.911	
197.00	-35.915	48.015	
198.00	-36.638	58.281	
199.00	-37.544	67.911	
200.00	-39.129	76.236	
201.00	-41.872	84.893	
202.00	-47.148	103.728	
203.00	-51.929	179.992	
204.00	-44.860	-134.464	
205.00	-40.688	-125.750	
206.00	-38.644	-124.827	
207.00	-37.822	-125.777	
208.00	-38.212	-128.110	
209.00	-39.581	-131.328	
210.00	-42.417	-133.499	
211.00	-47.611	-136.396	
212.00	-65.174	-117.302	
213.00	-50.942	22.973	
214.00	-45.287	22.305	
215.00	-42.901	16.791	
216.00	-42.085	11.504	
217.00	-42.335	5.668	
218.00	-43.435	-0.211	
219.00	-45.596	-3.833	
220.00	-49.256	-6.365	
221.00	-55.362	3.582	
222.00	-60.500	72.557	
223.00	-54.385	107.854	
224.00	-50.939	106.511	
225.00	-49.148	99.962	
226.00	-48.774	87.764	
227.00	-49.023	74.743	
228.00	-49.831	59.002	
229.00	-50.743	38.233	
230.00	-51.826	11.773	
231.00	-52.111	-15.027	
232.00	-51.458	-42.532	
233.00	-50.797	-64.546	
234.00	-50.787	-81.601	
235.00	-50.557	-97.007	
236.00	-50.781	-113.237	
237.00	-51.661	-128.826	
238.00	-52.744	-144.518	
239.00	-54.114	-161.412	
240.00	-56.556	-177.226	
241.00	-59.134	160.117	
242.00	-61.638	112.908	
243.00	-61.168	68.476	
244.00	-58.117	36.026	
245.00	-56.868	18.903	
246.00	-54.859	4.938	
247.00	-53.831	-9.093	
248.00	-53.217	-18.066	
249.00	-53.349	-30.949	
250.00	-53.067	-37.089	
251.00	-53.366	-49.106	
252.00	-54.033	-57.939	
253.00	-54.780	-62.877	
254.00	-55.871	-74.861	
255.00	-56.298	-82.542	
256.00	-57.905	-96.767	
257.00	-59.138	-105.726	
258.00	-59.507	-118.153	
259.00	-59.719	-128.543	
260.00	-61.522	-138.020	
261.00	-61.761	-139.718	
262.00	-62.316	-146.171	
263.00	-62.050	-154.650	
264.00	-62.806	-163.188	
265.00	-64.352	-169.677	
266.00	-64.854	-175.846	
267.00	-65.997	-174.597	
268.00	-67.583	-179.943	
269.00	-70.248	-172.334	
270.00	-70.121	175.049	
271.00	-68.345	174.612	
272.00	-69.515	176.863	
273.00	-70.358	-178.855	
274.00	-81.247	-126.489	
275.00	-78.963	-89.284	
276.00	-72.083	-7.205	
277.00	-68.757	-18.848	
278.00	-66.386	-15.029	
279.00	-65.970	-10.541	
280.00	-65.491	-20.614	
281.00	-64.199	-14.166	
282.00	-65.512	-18.543	
283.00	-63.922	-26.528	
284.00	-63.490	-39.634	
285.00	-64.279	-46.753	
286.00	-63.393	-57.088	
287.00	-63.356	-66.585	
288.00	-64.170	-81.053	
289.00	-64.753	-81.519	
290.00	-63.672	-97.211	
291.00	-66.153	-109.322	
292.00	-66.254	-106.231	
293.00	-67.549	-136.040	
294.00	-68.283	-158.223	
295.00	-70.590	-172.856	
296.00	-71.188	151.368	
297.00	-69.249	161.484	
298.00	-68.748	140.832	
299.00	-68.831	123.595	
300.00	-75.221	123.481	
301.00	-72.407	124.611	
302.00	-79.271	148.430	
303.00	-73.737	139.471	
304.00	-71.363	-171.382	
305.00	-72.704	-151.961	
306.00	-66.471	-141.412	
307.00	-66.277	-145.937	
308.00	-65.309	-151.094	
309.00	-64.314	-160.650	
310.00	-64.896	-157.235	
311.00	-64.388	-155.765	
312.00	-67.399	-174.762	
313.00	-74.967	-160.170	
314.00	-76.535	166.640	
315.00	-78.796	24.504	
316.00	-71.849	0.635	
317.00	-68.551	-2.354	
318.00	-65.524	-7.406	
319.00	-64.496	11.264	
320.00	-65.319	3.536	
321.00	-68.767	-1.363	
322.00	-69.755	25.396	
323.00	-72.617	63.071	
324.00	-71.588	109.255	
325.00	-69.411	101.761	
326.00	-65.249	106.700	
327.00	-64.132	103.209	
328.00	-64.229	100.566	
329.00	-63.504	96.187	
330.00	-65.938	95.241	
331.00	-65.447	67.629	
332.00	-67.280	61.258	
333.00	-65.872	44.575	
334.00	-64.901	42.853	
335.00	-66.132	35.215	
336.00	-63.520	39.705	
337.00	-62.615	59.517	
338.00	-62.087	68.304	
339.00	-61.574	82.115	
340.00	-61.748	96.467	
341.00	-60.940	103.830	
342.00	-60.848	112.978	
343.00	-60.538	121.788	
344.00	-60.839	125.892	
345.00	-62.088	122.979	
346.00	-62.879	117.018	
347.00	-63.760	120.168	
348.00	-64.615	114.165	
349.00	-65.857	104.939	
350.00	-64.415	117.950	
351.00	-62.749	138.726	
352.00	-61.743	157.259	
353.00	-58.564	171.302	
354.00	-55.531	-178.297	
355.00	-54.283	-169.764	
356.00	-53.157	-161.886	
357.00	-52.293	-151.003	
358.00	-52.582	-144.565	
359.00	-52.756	-136.338	
Frequency	3750.00	MHz	
Channel	test		
Scan Axis name	Azimuth  [deg]		
Scan Axis	Amplitude	Phase	
			
0.00	-54.366	56.964	
1.00	-57.168	77.894	
2.00	-60.717	100.598	
3.00	-63.873	145.148	
4.00	-62.677	-162.434	
5.00	-59.462	-146.601	
6.00	-58.771	-135.325	
7.00	-59.489	-127.322	
8.00	-60.740	-127.131	
9.00	-63.815	-141.944	
10.00	-67.108	-171.238	
11.00	-64.590	144.889	
12.00	-62.607	138.714	
13.00	-60.810	151.346	
14.00	-62.370	160.878	
15.00	-62.742	-173.109	
16.00	-62.150	-134.847	
17.00	-60.231	-107.549	
18.00	-58.763	-90.829	
19.00	-59.689	-79.811	
20.00	-60.643	-78.673	
21.00	-67.276	-81.285	
22.00	-73.651	-112.598	
23.00	-67.965	-171.174	
24.00	-62.966	179.147	
25.00	-60.311	178.258	
26.00	-59.579	-173.479	
27.00	-57.830	-170.898	
28.00	-59.536	-160.258	
29.00	-61.828	-141.228	
30.00	-64.934	-116.686	
31.00	-70.931	-74.062	
32.00	-69.500	-11.155	
33.00	-68.165	32.493	
34.00	-66.258	58.713	
35.00	-64.807	90.558	
36.00	-64.055	128.312	
37.00	-62.449	149.011	
38.00	-61.749	176.108	
39.00	-59.896	-155.356	
40.00	-59.987	-134.945	
41.00	-60.680	-115.123	
42.00	-60.139	-91.590	
43.00	-61.223	-67.504	
44.00	-63.138	-49.070	
45.00	-65.193	-14.438	
46.00	-66.215	14.325	
47.00	-65.308	57.171	
48.00	-64.687	98.730	
49.00	-63.187	127.372	
50.00	-61.925	147.955	
51.00	-60.509	169.984	
52.00	-61.537	-165.241	
53.00	-59.520	-145.881	
54.00	-61.485	-117.187	
55.00	-60.643	-102.676	
56.00	-60.990	-76.884	
57.00	-61.689	-50.448	
58.00	-61.363	-31.325	
59.00	-61.890	-6.061	
60.00	-62.669	21.105	
61.00	-63.058	41.110	
62.00	-64.248	75.103	
63.00	-64.793	107.849	
64.00	-63.423	137.782	
65.00	-61.497	164.633	
66.00	-60.565	-173.153	
67.00	-60.533	-152.829	
68.00	-59.768	-130.078	
69.00	-58.941	-112.092	
70.00	-58.006	-101.107	
71.00	-57.825	-80.174	
72.00	-57.396	-63.693	
73.00	-56.878	-50.067	
74.00	-57.047	-40.283	
75.00	-56.698	-20.701	
76.00	-56.856	-6.954	
77.00	-56.957	6.950	
78.00	-57.001	23.118	
79.00	-56.873	37.283	
80.00	-57.091	50.580	
81.00	-56.620	62.819	
82.00	-56.625	81.201	
83.00	-57.310	89.243	
84.00	-57.593	103.742	
85.00	-57.656	112.375	
86.00	-57.784	125.701	
87.00	-59.726	136.735	
88.00	-59.739	153.245	
89.00	-59.911	154.728	
90.00	-60.228	171.346	
91.00	-59.560	-175.183	
92.00	-61.625	-162.241	
93.00	-63.242	-154.523	
94.00	-62.913	-136.408	
95.00	-63.835	-118.562	
96.00	-63.352	-93.209	
97.00	-63.353	-80.029	
98.00	-62.836	-68.142	
99.00	-61.637	-49.504	
100.00	-61.855	-32.971	
101.00	-62.382	-20.419	
102.00	-61.550	-7.883	
103.00	-61.710	5.522	
104.00	-61.958	20.451	
105.00	-61.947	30.835	
106.00	-63.514	51.056	
107.00	-64.385	81.196	
108.00	-68.219	110.777	
109.00	-64.952	134.631	
110.00	-63.427	-175.424	
111.00	-61.629	-153.484	
112.00	-58.749	-132.358	
113.00	-56.178	-120.276	
114.00	-53.860	-104.334	
115.00	-51.626	-92.522	
116.00	-50.152	-77.871	
117.00	-48.720	-66.895	
118.00	-47.167	-55.266	
119.00	-46.235	-45.079	
120.00	-45.209	-34.181	
121.00	-44.573	-25.630	
122.00	-44.191	-13.979	
123.00	-43.995	-4.301	
124.00	-44.135	5.886	
125.00	-44.483	15.455	
126.00	-45.497	26.624	
127.00	-46.926	38.110	
128.00	-49.657	54.415	
129.00	-53.272	80.331	
130.00	-56.369	135.844	
131.00	-52.700	-169.013	
132.00	-48.219	-143.652	
133.00	-45.190	-130.075	
134.00	-43.171	-117.891	
135.00	-42.160	-108.506	
136.00	-41.796	-100.098	
137.00	-42.066	-91.012	
138.00	-43.053	-81.505	
139.00	-45.515	-69.560	
140.00	-49.233	-48.576	
141.00	-53.957	-0.661	
142.00	-51.104	71.612	
143.00	-46.175	96.390	
144.00	-43.336	109.161	
145.00	-41.787	119.293	
146.00	-41.228	128.242	
147.00	-41.535	137.740	
148.00	-42.778	148.456	
149.00	-44.980	162.626	
150.00	-47.551	-170.894	
151.00	-49.052	-133.148	
152.00	-48.157	-99.948	
153.00	-46.851	-85.000	
154.00	-46.561	-80.042	
155.00	-48.091	-87.676	
156.00	-49.451	-117.309	
157.00	-47.342	-154.409	
158.00	-43.370	-172.252	
159.00	-40.592	-179.520	
160.00	-39.092	177.492	
161.00	-38.586	175.973	
162.00	-39.211	175.194	
163.00	-41.258	173.217	
164.00	-45.528	170.152	
165.00	-55.794	143.173	
166.00	-51.616	18.813	
167.00	-45.557	7.433	
168.00	-44.117	3.245	
169.00	-45.586	0.195	
170.00	-52.499	-11.185	
171.00	-55.154	-161.250	
172.00	-43.861	-176.205	
173.00	-39.683	177.085	
174.00	-38.043	169.840	
175.00	-38.486	155.682	
176.00	-39.898	122.819	
177.00	-37.638	71.680	
178.00	-32.414	43.817	
179.00	-28.178	31.162	
180.00	-25.111	24.121	
181.00	-23.007	19.568	
182.00	-21.608	16.122	
183.00	-20.873	13.271	
184.00	-20.722	10.744	
185.00	-21.168	8.254	
186.00	-22.221	5.977	
187.00	-24.007	3.378	
188.00	-26.624	0.274	
189.00	-30.567	-4.124	
190.00	-36.808	-15.332	
191.00	-46.026	-74.874	
192.00	-40.342	-144.424	
193.00	-36.770	-153.588	
194.00	-35.762	-151.845	
195.00	-35.961	-144.710	
196.00	-36.732	-132.142	
197.00	-37.351	-115.977	
198.00	-37.802	-101.225	
199.00	-38.453	-87.871	
200.00	-39.768	-76.804	
201.00	-42.438	-62.909	
202.00	-46.512	-32.169	
203.00	-46.265	24.457	
204.00	-42.496	51.819	
205.00	-39.628	61.387	
206.00	-38.291	64.765	
207.00	-38.216	65.417	
208.00	-39.261	64.830	
209.00	-41.490	62.916	
210.00	-46.232	62.930	
211.00	-58.205	83.772	
212.00	-51.791	-147.129	
213.00	-45.121	-144.716	
214.00	-42.412	-148.160	
215.00	-41.244	-151.559	
216.00	-41.260	-156.326	
217.00	-42.271	-160.225	
218.00	-44.168	-165.101	
219.00	-47.283	-167.487	
220.00	-52.467	-165.624	
221.00	-60.444	-121.620	
222.00	-56.702	-60.842	
223.00	-52.597	-55.837	
224.00	-50.577	-61.555	
225.00	-49.945	-73.436	
226.00	-50.880	-90.555	
227.00	-51.560	-110.296	
228.00	-52.593	-140.861	
229.00	-52.786	-172.162	
230.00	-51.393	158.590	
231.00	-49.908	138.802	
232.00	-49.080	121.575	
233.00	-48.533	104.500	
234.00	-48.293	90.990	
235.00	-48.764	78.813	
236.00	-49.202	64.362	
237.00	-50.495	52.004	
238.00	-51.961	38.144	
239.00	-54.250	19.898	
240.00	-57.269	-2.507	
241.00	-60.245	-46.318	
242.00	-60.930	-86.025	
243.00	-58.943	-120.211	
244.00	-57.765	-141.000	
245.00	-55.579	-159.615	
246.00	-54.633	-173.795	
247.00	-53.799	172.924	
248.00	-53.836	161.405	
249.00	-53.320	155.757	
250.00	-53.472	143.198	
251.00	-54.071	135.733	
252.00	-54.829	129.026	
253.00	-55.917	123.250	
254.00	-56.656	111.880	
255.00	-58.433	114.430	
256.00	-59.403	103.871	
257.00	-60.161	112.186	
258.00	-63.263	103.182	
259.00	-65.510	119.188	
260.00	-65.499	123.298	
261.00	-67.384	131.744	
262.00	-69.362	142.354	
263.00	-68.679	139.303	
264.00	-65.459	136.152	
265.00	-66.553	126.371	
266.00	-68.420	114.564	
267.00	-69.683	102.727	
268.00	-69.277	84.606	
269.00	-65.203	101.513	
270.00	-64.554	105.268	
271.00	-65.027	94.776	
272.00	-64.328	101.746	
273.00	-65.619	103.099	
274.00	-72.823	114.268	
275.00	-72.958	100.916	
276.00	-77.867	91.035	
277.00	-89.592	79.548	
278.00	-81.364	-113.000	
279.00	-72.886	-141.962	
280.00	-72.401	-120.344	
281.00	-75.824	-129.673	
282.00	-71.062	-156.084	
283.00	-68.234	-178.819	
284.00	-66.724	160.066	
285.00	-66.739	164.695	
286.00	-66.902	150.550	
287.00	-65.329	146.932	
288.00	-65.301	137.021	
289.00	-65.949	125.831	
290.00	-64.639	117.197	
291.00	-67.237	97.129	
292.00	-66.040	83.149	
293.00	-63.600	54.460	
294.00	-64.971	40.776	
295.00	-62.720	23.483	
296.00	-61.822	3.186	
297.00	-60.688	-9.073	
298.00	-61.048	-16.213	
299.00	-60.976	-20.758	
300.00	-60.264	-27.599	
301.00	-61.140	-36.609	
302.00	-61.095	-40.559	
303.00	-62.726	-45.288	
304.00	-63.626	-45.225	
305.00	-66.315	-33.099	
306.00	-69.407	-16.995	
307.00	-70.434	-6.659	
308.00	-66.465	6.951	
309.00	-64.573	19.150	
310.00	-65.569	29.902	
311.00	-63.699	22.603	
312.00	-66.024	11.885	
313.00	-66.753	-4.482	
314.00	-68.333	-39.041	
315.00	-69.346	-82.436	
316.00	-67.747	-108.456	
317.00	-62.687	-134.888	
318.00	-62.558	-154.422	
319.00	-60.844	-157.010	
320.00	-62.378	-165.486	
321.00	-63.603	-166.465	
322.00	-66.428	-165.836	
323.00	-76.482	-174.162	
324.00	-78.133	-26.410	
325.00	-69.955	-26.469	
326.00	-68.629	-36.365	
327.00	-64.486	-41.302	
328.00	-64.366	-52.716	
329.00	-67.109	-63.354	
330.00	-69.397	-98.304	
331.00	-68.777	-133.401	
332.00	-64.150	-156.896	
333.00	-64.437	-170.664	
334.00	-62.555	-179.015	
335.00	-63.516	-176.681	
336.00	-65.138	-160.095	
337.00	-64.878	-140.764	
338.00	-64.249	-110.930	
339.00	-63.026	-89.250	
340.00	-60.992	-74.891	
341.00	-60.625	-65.907	
342.00	-60.845	-61.344	
343.00	-60.227	-59.722	
344.00	-61.828	-59.477	
345.00	-63.486	-68.590	
346.00	-65.329	-89.713	
347.00	-65.453	-114.159	
348.00	-63.118	-126.758	
349.00	-63.665	-127.943	
350.00	-65.751	-129.953	
351.00	-68.736	-101.068	
352.00	-69.419	-12.061	
353.00	-62.040	7.542	
354.00	-56.475	16.905	
355.00	-54.454	19.363	
356.00	-52.464	26.910	
357.00	-51.517	33.440	
358.00	-51.596	42.204	
359.00	-51.746	46.838	
Frequency	3800.00	MHz	
Channel	test		
Scan Axis name	Azimuth  [deg]		
Scan Axis	Amplitude	Phase	
			
0.00	-52.240	-129.832	
1.00	-55.573	-111.055	
2.00	-58.825	-79.786	
3.00	-59.454	-29.843	
4.00	-58.496	8.173	
5.00	-57.162	24.674	
6.00	-58.192	42.895	
7.00	-60.938	55.593	
8.00	-66.075	96.783	
9.00	-69.159	-179.382	
10.00	-62.161	-134.399	
11.00	-60.150	-102.788	
12.00	-59.209	-78.938	
13.00	-59.761	-54.292	
14.00	-58.519	-15.871	
15.00	-57.620	14.991	
16.00	-55.744	39.970	
17.00	-54.927	57.285	
18.00	-55.508	72.227	
19.00	-56.916	87.497	
20.00	-60.540	113.119	
21.00	-64.943	143.631	
22.00	-66.797	-108.443	
23.00	-60.441	-77.450	
24.00	-57.488	-54.930	
25.00	-56.150	-40.167	
26.00	-56.354	-23.683	
27.00	-57.239	-2.073	
28.00	-59.379	27.927	
29.00	-61.208	62.303	
30.00	-62.604	116.224	
31.00	-61.335	156.769	
32.00	-58.572	-172.337	
33.00	-57.561	-146.716	
34.00	-56.233	-115.920	
35.00	-56.376	-91.375	
36.00	-56.283	-69.052	
37.00	-56.599	-41.217	
38.00	-56.333	-10.852	
39.00	-56.029	18.956	
40.00	-55.439	44.927	
41.00	-54.794	69.765	
42.00	-55.553	94.610	
43.00	-55.679	120.869	
44.00	-56.746	144.355	
45.00	-57.760	172.703	
46.00	-59.516	-155.702	
47.00	-58.971	-114.171	
48.00	-58.064	-78.439	
49.00	-57.146	-42.974	
50.00	-55.605	-16.764	
51.00	-54.570	2.750	
52.00	-53.897	25.306	
53.00	-53.278	43.320	
54.00	-53.584	63.019	
55.00	-53.926	86.393	
56.00	-53.951	106.910	
57.00	-54.665	128.746	
58.00	-54.703	149.677	
59.00	-55.468	176.020	
60.00	-56.002	-162.070	
61.00	-56.519	-132.607	
62.00	-57.500	-111.060	
63.00	-56.876	-81.633	
64.00	-58.244	-59.014	
65.00	-58.114	-31.904	
66.00	-57.480	-4.873	
67.00	-56.392	19.404	
68.00	-56.483	43.470	
69.00	-55.343	64.028	
70.00	-55.352	82.915	
71.00	-54.766	104.241	
72.00	-54.228	123.073	
73.00	-53.340	134.070	
74.00	-53.128	151.450	
75.00	-52.785	168.925	
76.00	-52.755	-176.973	
77.00	-52.961	-162.012	
78.00	-52.969	-147.468	
79.00	-52.932	-135.614	
80.00	-52.892	-122.440	
81.00	-53.017	-108.699	
82.00	-53.419	-95.487	
83.00	-52.978	-84.364	
84.00	-53.619	-72.273	
85.00	-53.981	-61.343	
86.00	-54.411	-49.113	
87.00	-55.071	-35.634	
88.00	-55.255	-22.194	
89.00	-55.960	-12.761	
90.00	-55.728	1.658	
91.00	-56.086	14.156	
92.00	-56.196	28.832	
93.00	-56.357	40.229	
94.00	-56.598	58.545	
95.00	-56.569	62.643	
96.00	-55.831	79.696	
97.00	-55.771	96.601	
98.00	-55.207	100.470	
99.00	-54.846	115.826	
100.00	-54.964	128.447	
101.00	-54.506	134.484	
102.00	-54.457	145.775	
103.00	-54.411	151.794	
104.00	-54.490	165.395	
105.00	-54.092	174.883	
106.00	-54.408	-174.102	
107.00	-55.346	-165.244	
108.00	-56.403	-153.061	
109.00	-57.583	-143.267	
110.00	-59.408	-126.003	
111.00	-61.694	-111.272	
112.00	-64.966	-83.194	
113.00	-71.771	-24.225	
114.00	-66.270	50.098	
115.00	-60.812	77.304	
116.00	-56.612	95.893	
117.00	-53.590	110.720	
118.00	-51.147	121.572	
119.00	-49.500	134.332	
120.00	-47.925	146.535	
121.00	-46.470	157.832	
122.00	-45.426	168.688	
123.00	-44.744	-179.953	
124.00	-44.357	-170.308	
125.00	-44.156	-159.192	
126.00	-44.237	-148.783	
127.00	-45.128	-137.031	
128.00	-46.128	-123.927	
129.00	-48.108	-106.391	
130.00	-50.916	-81.193	
131.00	-52.608	-40.256	
132.00	-51.238	8.935	
133.00	-48.009	41.043	
134.00	-45.495	58.097	
135.00	-43.671	71.793	
136.00	-42.810	84.161	
137.00	-42.416	95.562	
138.00	-42.804	106.878	
139.00	-44.032	120.721	
140.00	-46.559	139.919	
141.00	-49.200	170.757	
142.00	-49.843	-137.699	
143.00	-47.217	-97.782	
144.00	-44.026	-75.216	
145.00	-42.185	-60.843	
146.00	-41.087	-48.073	
147.00	-41.076	-36.441	
148.00	-41.668	-24.237	
149.00	-43.135	-9.319	
150.00	-45.117	12.225	
151.00	-46.977	43.980	
152.00	-46.950	76.994	
153.00	-46.092	100.835	
154.00	-45.979	113.511	
155.00	-47.379	116.641	
156.00	-51.465	103.504	
157.00	-52.663	39.720	
158.00	-46.011	4.642	
159.00	-41.859	-2.431	
160.00	-39.449	-4.235	
161.00	-38.320	-3.569	
162.00	-38.474	-4.311	
163.00	-39.915	-4.482	
164.00	-43.392	-8.742	
165.00	-50.676	-31.027	
166.00	-51.349	-132.727	
167.00	-44.607	-157.554	
168.00	-42.391	-161.508	
169.00	-42.685	-163.706	
170.00	-45.788	-164.519	
171.00	-57.554	-154.272	
172.00	-49.326	5.621	
173.00	-42.005	4.244	
174.00	-39.473	-0.491	
175.00	-39.647	-11.074	
176.00	-42.128	-41.732	
177.00	-40.062	-104.643	
178.00	-33.680	-135.069	
179.00	-28.898	-146.445	
180.00	-25.606	-152.371	
181.00	-23.377	-156.018	
182.00	-21.950	-158.931	
183.00	-21.186	-161.389	
184.00	-21.036	-163.451	
185.00	-21.444	-165.322	
186.00	-22.527	-166.887	
187.00	-24.326	-168.471	
188.00	-27.009	-169.824	
189.00	-30.972	-171.094	
190.00	-37.313	-173.360	
191.00	-52.805	161.610	
192.00	-43.727	26.832	
193.00	-39.177	26.841	
194.00	-37.969	34.135	
195.00	-37.907	47.937	
196.00	-37.927	65.387	
197.00	-37.676	82.237	
198.00	-37.493	96.030	
199.00	-37.880	106.627	
200.00	-39.312	116.659	
201.00	-41.956	131.303	
202.00	-45.383	165.445	
203.00	-44.209	-145.669	
204.00	-40.832	-123.006	
205.00	-38.583	-114.685	
206.00	-37.670	-111.656	
207.00	-37.916	-110.604	
208.00	-39.495	-111.334	
209.00	-42.692	-109.608	
210.00	-49.681	-102.069	
211.00	-55.635	10.901	
212.00	-45.957	37.946	
213.00	-41.968	40.259	
214.00	-40.229	38.741	
215.00	-39.705	36.533	
216.00	-40.255	34.580	
217.00	-41.608	34.910	
218.00	-44.044	38.355	
219.00	-47.426	50.872	
220.00	-49.831	79.808	
221.00	-49.350	108.980	
222.00	-47.517	121.575	
223.00	-46.374	124.580	
224.00	-46.750	120.495	
225.00	-47.997	113.065	
226.00	-50.604	100.756	
227.00	-54.873	67.601	
228.00	-56.112	10.590	
229.00	-51.969	-31.881	
230.00	-49.016	-49.739	
231.00	-47.124	-63.063	
232.00	-46.152	-71.664	
233.00	-45.715	-81.315	
234.00	-46.030	-89.603	
235.00	-46.839	-96.888	
236.00	-48.334	-103.016	
237.00	-50.801	-108.051	
238.00	-54.542	-109.481	
239.00	-61.600	-106.669	
240.00	-68.599	-28.319	
241.00	-59.132	13.792	
242.00	-54.495	14.929	
243.00	-52.190	15.554	
244.00	-50.908	8.295	
245.00	-50.217	2.184	
246.00	-50.153	-6.605	
247.00	-50.034	-13.145	
248.00	-50.417	-17.772	
249.00	-51.593	-24.427	
250.00	-52.043	-29.907	
251.00	-52.939	-36.247	
252.00	-54.163	-41.710	
253.00	-55.538	-50.529	
254.00	-57.498	-46.043	
255.00	-58.686	-48.679	
256.00	-59.651	-42.031	
257.00	-61.362	-36.569	
258.00	-62.068	-31.464	
259.00	-61.753	-29.004	
260.00	-63.019	-21.707	
261.00	-61.169	-20.744	
262.00	-61.522	-13.818	
263.00	-62.152	-19.863	
264.00	-60.367	-17.133	
265.00	-60.657	-25.952	
266.00	-60.164	-34.345	
267.00	-61.130	-36.124	
268.00	-61.619	-32.887	
269.00	-63.894	-36.689	
270.00	-65.451	-42.387	
271.00	-66.207	-36.224	
272.00	-69.378	-31.721	
273.00	-84.464	-77.756	
274.00	-79.048	107.501	
275.00	-73.885	128.136	
276.00	-71.366	131.033	
277.00	-66.813	110.212	
278.00	-65.914	85.092	
279.00	-63.800	64.983	
280.00	-62.440	51.240	
281.00	-60.895	37.755	
282.00	-58.909	32.517	
283.00	-57.889	29.293	
284.00	-57.184	18.329	
285.00	-56.467	12.272	
286.00	-56.283	6.479	
287.00	-56.121	-0.870	
288.00	-57.166	-7.113	
289.00	-57.830	-13.519	
290.00	-59.367	-22.193	
291.00	-61.116	-28.995	
292.00	-66.464	-25.949	
293.00	-70.284	-55.327	
294.00	-77.295	-151.511	
295.00	-67.092	151.380	
296.00	-62.974	127.500	
297.00	-60.341	125.527	
298.00	-58.412	120.951	
299.00	-56.627	114.771	
300.00	-56.866	111.296	
301.00	-56.956	105.161	
302.00	-57.747	101.209	
303.00	-58.972	93.850	
304.00	-60.424	95.153	
305.00	-64.001	100.363	
306.00	-73.093	135.609	
307.00	-67.431	-151.222	
308.00	-61.459	-145.103	
309.00	-59.604	-139.862	
310.00	-58.376	-143.245	
311.00	-59.085	-141.845	
312.00	-59.722	-148.947	
313.00	-61.381	-147.028	
314.00	-66.166	-129.698	
315.00	-72.792	-76.474	
316.00	-65.144	-12.685	
317.00	-60.463	-8.263	
318.00	-58.290	-3.157	
319.00	-57.456	-6.719	
320.00	-57.692	-0.445	
321.00	-58.991	4.301	
322.00	-61.382	19.153	
323.00	-64.999	53.312	
324.00	-63.325	91.690	
325.00	-62.197	116.717	
326.00	-59.912	130.588	
327.00	-59.655	137.481	
328.00	-60.507	148.359	
329.00	-64.454	163.634	
330.00	-65.939	-156.350	
331.00	-65.007	-107.645	
332.00	-61.845	-77.363	
333.00	-59.822	-60.326	
334.00	-59.574	-48.709	
335.00	-60.287	-42.034	
336.00	-59.609	-13.803	
337.00	-61.191	12.355	
338.00	-59.889	36.380	
339.00	-59.539	55.175	
340.00	-58.976	80.763	
341.00	-59.001	98.915	
342.00	-59.871	119.124	
343.00	-59.496	127.210	
344.00	-62.172	148.452	
345.00	-65.437	163.340	
346.00	-70.033	-144.794	
347.00	-69.735	-61.285	
348.00	-63.680	-26.318	
349.00	-60.726	-16.811	
350.00	-61.184	-3.454	
351.00	-64.242	14.790	
352.00	-71.923	72.009	
353.00	-63.258	157.604	
354.00	-56.430	178.163	
355.00	-52.788	-175.813	
356.00	-50.936	-166.791	
357.00	-49.869	-158.048	
358.00	-50.178	-151.020	
359.00	-50.890	-141.414	
