Date:	08/10/2009						
Time:	11:15						
Comment:	No S21 Tuning Tabs
						
							
[Scan Axis] Name: 	Azimuth  [deg]Start: 	0.000000	Stop	359.000000	Increment	1.000000[Step Axis] Name: 	Start: 	0.000000	Stop	0.000000	Increment	0.000000[Tert] Name: 	None [Forth] Name: 	None  [ Freq.]  (List) 	MHz.	3300.000000	3350.000000	3400.000000	3450.000000	3500.000000	3550.000000	3600.000000	3650.000000	3700.000000	3750.000000	3800.000000
 [Switch]  	None [Channel]  	test			 [ Beam] 	None			
Database:			
First Question			
2nd			
3rd			
4th			
			
Frequency	3300.00	MHz	
Channel	test		
Scan Axis name	Azimuth  [deg]		
Scan Axis	Amplitude	Phase	
			
0.00	-51.093	-23.852	
1.00	-51.035	-29.122	
2.00	-51.918	-30.001	
3.00	-51.924	-34.917	
4.00	-51.861	-35.169	
5.00	-51.850	-50.398	
6.00	-51.676	-42.523	
7.00	-52.033	-41.526	
8.00	-52.254	-42.881	
9.00	-53.114	-45.417	
10.00	-53.181	-45.819	
11.00	-54.445	-45.938	
12.00	-55.289	-44.986	
13.00	-55.691	-43.147	
14.00	-57.146	-46.681	
15.00	-58.858	-46.222	
16.00	-61.015	-43.178	
17.00	-63.961	-59.078	
18.00	-66.517	-60.287	
19.00	-70.148	-61.345	
20.00	-77.014	-129.981	
21.00	-67.131	170.471	
22.00	-64.856	158.978	
23.00	-61.350	152.706	
24.00	-59.426	150.557	
25.00	-57.830	155.343	
26.00	-57.256	154.238	
27.00	-55.383	156.166	
28.00	-54.793	159.203	
29.00	-53.505	159.314	
30.00	-52.838	163.282	
31.00	-52.177	165.635	
32.00	-51.862	167.875	
33.00	-51.251	170.100	
34.00	-50.744	172.197	
35.00	-50.650	175.424	
36.00	-50.281	178.322	
37.00	-50.071	-178.441	
38.00	-49.696	-176.293	
39.00	-49.964	-170.910	
40.00	-49.643	-167.602	
41.00	-49.778	-161.927	
42.00	-49.835	-158.853	
43.00	-49.978	-154.871	
44.00	-49.883	-150.490	
45.00	-50.150	-145.421	
46.00	-49.932	-140.240	
47.00	-50.099	-135.740	
48.00	-50.368	-130.027	
49.00	-50.526	-126.182	
50.00	-50.957	-119.587	
51.00	-50.994	-114.896	
52.00	-51.592	-106.572	
53.00	-51.338	-99.116	
54.00	-51.676	-91.769	
55.00	-51.901	-81.471	
56.00	-52.193	-73.550	
57.00	-52.216	-65.312	
58.00	-52.377	-54.585	
59.00	-52.000	-47.194	
60.00	-51.977	-35.942	
61.00	-52.106	-27.083	
62.00	-51.561	-17.052	
63.00	-51.466	-9.767	
64.00	-50.795	2.152	
65.00	-50.788	10.817	
66.00	-50.316	18.939	
67.00	-49.964	28.225	
68.00	-49.612	35.995	
69.00	-48.835	44.439	
70.00	-48.370	52.505	
71.00	-48.272	61.691	
72.00	-47.690	68.467	
73.00	-47.288	77.606	
74.00	-46.909	84.809	
75.00	-46.202	92.889	
76.00	-46.009	103.553	
77.00	-45.675	108.440	
78.00	-45.054	117.129	
79.00	-44.857	126.696	
80.00	-44.253	134.119	
81.00	-43.973	142.154	
82.00	-43.492	150.439	
83.00	-43.017	158.116	
84.00	-42.762	166.438	
85.00	-42.375	175.103	
86.00	-41.890	-176.769	
87.00	-41.588	-168.534	
88.00	-41.095	-160.118	
89.00	-40.718	-152.596	
90.00	-40.307	-144.231	
91.00	-39.895	-135.399	
92.00	-39.568	-127.293	
93.00	-39.100	-119.619	
94.00	-38.727	-111.187	
95.00	-38.183	-102.572	
96.00	-37.904	-94.391	
97.00	-37.537	-86.273	
98.00	-37.078	-78.391	
99.00	-36.682	-69.724	
100.00	-36.294	-61.392	
101.00	-35.926	-53.804	
102.00	-35.539	-45.724	
103.00	-35.129	-37.656	
104.00	-34.836	-29.549	
105.00	-34.459	-21.618	
106.00	-34.079	-13.597	
107.00	-33.732	-5.401	
108.00	-33.348	2.297	
109.00	-32.987	10.063	
110.00	-32.697	18.058	
111.00	-32.317	25.626	
112.00	-31.975	33.466	
113.00	-31.674	41.321	
114.00	-31.332	48.769	
115.00	-31.017	56.822	
116.00	-30.706	64.038	
117.00	-30.349	71.605	
118.00	-30.077	78.914	
119.00	-29.740	86.517	
120.00	-29.458	93.916	
121.00	-29.128	101.090	
122.00	-28.846	108.246	
123.00	-28.541	115.517	
124.00	-28.265	122.352	
125.00	-28.014	129.275	
126.00	-27.709	136.528	
127.00	-27.437	143.103	
128.00	-27.162	149.985	
129.00	-26.878	156.754	
130.00	-26.641	163.279	
131.00	-26.367	169.806	
132.00	-26.112	176.242	
133.00	-25.893	-177.367	
134.00	-25.648	-171.077	
135.00	-25.393	-164.927	
136.00	-25.178	-158.817	
137.00	-24.941	-152.832	
138.00	-24.719	-146.892	
139.00	-24.476	-141.061	
140.00	-24.259	-135.375	
141.00	-24.056	-129.892	
142.00	-23.858	-124.334	
143.00	-23.637	-119.077	
144.00	-23.452	-113.846	
145.00	-23.258	-108.659	
146.00	-23.071	-103.666	
147.00	-22.892	-98.705	
148.00	-22.714	-93.818	
149.00	-22.540	-89.124	
150.00	-22.384	-84.490	
151.00	-22.215	-80.148	
152.00	-22.053	-75.720	
153.00	-21.912	-71.571	
154.00	-21.757	-67.542	
155.00	-21.611	-63.483	
156.00	-21.463	-59.527	
157.00	-21.357	-55.824	
158.00	-21.211	-52.224	
159.00	-21.095	-48.675	
160.00	-20.989	-45.320	
161.00	-20.868	-41.996	
162.00	-20.787	-38.795	
163.00	-20.673	-35.709	
164.00	-20.604	-32.876	
165.00	-20.511	-30.049	
166.00	-20.427	-27.382	
167.00	-20.360	-24.831	
168.00	-20.304	-22.363	
169.00	-20.244	-20.072	
170.00	-20.188	-17.931	
171.00	-20.149	-15.911	
172.00	-20.104	-13.903	
173.00	-20.070	-12.102	
174.00	-20.051	-10.432	
175.00	-20.024	-8.930	
176.00	-20.017	-7.462	
177.00	-20.006	-6.122	
178.00	-19.994	-4.951	
179.00	-20.026	-3.945	
180.00	-20.023	-2.964	
181.00	-20.017	-2.125	
182.00	-20.045	-1.441	
183.00	-20.080	-0.918	
184.00	-20.090	-0.486	
185.00	-20.128	-0.204	
186.00	-20.179	-0.042	
187.00	-20.216	-0.045	
188.00	-20.284	-0.079	
189.00	-20.349	-0.330	
190.00	-20.416	-0.674	
191.00	-20.488	-1.216	
192.00	-20.577	-1.810	
193.00	-20.664	-2.551	
194.00	-20.765	-3.468	
195.00	-20.860	-4.520	
196.00	-20.965	-5.610	
197.00	-21.080	-6.835	
198.00	-21.202	-8.363	
199.00	-21.315	-9.986	
200.00	-21.451	-11.474	
201.00	-21.595	-13.408	
202.00	-21.749	-15.356	
203.00	-21.900	-17.506	
204.00	-22.058	-19.614	
205.00	-22.222	-21.976	
206.00	-22.410	-24.430	
207.00	-22.592	-27.081	
208.00	-22.773	-29.737	
209.00	-22.975	-32.629	
210.00	-23.167	-35.681	
211.00	-23.359	-38.788	
212.00	-23.566	-42.061	
213.00	-23.774	-45.549	
214.00	-24.005	-48.979	
215.00	-24.201	-52.733	
216.00	-24.438	-56.615	
217.00	-24.679	-60.439	
218.00	-24.916	-64.463	
219.00	-25.162	-68.657	
220.00	-25.396	-72.897	
221.00	-25.641	-77.182	
222.00	-25.909	-81.602	
223.00	-26.182	-86.246	
224.00	-26.450	-90.958	
225.00	-26.725	-95.841	
226.00	-26.999	-100.838	
227.00	-27.323	-105.776	
228.00	-27.614	-110.925	
229.00	-27.915	-116.302	
230.00	-28.260	-121.606	
231.00	-28.556	-127.278	
232.00	-28.878	-132.772	
233.00	-29.204	-138.635	
234.00	-29.577	-144.394	
235.00	-29.894	-150.475	
236.00	-30.233	-156.615	
237.00	-30.577	-162.826	
238.00	-30.913	-168.941	
239.00	-31.232	-175.483	
240.00	-31.621	178.013	
241.00	-31.946	171.756	
242.00	-32.307	165.026	
243.00	-32.632	158.371	
244.00	-33.014	151.825	
245.00	-33.396	145.307	
246.00	-33.707	138.486	
247.00	-34.170	131.926	
248.00	-34.524	124.585	
249.00	-34.862	117.947	
250.00	-35.285	111.141	
251.00	-35.761	104.313	
252.00	-36.095	96.876	
253.00	-36.498	90.383	
254.00	-36.895	83.470	
255.00	-37.370	76.074	
256.00	-37.840	68.961	
257.00	-38.256	62.119	
258.00	-38.692	54.494	
259.00	-39.164	47.264	
260.00	-39.533	40.367	
261.00	-39.967	32.816	
262.00	-40.449	25.451	
263.00	-40.933	18.479	
264.00	-41.272	11.605	
265.00	-41.671	4.631	
266.00	-41.997	-2.535	
267.00	-42.503	-9.431	
268.00	-42.943	-15.744	
269.00	-43.386	-22.406	
270.00	-43.947	-29.760	
271.00	-44.232	-36.000	
272.00	-44.773	-42.744	
273.00	-45.059	-49.373	
274.00	-45.442	-56.389	
275.00	-45.976	-63.023	
276.00	-46.377	-70.381	
277.00	-46.633	-76.102	
278.00	-47.146	-83.417	
279.00	-47.729	-89.554	
280.00	-47.866	-97.529	
281.00	-48.372	-102.600	
282.00	-48.421	-111.217	
283.00	-49.019	-118.431	
284.00	-48.752	-123.601	
285.00	-49.413	-134.359	
286.00	-49.647	-139.358	
287.00	-49.571	-146.646	
288.00	-49.768	-155.046	
289.00	-49.710	-161.292	
290.00	-50.252	-168.464	
291.00	-49.987	-174.973	
292.00	-50.266	177.946	
293.00	-51.000	171.038	
294.00	-50.666	163.777	
295.00	-50.870	157.982	
296.00	-51.203	149.009	
297.00	-51.431	142.945	
298.00	-51.460	135.141	
299.00	-51.937	129.588	
300.00	-52.305	119.414	
301.00	-52.595	109.296	
302.00	-52.745	100.701	
303.00	-53.005	90.467	
304.00	-53.660	81.026	
305.00	-53.816	69.483	
306.00	-53.568	59.652	
307.00	-53.729	48.437	
308.00	-54.636	39.089	
309.00	-54.258	24.407	
310.00	-53.905	16.669	
311.00	-53.695	0.453	
312.00	-53.456	-6.056	
313.00	-53.565	-21.222	
314.00	-52.904	-30.450	
315.00	-53.019	-36.867	
316.00	-52.280	-49.560	
317.00	-51.788	-57.888	
318.00	-51.413	-64.486	
319.00	-51.204	-73.237	
320.00	-50.839	-80.913	
321.00	-50.646	-89.148	
322.00	-50.325	-95.247	
323.00	-50.200	-102.183	
324.00	-50.013	-109.065	
325.00	-49.772	-114.999	
326.00	-49.577	-122.765	
327.00	-49.793	-127.793	
328.00	-49.897	-131.983	
329.00	-49.848	-138.301	
330.00	-50.178	-143.977	
331.00	-50.487	-149.279	
332.00	-50.562	-155.605	
333.00	-51.410	-160.268	
334.00	-51.460	-166.258	
335.00	-52.029	-167.834	
336.00	-52.581	-174.477	
337.00	-53.516	179.793	
338.00	-54.055	174.566	
339.00	-54.829	166.064	
340.00	-56.175	165.052	
341.00	-57.610	158.888	
342.00	-58.915	147.480	
343.00	-61.317	139.528	
344.00	-63.327	130.046	
345.00	-64.515	104.480	
346.00	-64.365	79.024	
347.00	-64.409	48.814	
348.00	-62.799	30.068	
349.00	-60.290	12.257	
350.00	-58.533	2.709	
351.00	-57.427	1.077	
352.00	-55.796	-7.336	
353.00	-55.383	-17.612	
354.00	-54.355	-15.245	
355.00	-53.705	-22.230	
356.00	-53.120	-23.974	
357.00	-52.535	-25.364	
358.00	-52.074	-29.090	
359.00	-51.713	-32.737	
Frequency	3350.00	MHz	
Channel	test		
Scan Axis name	Azimuth  [deg]		
Scan Axis	Amplitude	Phase	
			
0.00	-51.346	143.743	
1.00	-51.168	138.372	
2.00	-51.804	137.855	
3.00	-51.755	136.157	
4.00	-51.578	133.879	
5.00	-52.558	122.900	
6.00	-52.547	124.633	
7.00	-52.652	127.933	
8.00	-52.519	126.874	
9.00	-53.399	129.394	
10.00	-53.638	131.357	
11.00	-54.230	128.974	
12.00	-55.255	132.945	
13.00	-55.670	130.227	
14.00	-58.244	129.382	
15.00	-58.805	133.264	
16.00	-60.618	138.061	
17.00	-63.786	135.838	
18.00	-65.532	156.578	
19.00	-72.330	174.924	
20.00	-76.535	-91.335	
21.00	-69.024	-73.132	
22.00	-64.967	-44.927	
23.00	-61.862	-46.490	
24.00	-59.126	-43.550	
25.00	-58.055	-42.125	
26.00	-56.327	-38.473	
27.00	-55.026	-37.972	
28.00	-54.375	-33.012	
29.00	-53.224	-33.154	
30.00	-52.295	-29.020	
31.00	-51.883	-26.336	
32.00	-51.143	-21.560	
33.00	-50.673	-19.258	
34.00	-50.828	-17.155	
35.00	-50.415	-13.391	
36.00	-50.342	-10.275	
37.00	-49.946	-8.172	
38.00	-49.854	-3.022	
39.00	-49.935	2.586	
40.00	-49.508	7.495	
41.00	-49.403	12.269	
42.00	-50.046	15.977	
43.00	-49.806	19.728	
44.00	-50.072	24.799	
45.00	-50.282	31.932	
46.00	-50.035	37.079	
47.00	-50.193	40.509	
48.00	-50.634	49.402	
49.00	-50.860	56.247	
50.00	-50.870	63.186	
51.00	-50.988	69.573	
52.00	-51.244	74.504	
53.00	-51.045	85.748	
54.00	-51.318	92.605	
55.00	-51.656	100.529	
56.00	-51.840	110.130	
57.00	-51.865	118.016	
58.00	-51.735	127.963	
59.00	-51.742	137.266	
60.00	-51.545	145.544	
61.00	-51.152	156.366	
62.00	-50.847	165.847	
63.00	-50.701	176.082	
64.00	-50.416	-176.177	
65.00	-50.229	-167.086	
66.00	-49.700	-160.890	
67.00	-49.468	-150.863	
68.00	-49.024	-142.204	
69.00	-48.711	-133.656	
70.00	-48.065	-124.530	
71.00	-47.671	-118.106	
72.00	-47.194	-109.358	
73.00	-46.637	-100.816	
74.00	-46.519	-94.274	
75.00	-46.000	-87.025	
76.00	-45.514	-78.321	
77.00	-45.053	-69.005	
78.00	-44.697	-62.482	
79.00	-44.299	-54.900	
80.00	-43.877	-46.106	
81.00	-43.548	-38.966	
82.00	-43.119	-30.753	
83.00	-42.687	-22.456	
84.00	-42.349	-14.147	
85.00	-41.850	-5.967	
86.00	-41.458	2.884	
87.00	-41.143	10.181	
88.00	-40.804	18.739	
89.00	-40.353	26.319	
90.00	-39.906	34.695	
91.00	-39.442	43.619	
92.00	-39.076	51.454	
93.00	-38.759	59.936	
94.00	-38.338	68.054	
95.00	-37.933	76.058	
96.00	-37.502	84.393	
97.00	-37.161	93.205	
98.00	-36.756	101.097	
99.00	-36.328	109.321	
100.00	-35.946	117.578	
101.00	-35.537	125.658	
102.00	-35.146	133.871	
103.00	-34.750	141.550	
104.00	-34.392	149.866	
105.00	-34.032	158.028	
106.00	-33.627	165.971	
107.00	-33.304	173.948	
108.00	-32.879	-178.190	
109.00	-32.576	-170.038	
110.00	-32.225	-162.340	
111.00	-31.874	-154.386	
112.00	-31.530	-146.583	
113.00	-31.225	-138.811	
114.00	-30.836	-131.224	
115.00	-30.542	-123.196	
116.00	-30.172	-115.693	
117.00	-29.874	-108.250	
118.00	-29.564	-100.674	
119.00	-29.233	-93.054	
120.00	-28.946	-85.919	
121.00	-28.616	-78.552	
122.00	-28.318	-71.299	
123.00	-28.063	-64.071	
124.00	-27.732	-57.071	
125.00	-27.458	-49.925	
126.00	-27.168	-42.874	
127.00	-26.891	-36.030	
128.00	-26.606	-29.114	
129.00	-26.349	-22.357	
130.00	-26.090	-15.641	
131.00	-25.846	-9.121	
132.00	-25.588	-2.621	
133.00	-25.306	3.783	
134.00	-25.078	10.100	
135.00	-24.832	16.354	
136.00	-24.593	22.520	
137.00	-24.362	28.586	
138.00	-24.132	34.453	
139.00	-23.907	40.346	
140.00	-23.688	46.060	
141.00	-23.468	51.648	
142.00	-23.275	57.152	
143.00	-23.081	62.595	
144.00	-22.875	67.969	
145.00	-22.684	73.047	
146.00	-22.508	78.108	
147.00	-22.314	83.137	
148.00	-22.135	87.929	
149.00	-21.960	92.677	
150.00	-21.781	97.261	
151.00	-21.611	101.797	
152.00	-21.473	106.109	
153.00	-21.307	110.467	
154.00	-21.157	114.638	
155.00	-21.010	118.640	
156.00	-20.866	122.551	
157.00	-20.750	126.312	
158.00	-20.620	130.001	
159.00	-20.497	133.560	
160.00	-20.382	136.987	
161.00	-20.286	140.283	
162.00	-20.172	143.522	
163.00	-20.073	146.589	
164.00	-19.990	149.494	
165.00	-19.907	152.313	
166.00	-19.828	154.988	
167.00	-19.754	157.624	
168.00	-19.688	160.096	
169.00	-19.645	162.328	
170.00	-19.577	164.584	
171.00	-19.528	166.587	
172.00	-19.494	168.500	
173.00	-19.455	170.339	
174.00	-19.434	172.020	
175.00	-19.398	173.600	
176.00	-19.392	175.029	
177.00	-19.371	176.322	
178.00	-19.372	177.507	
179.00	-19.401	178.429	
180.00	-19.386	179.475	
181.00	-19.393	-179.747	
182.00	-19.405	-179.061	
183.00	-19.446	-178.552	
184.00	-19.471	-178.120	
185.00	-19.507	-177.872	
186.00	-19.564	-177.821	
187.00	-19.609	-177.789	
188.00	-19.661	-177.868	
189.00	-19.719	-178.171	
190.00	-19.794	-178.476	
191.00	-19.860	-179.101	
192.00	-19.946	-179.666	
193.00	-20.033	179.513	
194.00	-20.135	178.604	
195.00	-20.238	177.573	
196.00	-20.348	176.426	
197.00	-20.455	175.070	
198.00	-20.581	173.567	
199.00	-20.706	172.068	
200.00	-20.848	170.325	
201.00	-20.991	168.415	
202.00	-21.132	166.392	
203.00	-21.284	164.253	
204.00	-21.430	162.065	
205.00	-21.604	159.622	
206.00	-21.773	157.081	
207.00	-21.952	154.239	
208.00	-22.139	151.639	
209.00	-22.314	148.691	
210.00	-22.510	145.602	
211.00	-22.711	142.513	
212.00	-22.920	139.142	
213.00	-23.141	135.748	
214.00	-23.360	132.180	
215.00	-23.609	128.469	
216.00	-23.846	124.729	
217.00	-24.100	120.758	
218.00	-24.360	116.655	
219.00	-24.630	112.439	
220.00	-24.895	108.022	
221.00	-25.161	103.552	
222.00	-25.438	99.013	
223.00	-25.733	94.089	
224.00	-26.036	89.133	
225.00	-26.333	84.163	
226.00	-26.633	78.948	
227.00	-26.952	73.687	
228.00	-27.227	68.349	
229.00	-27.548	62.688	
230.00	-27.886	57.061	
231.00	-28.194	51.425	
232.00	-28.515	45.418	
233.00	-28.854	39.451	
234.00	-29.170	33.716	
235.00	-29.505	27.350	
236.00	-29.880	21.343	
237.00	-30.183	14.935	
238.00	-30.526	8.598	
239.00	-30.920	2.271	
240.00	-31.272	-4.265	
241.00	-31.650	-10.966	
242.00	-32.021	-17.414	
243.00	-32.420	-24.230	
244.00	-32.789	-30.888	
245.00	-33.205	-37.764	
246.00	-33.608	-44.928	
247.00	-34.024	-51.929	
248.00	-34.419	-58.804	
249.00	-34.866	-66.150	
250.00	-35.296	-73.171	
251.00	-35.723	-80.157	
252.00	-36.198	-87.714	
253.00	-36.692	-95.140	
254.00	-37.127	-102.331	
255.00	-37.576	-109.513	
256.00	-38.018	-117.680	
257.00	-38.492	-124.804	
258.00	-38.986	-132.178	
259.00	-39.479	-139.657	
260.00	-39.907	-146.809	
261.00	-40.443	-154.132	
262.00	-40.942	-162.104	
263.00	-41.464	-168.996	
264.00	-41.891	-176.714	
265.00	-42.248	176.203	
266.00	-42.908	169.619	
267.00	-43.421	161.834	
268.00	-43.865	155.436	
269.00	-44.414	147.675	
270.00	-44.921	141.385	
271.00	-45.466	135.080	
272.00	-45.813	128.653	
273.00	-46.264	122.364	
274.00	-46.936	115.264	
275.00	-47.360	106.667	
276.00	-47.693	101.995	
277.00	-48.131	95.663	
278.00	-48.461	89.265	
279.00	-48.750	82.938	
280.00	-49.137	76.406	
281.00	-49.346	70.932	
282.00	-49.656	64.966	
283.00	-49.979	57.449	
284.00	-49.954	53.754	
285.00	-49.961	45.594	
286.00	-50.569	40.071	
287.00	-50.565	33.166	
288.00	-50.506	24.744	
289.00	-50.980	20.057	
290.00	-50.745	11.217	
291.00	-51.007	5.356	
292.00	-50.668	-4.141	
293.00	-51.415	-11.009	
294.00	-51.129	-16.154	
295.00	-51.126	-24.880	
296.00	-51.546	-34.717	
297.00	-51.426	-39.642	
298.00	-51.479	-48.178	
299.00	-52.150	-57.005	
300.00	-51.720	-62.630	
301.00	-52.511	-71.360	
302.00	-52.341	-78.953	
303.00	-52.999	-88.069	
304.00	-53.180	-98.063	
305.00	-53.702	-104.952	
306.00	-53.899	-116.638	
307.00	-54.467	-126.878	
308.00	-54.512	-140.973	
309.00	-54.966	-148.591	
310.00	-55.549	-165.729	
311.00	-55.078	-171.857	
312.00	-54.867	172.367	
313.00	-55.290	160.930	
314.00	-55.209	148.934	
315.00	-54.212	135.791	
316.00	-54.071	126.918	
317.00	-53.829	117.665	
318.00	-53.349	108.373	
319.00	-52.601	97.066	
320.00	-52.217	90.981	
321.00	-51.905	84.235	
322.00	-51.545	75.916	
323.00	-50.805	68.836	
324.00	-50.592	62.337	
325.00	-50.256	57.383	
326.00	-50.214	51.236	
327.00	-50.222	45.923	
328.00	-49.845	42.893	
329.00	-49.682	34.858	
330.00	-50.065	33.091	
331.00	-50.001	25.724	
332.00	-50.364	21.505	
333.00	-50.542	15.488	
334.00	-50.740	11.818	
335.00	-51.166	6.213	
336.00	-51.761	4.279	
337.00	-52.353	-2.102	
338.00	-52.918	-9.674	
339.00	-53.621	-8.711	
340.00	-54.749	-14.726	
341.00	-55.597	-20.508	
342.00	-56.839	-23.915	
343.00	-58.514	-28.754	
344.00	-59.672	-35.671	
345.00	-62.827	-48.865	
346.00	-66.697	-61.848	
347.00	-71.473	-77.175	
348.00	-73.564	-134.499	
349.00	-68.410	177.949	
350.00	-64.168	166.706	
351.00	-60.178	152.574	
352.00	-59.451	149.675	
353.00	-57.180	147.283	
354.00	-57.233	146.613	
355.00	-55.516	144.526	
356.00	-54.535	139.984	
357.00	-54.052	139.003	
358.00	-53.336	138.763	
359.00	-53.232	132.932	
Frequency	3400.00	MHz	
Channel	test		
Scan Axis name	Azimuth  [deg]		
Scan Axis	Amplitude	Phase	
			
0.00	-51.659	-53.798	
1.00	-52.299	-57.152	
2.00	-52.939	-61.311	
3.00	-53.348	-63.540	
4.00	-53.526	-63.160	
5.00	-53.255	-68.370	
6.00	-53.751	-64.057	
7.00	-54.026	-62.833	
8.00	-54.620	-62.739	
9.00	-55.108	-61.937	
10.00	-55.157	-63.223	
11.00	-56.180	-62.532	
12.00	-57.821	-56.814	
13.00	-58.413	-56.177	
14.00	-60.233	-52.384	
15.00	-61.404	-53.845	
16.00	-63.862	-47.728	
17.00	-66.665	-33.303	
18.00	-73.565	-4.592	
19.00	-74.785	61.589	
20.00	-67.609	86.668	
21.00	-63.552	96.416	
22.00	-61.296	101.956	
23.00	-58.943	112.510	
24.00	-58.400	108.394	
25.00	-56.577	117.801	
26.00	-55.582	121.025	
27.00	-54.598	122.533	
28.00	-53.952	128.886	
29.00	-53.836	130.486	
30.00	-53.268	135.166	
31.00	-52.420	137.384	
32.00	-52.332	141.859	
33.00	-51.609	144.297	
34.00	-51.237	147.481	
35.00	-51.291	152.570	
36.00	-50.932	156.026	
37.00	-50.774	158.118	
38.00	-50.646	164.541	
39.00	-50.747	168.939	
40.00	-50.899	173.610	
41.00	-50.976	176.842	
42.00	-51.070	-177.468	
43.00	-51.150	-171.449	
44.00	-51.640	-166.224	
45.00	-51.738	-160.747	
46.00	-52.039	-158.189	
47.00	-52.171	-147.749	
48.00	-52.193	-140.699	
49.00	-52.356	-131.651	
50.00	-53.066	-122.973	
51.00	-53.149	-115.813	
52.00	-53.430	-107.456	
53.00	-53.660	-98.515	
54.00	-53.101	-89.330	
55.00	-53.524	-78.646	
56.00	-53.523	-67.954	
57.00	-53.371	-59.622	
58.00	-53.267	-48.239	
59.00	-53.042	-40.434	
60.00	-52.420	-29.313	
61.00	-51.859	-19.364	
62.00	-51.696	-12.287	
63.00	-51.341	-2.410	
64.00	-50.902	3.825	
65.00	-50.680	14.822	
66.00	-49.941	22.841	
67.00	-50.061	29.205	
68.00	-49.357	38.870	
69.00	-48.740	45.112	
70.00	-48.173	53.511	
71.00	-47.820	61.653	
72.00	-47.481	69.723	
73.00	-47.372	77.370	
74.00	-46.626	84.705	
75.00	-46.292	93.653	
76.00	-45.829	100.774	
77.00	-45.504	108.791	
78.00	-45.156	116.209	
79.00	-44.719	124.425	
80.00	-44.390	133.866	
81.00	-43.865	140.213	
82.00	-43.252	148.133	
83.00	-42.903	156.018	
84.00	-42.562	164.622	
85.00	-42.094	172.380	
86.00	-41.723	-178.714	
87.00	-41.407	-170.401	
88.00	-40.926	-162.798	
89.00	-40.580	-154.219	
90.00	-40.092	-145.880	
91.00	-39.738	-138.072	
92.00	-39.310	-129.575	
93.00	-38.820	-121.314	
94.00	-38.436	-113.428	
95.00	-38.008	-104.991	
96.00	-37.567	-96.376	
97.00	-37.246	-88.766	
98.00	-36.807	-80.376	
99.00	-36.399	-72.116	
100.00	-36.062	-63.705	
101.00	-35.656	-55.728	
102.00	-35.347	-47.773	
103.00	-34.921	-39.488	
104.00	-34.539	-31.431	
105.00	-34.168	-23.219	
106.00	-33.772	-15.019	
107.00	-33.459	-7.271	
108.00	-33.083	0.946	
109.00	-32.750	8.857	
110.00	-32.374	16.787	
111.00	-32.091	24.862	
112.00	-31.691	32.667	
113.00	-31.345	40.508	
114.00	-31.005	48.233	
115.00	-30.702	55.982	
116.00	-30.361	63.731	
117.00	-30.070	71.031	
118.00	-29.751	78.827	
119.00	-29.438	86.340	
120.00	-29.123	93.917	
121.00	-28.854	101.223	
122.00	-28.534	108.556	
123.00	-28.284	116.021	
124.00	-27.981	123.155	
125.00	-27.719	130.319	
126.00	-27.455	137.469	
127.00	-27.168	144.544	
128.00	-26.912	151.461	
129.00	-26.638	158.294	
130.00	-26.381	165.299	
131.00	-26.135	171.882	
132.00	-25.881	178.473	
133.00	-25.625	-175.032	
134.00	-25.365	-168.570	
135.00	-25.132	-162.177	
136.00	-24.892	-155.903	
137.00	-24.664	-149.884	
138.00	-24.438	-143.736	
139.00	-24.212	-137.836	
140.00	-23.988	-132.032	
141.00	-23.764	-126.210	
142.00	-23.571	-120.600	
143.00	-23.338	-115.022	
144.00	-23.125	-109.851	
145.00	-22.947	-104.510	
146.00	-22.743	-99.281	
147.00	-22.574	-94.190	
148.00	-22.376	-89.454	
149.00	-22.206	-84.554	
150.00	-22.030	-79.925	
151.00	-21.867	-75.444	
152.00	-21.711	-71.066	
153.00	-21.544	-66.723	
154.00	-21.401	-62.555	
155.00	-21.260	-58.461	
156.00	-21.128	-54.572	
157.00	-20.995	-50.697	
158.00	-20.873	-47.061	
159.00	-20.745	-43.388	
160.00	-20.639	-40.078	
161.00	-20.524	-36.782	
162.00	-20.428	-33.523	
163.00	-20.342	-30.531	
164.00	-20.248	-27.626	
165.00	-20.157	-24.809	
166.00	-20.086	-22.135	
167.00	-20.008	-19.544	
168.00	-19.940	-17.100	
169.00	-19.879	-14.708	
170.00	-19.823	-12.595	
171.00	-19.781	-10.541	
172.00	-19.737	-8.587	
173.00	-19.706	-6.790	
174.00	-19.671	-5.184	
175.00	-19.647	-3.557	
176.00	-19.619	-2.134	
177.00	-19.608	-0.848	
178.00	-19.602	0.309	
179.00	-19.626	1.168	
180.00	-19.610	2.120	
181.00	-19.618	2.896	
182.00	-19.637	3.553	
183.00	-19.669	4.093	
184.00	-19.685	4.410	
185.00	-19.736	4.678	
186.00	-19.767	4.699	
187.00	-19.823	4.674	
188.00	-19.876	4.538	
189.00	-19.937	4.235	
190.00	-20.024	3.808	
191.00	-20.089	3.177	
192.00	-20.176	2.546	
193.00	-20.263	1.760	
194.00	-20.357	0.824	
195.00	-20.461	-0.290	
196.00	-20.565	-1.528	
197.00	-20.687	-2.833	
198.00	-20.800	-4.375	
199.00	-20.927	-5.949	
200.00	-21.070	-7.824	
201.00	-21.231	-9.641	
202.00	-21.379	-11.644	
203.00	-21.535	-13.816	
204.00	-21.696	-16.126	
205.00	-21.869	-18.642	
206.00	-22.057	-21.165	
207.00	-22.225	-23.920	
208.00	-22.422	-26.751	
209.00	-22.634	-29.692	
210.00	-22.837	-32.865	
211.00	-23.069	-36.295	
212.00	-23.296	-39.648	
213.00	-23.524	-43.164	
214.00	-23.757	-47.042	
215.00	-24.002	-51.010	
216.00	-24.246	-55.068	
217.00	-24.493	-59.220	
218.00	-24.751	-63.551	
219.00	-24.998	-68.047	
220.00	-25.264	-72.638	
221.00	-25.533	-77.258	
222.00	-25.794	-82.143	
223.00	-26.075	-87.065	
224.00	-26.348	-92.073	
225.00	-26.626	-97.088	
226.00	-26.890	-102.395	
227.00	-27.208	-107.641	
228.00	-27.507	-112.995	
229.00	-27.839	-118.606	
230.00	-28.139	-124.250	
231.00	-28.477	-130.015	
232.00	-28.817	-135.919	
233.00	-29.173	-141.877	
234.00	-29.530	-147.723	
235.00	-29.910	-154.028	
236.00	-30.312	-160.481	
237.00	-30.685	-166.906	
238.00	-31.081	-173.383	
239.00	-31.451	179.820	
240.00	-31.872	173.181	
241.00	-32.298	166.140	
242.00	-32.706	159.149	
243.00	-33.103	151.873	
244.00	-33.509	144.921	
245.00	-33.906	137.794	
246.00	-34.313	130.182	
247.00	-34.715	122.948	
248.00	-35.092	115.480	
249.00	-35.576	108.183	
250.00	-35.920	100.393	
251.00	-36.351	92.607	
252.00	-36.817	85.241	
253.00	-37.215	77.697	
254.00	-37.665	70.377	
255.00	-38.116	62.798	
256.00	-38.571	54.664	
257.00	-39.150	47.574	
258.00	-39.456	39.993	
259.00	-40.060	31.671	
260.00	-40.592	24.209	
261.00	-41.013	16.335	
262.00	-41.419	8.423	
263.00	-41.913	0.770	
264.00	-42.530	-6.272	
265.00	-43.139	-13.925	
266.00	-43.566	-21.266	
267.00	-44.053	-27.695	
268.00	-44.603	-35.831	
269.00	-44.994	-42.194	
270.00	-45.774	-50.148	
271.00	-46.164	-55.975	
272.00	-46.706	-63.580	
273.00	-47.401	-70.380	
274.00	-47.920	-76.574	
275.00	-48.411	-82.539	
276.00	-48.867	-87.554	
277.00	-49.567	-94.620	
278.00	-50.195	-99.276	
279.00	-50.788	-103.979	
280.00	-51.184	-110.814	
281.00	-51.501	-115.731	
282.00	-51.808	-121.344	
283.00	-52.383	-128.920	
284.00	-53.251	-133.645	
285.00	-53.078	-135.649	
286.00	-53.398	-143.651	
287.00	-54.263	-146.008	
288.00	-53.742	-152.707	
289.00	-54.157	-160.730	
290.00	-54.544	-165.027	
291.00	-54.363	-172.598	
292.00	-54.357	177.385	
293.00	-54.575	171.823	
294.00	-54.932	165.568	
295.00	-54.696	156.791	
296.00	-54.793	148.113	
297.00	-54.683	142.618	
298.00	-54.342	137.205	
299.00	-54.704	123.857	
300.00	-54.749	117.425	
301.00	-55.076	109.400	
302.00	-55.006	98.774	
303.00	-55.692	91.073	
304.00	-56.493	85.338	
305.00	-56.073	71.918	
306.00	-56.575	62.068	
307.00	-56.820	50.935	
308.00	-57.229	35.507	
309.00	-57.976	27.956	
310.00	-57.347	13.032	
311.00	-57.562	-3.035	
312.00	-58.147	-12.910	
313.00	-56.767	-26.778	
314.00	-56.865	-42.085	
315.00	-56.840	-52.458	
316.00	-55.826	-61.463	
317.00	-55.285	-73.380	
318.00	-54.829	-85.718	
319.00	-54.886	-95.049	
320.00	-54.138	-102.989	
321.00	-53.829	-110.858	
322.00	-53.454	-120.225	
323.00	-53.141	-126.928	
324.00	-52.675	-133.244	
325.00	-52.340	-140.603	
326.00	-51.925	-146.228	
327.00	-51.984	-150.775	
328.00	-51.949	-156.777	
329.00	-51.557	-162.714	
330.00	-51.739	-164.954	
331.00	-51.895	-171.281	
332.00	-51.906	-176.102	
333.00	-52.214	-179.250	
334.00	-52.598	175.959	
335.00	-52.623	173.042	
336.00	-52.961	167.092	
337.00	-53.323	165.335	
338.00	-53.946	158.303	
339.00	-54.395	155.792	
340.00	-55.709	151.226	
341.00	-55.981	143.121	
342.00	-57.550	142.770	
343.00	-58.999	133.115	
344.00	-60.617	125.295	
345.00	-62.603	125.299	
346.00	-65.798	112.436	
347.00	-67.747	86.235	
348.00	-69.860	38.300	
349.00	-69.826	4.384	
350.00	-66.971	-9.469	
351.00	-63.232	-22.403	
352.00	-61.024	-33.939	
353.00	-59.239	-36.406	
354.00	-57.965	-44.343	
355.00	-56.506	-51.653	
356.00	-55.994	-52.015	
357.00	-54.938	-53.652	
358.00	-54.793	-53.989	
359.00	-54.047	-54.950	
Frequency	3450.00	MHz	
Channel	test		
Scan Axis name	Azimuth  [deg]		
Scan Axis	Amplitude	Phase	
			
0.00	-53.116	111.983	
1.00	-52.763	116.464	
2.00	-53.586	121.427	
3.00	-53.744	122.089	
4.00	-53.720	123.924	
5.00	-53.068	103.956	
6.00	-54.163	113.145	
7.00	-54.062	122.492	
8.00	-55.240	119.659	
9.00	-55.277	123.946	
10.00	-55.779	123.397	
11.00	-56.322	128.408	
12.00	-56.959	130.232	
13.00	-57.613	133.925	
14.00	-58.532	141.988	
15.00	-60.280	143.133	
16.00	-62.876	152.559	
17.00	-63.557	164.982	
18.00	-65.730	-172.691	
19.00	-65.425	-139.293	
20.00	-66.660	-117.512	
21.00	-63.499	-105.289	
22.00	-61.813	-88.632	
23.00	-59.965	-78.050	
24.00	-58.873	-75.226	
25.00	-57.433	-69.763	
26.00	-56.494	-62.438	
27.00	-55.272	-58.462	
28.00	-54.455	-53.077	
29.00	-53.701	-48.344	
30.00	-53.635	-43.216	
31.00	-53.367	-41.115	
32.00	-52.866	-34.588	
33.00	-52.194	-29.622	
34.00	-52.317	-27.312	
35.00	-51.972	-19.949	
36.00	-51.616	-13.809	
37.00	-51.812	-11.783	
38.00	-51.420	-3.821	
39.00	-51.743	1.188	
40.00	-51.466	4.934	
41.00	-51.541	12.737	
42.00	-51.224	18.032	
43.00	-51.307	23.245	
44.00	-51.773	29.813	
45.00	-51.712	36.705	
46.00	-52.060	44.034	
47.00	-51.615	50.286	
48.00	-51.869	57.129	
49.00	-51.887	65.614	
50.00	-52.197	71.971	
51.00	-52.045	81.818	
52.00	-52.212	88.576	
53.00	-52.192	96.628	
54.00	-51.865	104.762	
55.00	-52.490	113.177	
56.00	-52.471	119.736	
57.00	-52.243	129.733	
58.00	-51.767	140.010	
59.00	-51.811	149.587	
60.00	-51.460	158.011	
61.00	-51.153	164.732	
62.00	-51.089	172.758	
63.00	-50.824	-176.716	
64.00	-50.581	-170.270	
65.00	-50.377	-160.178	
66.00	-50.037	-151.260	
67.00	-49.551	-145.070	
68.00	-49.320	-138.220	
69.00	-49.002	-129.253	
70.00	-48.536	-122.223	
71.00	-48.388	-112.342	
72.00	-47.837	-106.566	
73.00	-47.510	-99.227	
74.00	-47.168	-91.491	
75.00	-46.790	-84.931	
76.00	-46.464	-76.269	
77.00	-45.947	-69.355	
78.00	-45.727	-61.768	
79.00	-45.425	-54.011	
80.00	-45.053	-45.665	
81.00	-44.597	-39.105	
82.00	-44.188	-30.712	
83.00	-43.955	-23.743	
84.00	-43.547	-15.259	
85.00	-43.166	-7.400	
86.00	-42.694	0.544	
87.00	-42.384	7.648	
88.00	-41.881	16.605	
89.00	-41.540	24.524	
90.00	-41.255	32.677	
91.00	-40.807	41.086	
92.00	-40.312	49.291	
93.00	-39.978	57.983	
94.00	-39.599	65.920	
95.00	-39.222	74.180	
96.00	-38.799	82.814	
97.00	-38.444	91.370	
98.00	-37.939	99.508	
99.00	-37.576	108.473	
100.00	-37.131	115.861	
101.00	-36.706	124.468	
102.00	-36.367	132.781	
103.00	-35.883	140.903	
104.00	-35.497	149.108	
105.00	-35.180	157.294	
106.00	-34.763	165.845	
107.00	-34.396	173.664	
108.00	-34.026	-178.148	
109.00	-33.634	-170.212	
110.00	-33.244	-162.112	
111.00	-32.885	-154.428	
112.00	-32.543	-146.442	
113.00	-32.191	-138.365	
114.00	-31.810	-130.648	
115.00	-31.479	-122.772	
116.00	-31.146	-114.815	
117.00	-30.793	-107.070	
118.00	-30.488	-99.441	
119.00	-30.142	-91.887	
120.00	-29.805	-84.277	
121.00	-29.517	-76.465	
122.00	-29.181	-69.102	
123.00	-28.877	-61.801	
124.00	-28.576	-54.348	
125.00	-28.269	-47.067	
126.00	-27.952	-39.740	
127.00	-27.676	-32.586	
128.00	-27.366	-25.742	
129.00	-27.070	-18.657	
130.00	-26.773	-11.815	
131.00	-26.506	-4.957	
132.00	-26.238	1.564	
133.00	-25.949	8.148	
134.00	-25.665	14.588	
135.00	-25.413	21.045	
136.00	-25.153	27.214	
137.00	-24.914	33.436	
138.00	-24.659	39.385	
139.00	-24.431	45.403	
140.00	-24.174	51.331	
141.00	-23.947	57.084	
142.00	-23.726	62.762	
143.00	-23.506	68.217	
144.00	-23.300	73.524	
145.00	-23.097	78.920	
146.00	-22.897	84.157	
147.00	-22.698	89.240	
148.00	-22.516	94.171	
149.00	-22.338	98.980	
150.00	-22.161	103.763	
151.00	-22.005	108.290	
152.00	-21.837	112.757	
153.00	-21.673	117.233	
154.00	-21.533	121.427	
155.00	-21.386	125.516	
156.00	-21.239	129.525	
157.00	-21.111	133.370	
158.00	-20.980	137.063	
159.00	-20.873	140.743	
160.00	-20.749	144.208	
161.00	-20.649	147.532	
162.00	-20.531	150.816	
163.00	-20.438	153.856	
164.00	-20.357	156.777	
165.00	-20.265	159.580	
166.00	-20.187	162.436	
167.00	-20.116	165.025	
168.00	-20.054	167.488	
169.00	-19.988	169.834	
170.00	-19.927	172.103	
171.00	-19.889	174.068	
172.00	-19.843	176.034	
173.00	-19.806	177.832	
174.00	-19.773	179.438	
175.00	-19.746	-178.973	
176.00	-19.738	-177.548	
177.00	-19.736	-176.253	
178.00	-19.711	-175.068	
179.00	-19.753	-174.229	
180.00	-19.738	-173.227	
181.00	-19.753	-172.462	
182.00	-19.773	-171.860	
183.00	-19.801	-171.389	
184.00	-19.835	-171.064	
185.00	-19.875	-170.844	
186.00	-19.912	-170.690	
187.00	-19.967	-170.754	
188.00	-20.035	-170.939	
189.00	-20.090	-171.320	
190.00	-20.163	-171.801	
191.00	-20.240	-172.396	
192.00	-20.327	-173.077	
193.00	-20.427	-174.006	
194.00	-20.511	-174.970	
195.00	-20.629	-176.202	
196.00	-20.727	-177.399	
197.00	-20.849	-178.816	
198.00	-20.955	179.751	
199.00	-21.089	178.037	
200.00	-21.241	176.178	
201.00	-21.379	174.234	
202.00	-21.530	172.153	
203.00	-21.691	169.962	
204.00	-21.865	167.579	
205.00	-22.038	165.006	
206.00	-22.219	162.409	
207.00	-22.400	159.618	
208.00	-22.600	156.525	
209.00	-22.785	153.594	
210.00	-22.993	150.278	
211.00	-23.205	146.873	
212.00	-23.404	143.386	
213.00	-23.640	139.844	
214.00	-23.859	135.969	
215.00	-24.086	132.049	
216.00	-24.336	127.906	
217.00	-24.567	123.862	
218.00	-24.836	119.507	
219.00	-25.103	115.040	
220.00	-25.364	110.591	
221.00	-25.643	105.824	
222.00	-25.930	101.167	
223.00	-26.217	96.286	
224.00	-26.526	91.351	
225.00	-26.839	86.205	
226.00	-27.181	80.714	
227.00	-27.485	75.336	
228.00	-27.852	69.835	
229.00	-28.201	64.072	
230.00	-28.552	58.342	
231.00	-28.927	52.243	
232.00	-29.278	46.365	
233.00	-29.639	39.954	
234.00	-30.011	33.576	
235.00	-30.388	26.883	
236.00	-30.778	20.319	
237.00	-31.176	13.792	
238.00	-31.559	6.994	
239.00	-31.950	0.160	
240.00	-32.354	-6.583	
241.00	-32.772	-13.702	
242.00	-33.152	-20.513	
243.00	-33.602	-27.593	
244.00	-34.015	-35.127	
245.00	-34.394	-42.318	
246.00	-34.863	-49.485	
247.00	-35.358	-57.155	
248.00	-35.842	-64.557	
249.00	-36.249	-71.706	
250.00	-36.707	-79.457	
251.00	-37.304	-86.842	
252.00	-37.838	-94.175	
253.00	-38.404	-101.562	
254.00	-38.958	-109.565	
255.00	-39.455	-116.647	
256.00	-40.120	-124.742	
257.00	-40.737	-132.852	
258.00	-41.430	-140.220	
259.00	-42.037	-147.459	
260.00	-42.748	-156.261	
261.00	-43.433	-164.772	
262.00	-44.235	-172.231	
263.00	-44.957	179.761	
264.00	-45.650	172.449	
265.00	-46.420	163.242	
266.00	-47.054	157.088	
267.00	-47.719	147.314	
268.00	-48.571	141.337	
269.00	-49.113	132.961	
270.00	-50.048	123.609	
271.00	-50.743	115.906	
272.00	-51.750	111.488	
273.00	-52.073	107.430	
274.00	-52.945	100.140	
275.00	-53.799	97.673	
276.00	-54.875	94.149	
277.00	-55.467	88.492	
278.00	-56.173	86.287	
279.00	-56.718	80.679	
280.00	-57.141	78.299	
281.00	-57.123	78.591	
282.00	-57.324	76.887	
283.00	-58.327	72.256	
284.00	-57.812	74.783	
285.00	-57.726	72.691	
286.00	-57.522	64.826	
287.00	-57.344	64.227	
288.00	-57.549	58.507	
289.00	-56.568	53.899	
290.00	-56.918	46.770	
291.00	-56.516	42.375	
292.00	-56.344	37.198	
293.00	-55.781	29.874	
294.00	-55.976	23.579	
295.00	-55.455	14.541	
296.00	-55.262	8.410	
297.00	-55.685	2.332	
298.00	-55.652	-5.528	
299.00	-55.593	-11.241	
300.00	-55.509	-23.265	
301.00	-55.535	-30.296	
302.00	-55.759	-34.133	
303.00	-55.641	-43.765	
304.00	-56.536	-51.144	
305.00	-56.476	-62.424	
306.00	-57.619	-73.889	
307.00	-57.570	-82.374	
308.00	-57.832	-92.270	
309.00	-58.936	-103.910	
310.00	-60.110	-120.971	
311.00	-60.103	-132.634	
312.00	-60.522	-143.860	
313.00	-60.326	-161.598	
314.00	-61.156	178.115	
315.00	-60.554	162.966	
316.00	-59.613	140.789	
317.00	-59.930	128.921	
318.00	-58.234	112.461	
319.00	-57.745	102.641	
320.00	-56.871	92.321	
321.00	-55.923	84.142	
322.00	-54.574	78.260	
323.00	-54.563	66.223	
324.00	-54.064	60.173	
325.00	-53.780	52.569	
326.00	-53.369	48.329	
327.00	-52.999	41.447	
328.00	-52.658	38.004	
329.00	-52.519	33.096	
330.00	-52.640	26.599	
331.00	-52.624	22.050	
332.00	-53.536	17.296	
333.00	-53.036	13.217	
334.00	-52.979	9.951	
335.00	-53.468	5.602	
336.00	-53.818	0.520	
337.00	-54.639	1.238	
338.00	-54.800	-3.786	
339.00	-55.776	-6.439	
340.00	-56.745	-10.337	
341.00	-57.084	-9.271	
342.00	-57.576	-13.141	
343.00	-59.726	-8.998	
344.00	-62.740	-10.001	
345.00	-62.489	-10.298	
346.00	-68.057	-2.747	
347.00	-70.632	22.317	
348.00	-72.114	90.200	
349.00	-67.181	95.010	
350.00	-64.684	110.320	
351.00	-62.988	125.949	
352.00	-60.348	122.525	
353.00	-60.456	117.291	
354.00	-58.332	112.807	
355.00	-56.694	120.561	
356.00	-56.043	120.452	
357.00	-55.379	119.765	
358.00	-54.724	118.682	
359.00	-54.571	117.698	
Frequency	3500.00	MHz	
Channel	test		
Scan Axis name	Azimuth  [deg]		
Scan Axis	Amplitude	Phase	
			
0.00	-53.099	-71.194	
1.00	-53.138	-68.304	
2.00	-53.152	-63.929	
3.00	-53.167	-63.851	
4.00	-53.580	-64.195	
5.00	-54.732	-76.835	
6.00	-54.815	-68.793	
7.00	-54.543	-64.418	
8.00	-55.285	-61.056	
9.00	-55.711	-60.723	
10.00	-56.469	-59.216	
11.00	-57.660	-61.014	
12.00	-58.857	-51.202	
13.00	-60.208	-45.846	
14.00	-61.047	-40.422	
15.00	-61.484	-25.570	
16.00	-64.573	-17.058	
17.00	-64.766	6.192	
18.00	-63.886	26.011	
19.00	-62.719	51.684	
20.00	-61.854	69.363	
21.00	-60.282	81.359	
22.00	-59.115	88.853	
23.00	-57.839	98.335	
24.00	-56.040	100.290	
25.00	-55.372	107.686	
26.00	-55.268	114.081	
27.00	-54.251	115.670	
28.00	-53.514	120.366	
29.00	-52.739	128.932	
30.00	-52.495	130.544	
31.00	-51.877	134.213	
32.00	-51.602	138.608	
33.00	-51.284	145.849	
34.00	-51.080	148.614	
35.00	-51.060	153.164	
36.00	-51.072	158.934	
37.00	-50.757	163.602	
38.00	-50.761	168.640	
39.00	-50.938	174.392	
40.00	-50.755	-179.053	
41.00	-50.904	-172.960	
42.00	-51.259	-165.749	
43.00	-51.311	-160.157	
44.00	-51.340	-154.871	
45.00	-51.296	-145.415	
46.00	-51.360	-140.114	
47.00	-51.817	-130.205	
48.00	-51.961	-123.464	
49.00	-51.927	-115.029	
50.00	-51.972	-105.932	
51.00	-52.341	-99.383	
52.00	-52.509	-91.324	
53.00	-52.277	-80.174	
54.00	-52.370	-71.500	
55.00	-52.330	-64.654	
56.00	-52.176	-54.044	
57.00	-52.312	-45.700	
58.00	-52.296	-36.023	
59.00	-51.746	-25.013	
60.00	-51.581	-18.198	
61.00	-51.513	-8.175	
62.00	-51.180	-2.411	
63.00	-51.123	5.709	
64.00	-50.339	15.194	
65.00	-50.374	24.129	
66.00	-49.772	32.228	
67.00	-49.773	38.644	
68.00	-49.292	45.921	
69.00	-49.365	54.137	
70.00	-48.990	60.710	
71.00	-48.754	69.497	
72.00	-48.384	75.444	
73.00	-47.853	84.065	
74.00	-47.608	91.263	
75.00	-47.297	98.400	
76.00	-47.212	106.249	
77.00	-46.701	113.802	
78.00	-46.573	121.328	
79.00	-46.124	129.451	
80.00	-45.849	136.231	
81.00	-45.423	145.149	
82.00	-45.024	153.131	
83.00	-44.738	160.877	
84.00	-44.451	168.089	
85.00	-44.039	176.819	
86.00	-43.648	-176.076	
87.00	-43.255	-167.607	
88.00	-42.978	-159.906	
89.00	-42.367	-151.533	
90.00	-42.071	-142.527	
91.00	-41.657	-134.570	
92.00	-41.150	-126.331	
93.00	-40.813	-118.480	
94.00	-40.350	-110.227	
95.00	-39.931	-101.660	
96.00	-39.525	-93.829	
97.00	-39.101	-85.149	
98.00	-38.640	-77.319	
99.00	-38.213	-68.673	
100.00	-37.773	-60.555	
101.00	-37.412	-51.952	
102.00	-36.962	-44.274	
103.00	-36.566	-36.425	
104.00	-36.116	-27.945	
105.00	-35.764	-19.806	
106.00	-35.396	-11.398	
107.00	-34.987	-3.484	
108.00	-34.602	4.855	
109.00	-34.202	12.672	
110.00	-33.827	20.717	
111.00	-33.436	28.449	
112.00	-33.066	36.370	
113.00	-32.749	44.537	
114.00	-32.364	51.988	
115.00	-31.980	60.114	
116.00	-31.641	67.913	
117.00	-31.360	75.736	
118.00	-31.000	83.534	
119.00	-30.658	91.279	
120.00	-30.313	98.990	
121.00	-29.975	106.420	
122.00	-29.647	113.926	
123.00	-29.339	121.398	
124.00	-29.033	128.715	
125.00	-28.718	135.947	
126.00	-28.396	143.398	
127.00	-28.094	150.423	
128.00	-27.800	157.524	
129.00	-27.482	164.456	
130.00	-27.198	171.514	
131.00	-26.910	178.227	
132.00	-26.637	-175.085	
133.00	-26.359	-168.443	
134.00	-26.078	-161.939	
135.00	-25.824	-155.487	
136.00	-25.548	-149.053	
137.00	-25.301	-143.016	
138.00	-25.048	-136.816	
139.00	-24.802	-130.774	
140.00	-24.550	-124.881	
141.00	-24.332	-119.017	
142.00	-24.111	-113.257	
143.00	-23.884	-107.741	
144.00	-23.666	-102.414	
145.00	-23.462	-97.031	
146.00	-23.241	-91.759	
147.00	-23.058	-86.663	
148.00	-22.859	-81.705	
149.00	-22.680	-76.799	
150.00	-22.511	-72.064	
151.00	-22.330	-67.463	
152.00	-22.162	-62.902	
153.00	-22.010	-58.555	
154.00	-21.840	-54.265	
155.00	-21.696	-50.172	
156.00	-21.557	-46.124	
157.00	-21.421	-42.294	
158.00	-21.295	-38.485	
159.00	-21.164	-34.920	
160.00	-21.045	-31.461	
161.00	-20.927	-28.054	
162.00	-20.831	-24.733	
163.00	-20.737	-21.645	
164.00	-20.638	-18.632	
165.00	-20.565	-15.844	
166.00	-20.468	-12.960	
167.00	-20.395	-10.414	
168.00	-20.324	-7.925	
169.00	-20.260	-5.617	
170.00	-20.201	-3.393	
171.00	-20.176	-1.325	
172.00	-20.111	0.629	
173.00	-20.083	2.419	
174.00	-20.049	4.140	
175.00	-20.029	5.671	
176.00	-20.008	7.080	
177.00	-19.998	8.388	
178.00	-19.993	9.555	
179.00	-20.027	10.439	
180.00	-20.027	11.382	
181.00	-20.032	12.188	
182.00	-20.053	12.806	
183.00	-20.077	13.284	
184.00	-20.112	13.604	
185.00	-20.156	13.757	
186.00	-20.192	13.831	
187.00	-20.243	13.734	
188.00	-20.299	13.567	
189.00	-20.374	13.162	
190.00	-20.450	12.669	
191.00	-20.526	11.988	
192.00	-20.614	11.237	
193.00	-20.703	10.337	
194.00	-20.787	9.357	
195.00	-20.911	8.144	
196.00	-21.010	6.847	
197.00	-21.145	5.401	
198.00	-21.260	3.747	
199.00	-21.388	2.044	
200.00	-21.533	0.169	
201.00	-21.683	-1.812	
202.00	-21.839	-4.060	
203.00	-22.002	-6.360	
204.00	-22.167	-8.777	
205.00	-22.327	-11.428	
206.00	-22.507	-14.130	
207.00	-22.692	-16.988	
208.00	-22.876	-20.056	
209.00	-23.076	-23.142	
210.00	-23.290	-26.448	
211.00	-23.478	-29.880	
212.00	-23.709	-33.218	
213.00	-23.950	-36.954	
214.00	-24.181	-40.902	
215.00	-24.440	-44.741	
216.00	-24.697	-48.770	
217.00	-24.956	-53.129	
218.00	-25.261	-57.495	
219.00	-25.533	-62.160	
220.00	-25.819	-66.810	
221.00	-26.126	-71.694	
222.00	-26.431	-76.569	
223.00	-26.732	-81.740	
224.00	-27.047	-87.138	
225.00	-27.372	-92.508	
226.00	-27.705	-98.123	
227.00	-28.062	-103.859	
228.00	-28.348	-109.670	
229.00	-28.712	-115.738	
230.00	-29.044	-121.690	
231.00	-29.361	-127.772	
232.00	-29.719	-133.997	
233.00	-30.090	-140.564	
234.00	-30.405	-146.987	
235.00	-30.812	-153.625	
236.00	-31.197	-160.243	
237.00	-31.572	-166.953	
238.00	-31.975	-173.662	
239.00	-32.398	179.094	
240.00	-32.812	172.308	
241.00	-33.205	165.047	
242.00	-33.681	158.112	
243.00	-34.133	150.369	
244.00	-34.541	142.786	
245.00	-35.009	135.300	
246.00	-35.522	127.722	
247.00	-35.957	119.684	
248.00	-36.432	111.841	
249.00	-36.921	104.139	
250.00	-37.415	95.939	
251.00	-37.945	88.274	
252.00	-38.528	80.476	
253.00	-39.070	71.810	
254.00	-39.540	63.915	
255.00	-40.212	55.450	
256.00	-40.676	47.668	
257.00	-41.321	39.757	
258.00	-41.969	30.679	
259.00	-42.572	23.103	
260.00	-43.194	14.806	
261.00	-43.972	7.266	
262.00	-44.559	-1.365	
263.00	-45.238	-9.868	
264.00	-46.004	-16.977	
265.00	-46.870	-24.935	
266.00	-47.677	-32.844	
267.00	-48.428	-38.901	
268.00	-49.148	-46.597	
269.00	-50.228	-52.943	
270.00	-51.129	-60.677	
271.00	-52.008	-65.250	
272.00	-53.119	-72.564	
273.00	-54.336	-73.528	
274.00	-55.668	-79.556	
275.00	-55.995	-82.901	
276.00	-57.578	-83.443	
277.00	-57.972	-83.643	
278.00	-58.960	-79.652	
279.00	-59.365	-85.354	
280.00	-58.345	-87.922	
281.00	-58.417	-81.950	
282.00	-57.730	-83.351	
283.00	-57.603	-87.104	
284.00	-56.953	-95.556	
285.00	-56.274	-100.023	
286.00	-56.357	-102.954	
287.00	-55.785	-111.541	
288.00	-55.363	-118.981	
289.00	-55.444	-123.491	
290.00	-54.545	-133.812	
291.00	-55.176	-139.784	
292.00	-54.727	-147.320	
293.00	-54.683	-154.073	
294.00	-54.079	-164.953	
295.00	-54.479	-168.359	
296.00	-54.400	178.692	
297.00	-54.696	171.847	
298.00	-54.544	161.529	
299.00	-54.457	157.518	
300.00	-54.967	148.338	
301.00	-54.821	137.164	
302.00	-54.809	128.941	
303.00	-55.342	119.039	
304.00	-55.874	106.551	
305.00	-55.699	98.456	
306.00	-56.214	92.784	
307.00	-56.649	83.279	
308.00	-57.329	70.553	
309.00	-57.871	56.972	
310.00	-57.311	48.864	
311.00	-58.531	34.153	
312.00	-59.494	22.342	
313.00	-58.667	7.801	
314.00	-58.952	-10.991	
315.00	-59.056	-21.940	
316.00	-58.717	-38.312	
317.00	-58.361	-44.434	
318.00	-57.550	-64.748	
319.00	-57.303	-70.321	
320.00	-56.317	-81.492	
321.00	-55.342	-92.138	
322.00	-55.013	-98.922	
323.00	-53.943	-109.999	
324.00	-53.750	-115.066	
325.00	-53.282	-121.025	
326.00	-52.709	-129.473	
327.00	-52.394	-135.533	
328.00	-52.014	-143.838	
329.00	-52.131	-147.141	
330.00	-52.161	-153.481	
331.00	-51.791	-158.745	
332.00	-52.163	-162.802	
333.00	-52.216	-164.961	
334.00	-51.864	-170.767	
335.00	-52.497	-175.267	
336.00	-52.422	-179.161	
337.00	-53.191	175.053	
338.00	-53.564	173.383	
339.00	-54.767	170.254	
340.00	-54.934	170.824	
341.00	-55.863	166.666	
342.00	-57.020	167.190	
343.00	-58.088	169.621	
344.00	-59.847	166.473	
345.00	-61.707	169.242	
346.00	-63.809	178.398	
347.00	-66.428	-175.967	
348.00	-67.241	-154.892	
349.00	-67.004	-117.311	
350.00	-64.395	-99.210	
351.00	-62.501	-81.944	
352.00	-60.792	-74.134	
353.00	-58.942	-77.560	
354.00	-58.021	-68.978	
355.00	-57.038	-68.146	
356.00	-56.205	-68.163	
357.00	-55.985	-69.879	
358.00	-54.947	-68.744	
359.00	-54.821	-70.129	
Frequency	3550.00	MHz	
Channel	test		
Scan Axis name	Azimuth  [deg]		
Scan Axis	Amplitude	Phase	
			
0.00	-52.575	100.583	
1.00	-52.331	103.335	
2.00	-52.278	102.698	
3.00	-52.429	105.968	
4.00	-52.178	107.159	
5.00	-54.086	103.822	
6.00	-53.890	109.284	
7.00	-54.517	113.008	
8.00	-54.719	116.006	
9.00	-54.862	114.744	
10.00	-56.039	119.680	
11.00	-56.792	122.465	
12.00	-57.503	128.202	
13.00	-58.914	134.678	
14.00	-59.541	141.595	
15.00	-60.748	155.078	
16.00	-61.737	171.193	
17.00	-61.987	-172.431	
18.00	-61.357	-155.026	
19.00	-60.604	-132.283	
20.00	-59.335	-124.663	
21.00	-58.181	-115.889	
22.00	-57.511	-107.558	
23.00	-56.374	-97.233	
24.00	-55.469	-93.578	
25.00	-54.624	-85.689	
26.00	-53.897	-81.320	
27.00	-53.304	-76.084	
28.00	-52.374	-72.106	
29.00	-52.527	-67.348	
30.00	-51.790	-60.963	
31.00	-51.569	-54.547	
32.00	-51.193	-50.385	
33.00	-51.333	-43.941	
34.00	-50.941	-39.974	
35.00	-50.633	-34.284	
36.00	-50.416	-28.709	
37.00	-50.760	-25.270	
38.00	-50.397	-17.830	
39.00	-50.568	-10.849	
40.00	-50.873	-5.705	
41.00	-50.633	0.304	
42.00	-50.859	5.661	
43.00	-51.296	14.922	
44.00	-51.076	22.526	
45.00	-51.548	30.518	
46.00	-51.503	37.102	
47.00	-51.408	44.925	
48.00	-52.113	52.802	
49.00	-51.700	63.586	
50.00	-52.400	73.224	
51.00	-52.070	78.858	
52.00	-52.145	92.265	
53.00	-52.087	100.641	
54.00	-52.217	106.614	
55.00	-52.040	120.468	
56.00	-52.075	129.994	
57.00	-51.740	138.368	
58.00	-51.573	146.363	
59.00	-51.512	157.232	
60.00	-51.228	164.878	
61.00	-50.777	173.573	
62.00	-50.702	-178.236	
63.00	-50.556	-168.584	
64.00	-50.096	-161.382	
65.00	-49.867	-154.971	
66.00	-49.612	-145.704	
67.00	-49.451	-138.673	
68.00	-49.412	-131.284	
69.00	-48.903	-123.004	
70.00	-49.002	-116.126	
71.00	-48.734	-107.476	
72.00	-48.569	-101.434	
73.00	-48.110	-93.491	
74.00	-47.950	-85.034	
75.00	-47.900	-77.607	
76.00	-47.433	-70.639	
77.00	-47.346	-61.814	
78.00	-46.945	-55.745	
79.00	-46.442	-47.258	
80.00	-46.381	-38.978	
81.00	-46.247	-32.046	
82.00	-45.879	-23.472	
83.00	-45.563	-14.098	
84.00	-45.041	-7.273	
85.00	-44.913	0.772	
86.00	-44.343	8.915	
87.00	-44.057	16.313	
88.00	-43.548	25.903	
89.00	-43.011	33.063	
90.00	-42.753	41.442	
91.00	-42.393	49.308	
92.00	-41.820	57.354	
93.00	-41.330	66.083	
94.00	-40.924	73.946	
95.00	-40.418	81.393	
96.00	-40.116	89.441	
97.00	-39.614	97.298	
98.00	-39.187	105.079	
99.00	-38.808	113.460	
100.00	-38.358	121.890	
101.00	-37.999	129.462	
102.00	-37.557	137.979	
103.00	-37.108	145.948	
104.00	-36.759	154.286	
105.00	-36.348	162.025	
106.00	-35.897	170.039	
107.00	-35.585	178.846	
108.00	-35.160	-173.438	
109.00	-34.732	-165.713	
110.00	-34.392	-157.543	
111.00	-33.999	-149.668	
112.00	-33.668	-141.380	
113.00	-33.311	-133.465	
114.00	-32.941	-125.576	
115.00	-32.603	-117.677	
116.00	-32.214	-110.012	
117.00	-31.907	-102.165	
118.00	-31.542	-94.371	
119.00	-31.168	-86.741	
120.00	-30.871	-79.056	
121.00	-30.492	-71.353	
122.00	-30.222	-63.846	
123.00	-29.847	-56.278	
124.00	-29.554	-49.091	
125.00	-29.220	-41.677	
126.00	-28.904	-34.211	
127.00	-28.585	-27.069	
128.00	-28.291	-19.834	
129.00	-27.992	-12.700	
130.00	-27.716	-5.890	
131.00	-27.414	1.103	
132.00	-27.101	7.841	
133.00	-26.833	14.626	
134.00	-26.569	21.052	
135.00	-26.294	27.565	
136.00	-26.010	34.054	
137.00	-25.788	40.243	
138.00	-25.519	46.398	
139.00	-25.256	52.565	
140.00	-25.024	58.541	
141.00	-24.783	64.332	
142.00	-24.535	70.283	
143.00	-24.308	75.712	
144.00	-24.077	81.162	
145.00	-23.858	86.508	
146.00	-23.652	91.847	
147.00	-23.433	96.975	
148.00	-23.254	102.100	
149.00	-23.054	107.021	
150.00	-22.854	111.840	
151.00	-22.694	116.442	
152.00	-22.510	121.044	
153.00	-22.347	125.399	
154.00	-22.181	129.780	
155.00	-22.040	133.919	
156.00	-21.892	138.124	
157.00	-21.753	141.959	
158.00	-21.610	145.792	
159.00	-21.486	149.356	
160.00	-21.377	152.858	
161.00	-21.248	156.285	
162.00	-21.147	159.569	
163.00	-21.034	162.769	
164.00	-20.948	165.639	
165.00	-20.862	168.602	
166.00	-20.778	171.381	
167.00	-20.696	174.029	
168.00	-20.625	176.449	
169.00	-20.555	178.791	
170.00	-20.501	-179.000	
171.00	-20.451	-176.980	
172.00	-20.403	-174.980	
173.00	-20.369	-173.193	
174.00	-20.337	-171.545	
175.00	-20.321	-169.996	
176.00	-20.303	-168.538	
177.00	-20.280	-167.278	
178.00	-20.268	-166.109	
179.00	-20.299	-165.213	
180.00	-20.296	-164.330	
181.00	-20.299	-163.520	
182.00	-20.321	-162.954	
183.00	-20.351	-162.500	
184.00	-20.376	-162.119	
185.00	-20.418	-161.965	
186.00	-20.449	-161.906	
187.00	-20.516	-162.028	
188.00	-20.573	-162.289	
189.00	-20.642	-162.683	
190.00	-20.711	-163.139	
191.00	-20.800	-163.829	
192.00	-20.882	-164.585	
193.00	-20.969	-165.496	
194.00	-21.086	-166.621	
195.00	-21.187	-167.818	
196.00	-21.301	-169.117	
197.00	-21.410	-170.709	
198.00	-21.554	-172.366	
199.00	-21.694	-174.069	
200.00	-21.823	-176.036	
201.00	-21.961	-178.052	
202.00	-22.131	179.737	
203.00	-22.280	177.299	
204.00	-22.441	174.869	
205.00	-22.627	172.322	
206.00	-22.804	169.461	
207.00	-23.015	166.538	
208.00	-23.202	163.499	
209.00	-23.412	160.322	
210.00	-23.655	156.912	
211.00	-23.856	153.499	
212.00	-24.103	149.783	
213.00	-24.336	145.733	
214.00	-24.573	141.890	
215.00	-24.832	137.756	
216.00	-25.096	133.367	
217.00	-25.349	129.001	
218.00	-25.622	124.354	
219.00	-25.882	119.587	
220.00	-26.175	114.607	
221.00	-26.456	109.766	
222.00	-26.717	104.627	
223.00	-27.027	99.537	
224.00	-27.313	94.179	
225.00	-27.636	88.668	
226.00	-27.951	83.229	
227.00	-28.264	77.489	
228.00	-28.601	71.655	
229.00	-28.980	65.951	
230.00	-29.331	59.586	
231.00	-29.694	53.703	
232.00	-30.094	47.260	
233.00	-30.437	40.987	
234.00	-30.860	34.290	
235.00	-31.255	27.838	
236.00	-31.673	20.767	
237.00	-32.082	14.002	
238.00	-32.519	6.951	
239.00	-32.973	-0.307	
240.00	-33.356	-7.741	
241.00	-33.797	-15.044	
242.00	-34.188	-22.528	
243.00	-34.651	-30.286	
244.00	-35.093	-38.098	
245.00	-35.545	-45.625	
246.00	-35.984	-53.423	
247.00	-36.431	-61.075	
248.00	-36.865	-69.472	
249.00	-37.377	-77.432	
250.00	-37.878	-85.106	
251.00	-38.444	-92.730	
252.00	-38.912	-101.581	
253.00	-39.451	-108.931	
254.00	-39.987	-116.962	
255.00	-40.624	-124.780	
256.00	-41.159	-133.514	
257.00	-41.837	-140.762	
258.00	-42.376	-148.499	
259.00	-43.173	-156.994	
260.00	-43.770	-164.400	
261.00	-44.569	-174.385	
262.00	-45.369	178.778	
263.00	-46.059	169.573	
264.00	-46.939	162.211	
265.00	-47.736	155.190	
266.00	-48.596	146.954	
267.00	-49.843	139.034	
268.00	-50.807	131.443	
269.00	-52.243	122.773	
270.00	-53.482	116.145	
271.00	-54.025	106.435	
272.00	-55.519	100.294	
273.00	-56.308	98.302	
274.00	-57.842	88.833	
275.00	-58.859	84.830	
276.00	-60.014	87.817	
277.00	-60.998	93.611	
278.00	-61.009	95.155	
279.00	-61.681	95.779	
280.00	-60.938	105.375	
281.00	-60.401	98.131	
282.00	-58.880	99.445	
283.00	-57.924	96.592	
284.00	-56.998	91.175	
285.00	-56.256	86.763	
286.00	-55.444	75.094	
287.00	-54.682	76.607	
288.00	-54.303	66.088	
289.00	-53.589	59.955	
290.00	-53.410	50.604	
291.00	-52.707	44.741	
292.00	-52.616	38.060	
293.00	-52.057	29.564	
294.00	-52.159	22.429	
295.00	-52.084	14.052	
296.00	-52.057	5.719	
297.00	-51.959	-2.648	
298.00	-51.939	-10.976	
299.00	-52.120	-19.186	
300.00	-52.060	-26.348	
301.00	-52.514	-36.654	
302.00	-52.432	-43.610	
303.00	-53.416	-54.597	
304.00	-53.172	-58.885	
305.00	-54.282	-70.981	
306.00	-54.760	-81.699	
307.00	-55.374	-91.684	
308.00	-55.597	-101.049	
309.00	-57.101	-110.760	
310.00	-57.554	-130.252	
311.00	-58.266	-141.312	
312.00	-58.815	-156.166	
313.00	-59.677	-171.739	
314.00	-59.397	167.162	
315.00	-59.614	149.260	
316.00	-59.597	134.284	
317.00	-58.923	119.974	
318.00	-57.904	105.742	
319.00	-57.196	93.828	
320.00	-56.203	80.954	
321.00	-55.419	71.633	
322.00	-54.316	66.393	
323.00	-54.062	56.038	
324.00	-53.202	50.744	
325.00	-52.824	43.184	
326.00	-52.363	38.010	
327.00	-52.136	32.599	
328.00	-52.115	25.754	
329.00	-51.903	22.223	
330.00	-51.483	14.841	
331.00	-51.633	11.459	
332.00	-51.397	7.438	
333.00	-51.421	1.374	
334.00	-51.867	0.589	
335.00	-51.796	-6.163	
336.00	-52.328	-8.371	
337.00	-52.412	-11.362	
338.00	-53.162	-15.467	
339.00	-54.003	-17.130	
340.00	-54.091	-19.244	
341.00	-55.352	-21.439	
342.00	-55.766	-22.386	
343.00	-57.797	-21.807	
344.00	-58.276	-19.700	
345.00	-61.365	-17.846	
346.00	-61.724	-14.378	
347.00	-65.064	-9.232	
348.00	-65.522	23.031	
349.00	-66.386	52.096	
350.00	-65.848	75.175	
351.00	-63.771	83.701	
352.00	-62.171	91.066	
353.00	-58.975	103.516	
354.00	-58.311	101.550	
355.00	-57.112	102.016	
356.00	-56.387	101.725	
357.00	-55.656	103.560	
358.00	-55.147	103.472	
359.00	-55.040	100.826	
Frequency	3600.00	MHz	
Channel	test		
Scan Axis name	Azimuth  [deg]		
Scan Axis	Amplitude	Phase	
			
0.00	-52.192	-91.855	
1.00	-51.742	-91.188	
2.00	-51.888	-87.358	
3.00	-52.197	-89.505	
4.00	-52.383	-89.230	
5.00	-52.456	-91.746	
6.00	-52.785	-87.868	
7.00	-53.034	-81.525	
8.00	-54.040	-78.822	
9.00	-54.521	-81.077	
10.00	-54.500	-75.382	
11.00	-55.695	-68.898	
12.00	-56.547	-65.061	
13.00	-57.524	-63.507	
14.00	-58.813	-53.137	
15.00	-60.856	-45.227	
16.00	-60.606	-25.523	
17.00	-61.644	-14.242	
18.00	-61.094	7.189	
19.00	-60.623	23.788	
20.00	-59.944	39.061	
21.00	-59.078	54.228	
22.00	-57.732	61.979	
23.00	-56.784	73.451	
24.00	-55.199	76.106	
25.00	-54.296	79.752	
26.00	-53.942	88.317	
27.00	-53.207	94.463	
28.00	-52.999	97.264	
29.00	-51.996	102.726	
30.00	-51.650	108.423	
31.00	-51.042	113.993	
32.00	-51.251	117.036	
33.00	-50.971	123.409	
34.00	-50.899	130.267	
35.00	-50.680	134.106	
36.00	-50.793	140.329	
37.00	-50.781	146.090	
38.00	-51.000	152.475	
39.00	-50.319	157.561	
40.00	-50.609	162.320	
41.00	-50.712	169.286	
42.00	-51.374	178.388	
43.00	-51.267	-174.735	
44.00	-51.216	-166.394	
45.00	-51.628	-160.955	
46.00	-51.458	-152.606	
47.00	-52.025	-144.646	
48.00	-52.159	-132.816	
49.00	-52.301	-122.773	
50.00	-52.563	-116.047	
51.00	-52.584	-104.955	
52.00	-52.368	-93.645	
53.00	-52.621	-86.074	
54.00	-52.631	-75.032	
55.00	-52.442	-65.143	
56.00	-52.263	-53.664	
57.00	-52.076	-44.959	
58.00	-51.735	-35.204	
59.00	-51.599	-26.854	
60.00	-51.408	-18.573	
61.00	-51.181	-10.898	
62.00	-50.930	-0.736	
63.00	-50.370	6.952	
64.00	-50.313	14.602	
65.00	-50.054	22.898	
66.00	-49.968	32.967	
67.00	-49.805	39.252	
68.00	-49.654	49.781	
69.00	-49.310	54.231	
70.00	-49.109	62.596	
71.00	-49.049	70.675	
72.00	-49.002	78.863	
73.00	-48.488	86.772	
74.00	-48.425	94.437	
75.00	-48.378	102.067	
76.00	-48.206	110.395	
77.00	-47.801	117.936	
78.00	-47.407	125.876	
79.00	-47.471	134.006	
80.00	-47.064	141.228	
81.00	-46.722	148.462	
82.00	-46.390	157.843	
83.00	-46.128	166.649	
84.00	-45.714	173.742	
85.00	-45.489	-178.167	
86.00	-45.106	-170.055	
87.00	-44.776	-162.025	
88.00	-44.332	-154.884	
89.00	-43.816	-146.416	
90.00	-43.552	-138.922	
91.00	-43.053	-130.543	
92.00	-42.570	-122.423	
93.00	-42.198	-114.478	
94.00	-41.748	-106.599	
95.00	-41.459	-98.184	
96.00	-41.037	-90.274	
97.00	-40.561	-82.718	
98.00	-40.087	-74.570	
99.00	-39.736	-66.867	
100.00	-39.249	-58.238	
101.00	-38.794	-50.169	
102.00	-38.427	-42.498	
103.00	-38.000	-34.099	
104.00	-37.669	-26.280	
105.00	-37.241	-17.746	
106.00	-36.849	-9.864	
107.00	-36.517	-1.830	
108.00	-36.102	6.211	
109.00	-35.727	14.439	
110.00	-35.331	22.545	
111.00	-35.003	30.329	
112.00	-34.562	38.226	
113.00	-34.247	46.365	
114.00	-33.887	54.245	
115.00	-33.512	62.276	
116.00	-33.160	70.120	
117.00	-32.798	78.301	
118.00	-32.492	85.908	
119.00	-32.085	93.935	
120.00	-31.735	101.695	
121.00	-31.421	109.494	
122.00	-31.091	117.355	
123.00	-30.738	124.843	
124.00	-30.388	132.201	
125.00	-30.081	139.828	
126.00	-29.741	147.179	
127.00	-29.417	154.435	
128.00	-29.122	161.765	
129.00	-28.806	168.894	
130.00	-28.490	175.942	
131.00	-28.200	-177.241	
132.00	-27.892	-170.318	
133.00	-27.610	-163.593	
134.00	-27.331	-156.749	
135.00	-27.037	-150.186	
136.00	-26.750	-143.909	
137.00	-26.493	-137.509	
138.00	-26.189	-131.400	
139.00	-25.946	-125.241	
140.00	-25.691	-119.254	
141.00	-25.446	-113.346	
142.00	-25.191	-107.577	
143.00	-24.975	-102.008	
144.00	-24.715	-96.351	
145.00	-24.498	-90.954	
146.00	-24.291	-85.586	
147.00	-24.080	-80.457	
148.00	-23.863	-75.320	
149.00	-23.663	-70.323	
150.00	-23.458	-65.544	
151.00	-23.283	-60.912	
152.00	-23.102	-56.280	
153.00	-22.935	-51.817	
154.00	-22.763	-47.490	
155.00	-22.597	-43.312	
156.00	-22.446	-39.157	
157.00	-22.303	-35.195	
158.00	-22.166	-31.435	
159.00	-22.031	-27.731	
160.00	-21.914	-24.319	
161.00	-21.799	-20.810	
162.00	-21.686	-17.581	
163.00	-21.579	-14.293	
164.00	-21.466	-11.340	
165.00	-21.386	-8.427	
166.00	-21.298	-5.697	
167.00	-21.210	-3.069	
168.00	-21.151	-0.569	
169.00	-21.076	1.747	
170.00	-21.017	3.856	
171.00	-20.970	5.917	
172.00	-20.923	7.847	
173.00	-20.878	9.670	
174.00	-20.855	11.315	
175.00	-20.817	12.863	
176.00	-20.800	14.251	
177.00	-20.781	15.460	
178.00	-20.782	16.676	
179.00	-20.800	17.424	
180.00	-20.797	18.423	
181.00	-20.815	19.180	
182.00	-20.831	19.731	
183.00	-20.860	20.135	
184.00	-20.892	20.480	
185.00	-20.943	20.606	
186.00	-20.989	20.580	
187.00	-21.047	20.424	
188.00	-21.095	20.217	
189.00	-21.179	19.809	
190.00	-21.247	19.218	
191.00	-21.328	18.579	
192.00	-21.438	17.738	
193.00	-21.526	16.800	
194.00	-21.625	15.666	
195.00	-21.739	14.446	
196.00	-21.854	13.015	
197.00	-21.977	11.538	
198.00	-22.112	9.809	
199.00	-22.239	8.039	
200.00	-22.390	6.075	
201.00	-22.539	3.882	
202.00	-22.709	1.768	
203.00	-22.867	-0.745	
204.00	-23.034	-3.182	
205.00	-23.218	-5.876	
206.00	-23.400	-8.740	
207.00	-23.599	-11.678	
208.00	-23.806	-14.857	
209.00	-23.999	-18.157	
210.00	-24.227	-21.704	
211.00	-24.447	-25.170	
212.00	-24.646	-28.907	
213.00	-24.915	-32.826	
214.00	-25.142	-36.677	
215.00	-25.373	-41.035	
216.00	-25.643	-45.255	
217.00	-25.889	-49.520	
218.00	-26.149	-54.021	
219.00	-26.459	-58.729	
220.00	-26.762	-63.503	
221.00	-27.036	-68.429	
222.00	-27.339	-73.478	
223.00	-27.684	-78.738	
224.00	-28.013	-83.982	
225.00	-28.352	-89.677	
226.00	-28.696	-95.367	
227.00	-29.037	-101.368	
228.00	-29.401	-107.032	
229.00	-29.785	-113.426	
230.00	-30.142	-119.740	
231.00	-30.564	-126.045	
232.00	-30.900	-132.826	
233.00	-31.310	-139.286	
234.00	-31.674	-146.231	
235.00	-32.082	-153.149	
236.00	-32.477	-160.288	
237.00	-32.827	-167.159	
238.00	-33.234	-174.528	
239.00	-33.656	178.215	
240.00	-34.069	170.547	
241.00	-34.436	163.372	
242.00	-34.954	155.835	
243.00	-35.329	148.321	
244.00	-35.795	140.951	
245.00	-36.256	133.169	
246.00	-36.736	125.383	
247.00	-37.204	117.620	
248.00	-37.779	109.022	
249.00	-38.214	101.871	
250.00	-38.835	93.285	
251.00	-39.335	85.541	
252.00	-39.950	77.202	
253.00	-40.478	68.965	
254.00	-41.191	60.458	
255.00	-41.952	52.187	
256.00	-42.535	44.873	
257.00	-43.084	35.073	
258.00	-43.850	27.434	
259.00	-44.609	18.387	
260.00	-45.498	9.667	
261.00	-46.200	0.647	
262.00	-47.165	-7.817	
263.00	-48.016	-15.420	
264.00	-48.829	-23.412	
265.00	-50.168	-33.297	
266.00	-50.856	-43.387	
267.00	-51.964	-49.572	
268.00	-53.145	-59.950	
269.00	-54.287	-69.542	
270.00	-55.529	-78.410	
271.00	-56.250	-88.629	
272.00	-58.466	-92.056	
273.00	-60.217	-95.566	
274.00	-62.843	-102.295	
275.00	-62.921	-103.155	
276.00	-64.664	-100.193	
277.00	-67.270	-100.919	
278.00	-67.408	-96.658	
279.00	-67.243	-85.514	
280.00	-66.099	-68.343	
281.00	-64.068	-78.098	
282.00	-62.820	-68.478	
283.00	-61.548	-82.077	
284.00	-60.573	-84.922	
285.00	-59.003	-97.982	
286.00	-58.960	-105.394	
287.00	-57.800	-108.659	
288.00	-57.673	-116.236	
289.00	-57.304	-121.954	
290.00	-56.119	-132.710	
291.00	-56.358	-139.643	
292.00	-55.666	-147.020	
293.00	-55.161	-155.905	
294.00	-54.777	-162.854	
295.00	-54.976	-170.553	
296.00	-54.308	179.989	
297.00	-54.046	169.997	
298.00	-54.227	161.103	
299.00	-53.855	152.494	
300.00	-54.287	143.961	
301.00	-54.192	141.947	
302.00	-54.396	132.816	
303.00	-54.940	120.086	
304.00	-54.506	114.664	
305.00	-54.692	106.590	
306.00	-55.708	98.785	
307.00	-56.195	90.881	
308.00	-56.793	76.441	
309.00	-58.181	69.789	
310.00	-58.849	57.228	
311.00	-59.449	42.690	
312.00	-61.189	25.202	
313.00	-61.053	7.150	
314.00	-61.669	-8.909	
315.00	-61.502	-30.594	
316.00	-60.987	-45.970	
317.00	-60.775	-64.522	
318.00	-58.586	-81.624	
319.00	-58.200	-95.859	
320.00	-56.941	-101.437	
321.00	-56.432	-115.212	
322.00	-55.632	-121.680	
323.00	-54.568	-132.936	
324.00	-54.254	-139.296	
325.00	-53.709	-146.445	
326.00	-53.112	-155.424	
327.00	-52.664	-160.688	
328.00	-52.484	-165.610	
329.00	-52.155	-167.698	
330.00	-52.094	-177.454	
331.00	-51.998	-179.663	
332.00	-52.038	175.256	
333.00	-52.174	172.259	
334.00	-52.213	166.588	
335.00	-52.613	162.345	
336.00	-52.919	162.469	
337.00	-53.339	157.099	
338.00	-53.732	155.539	
339.00	-54.135	156.177	
340.00	-54.781	153.113	
341.00	-55.982	150.572	
342.00	-57.120	150.726	
343.00	-57.626	148.723	
344.00	-59.494	155.187	
345.00	-59.905	163.688	
346.00	-62.114	177.678	
347.00	-63.302	-177.807	
348.00	-64.628	-148.272	
349.00	-63.484	-125.752	
350.00	-62.457	-120.680	
351.00	-60.956	-111.828	
352.00	-58.892	-107.780	
353.00	-57.721	-103.980	
354.00	-57.126	-95.592	
355.00	-55.725	-90.251	
356.00	-55.136	-93.803	
357.00	-54.900	-90.551	
358.00	-54.022	-93.087	
359.00	-53.356	-92.063	
Frequency	3650.00	MHz	
Channel	test		
Scan Axis name	Azimuth  [deg]		
Scan Axis	Amplitude	Phase	
			
0.00	-52.753	74.907	
1.00	-52.988	74.672	
2.00	-53.047	79.873	
3.00	-53.079	78.702	
4.00	-52.951	80.085	
5.00	-53.900	76.874	
6.00	-53.945	79.322	
7.00	-54.321	86.880	
8.00	-54.984	89.168	
9.00	-55.685	92.207	
10.00	-56.760	91.705	
11.00	-56.796	95.383	
12.00	-58.006	105.568	
13.00	-58.827	117.251	
14.00	-60.002	117.845	
15.00	-61.682	133.441	
16.00	-61.694	150.951	
17.00	-63.377	172.311	
18.00	-61.510	-172.719	
19.00	-61.392	-156.312	
20.00	-60.726	-140.278	
21.00	-58.296	-129.245	
22.00	-57.858	-122.746	
23.00	-56.506	-114.552	
24.00	-55.986	-109.683	
25.00	-54.171	-99.225	
26.00	-54.058	-97.684	
27.00	-53.592	-93.134	
28.00	-53.067	-86.440	
29.00	-52.627	-83.112	
30.00	-52.165	-76.983	
31.00	-51.705	-72.302	
32.00	-52.041	-65.846	
33.00	-51.535	-61.003	
34.00	-51.016	-56.511	
35.00	-51.319	-51.220	
36.00	-51.095	-45.090	
37.00	-51.211	-40.037	
38.00	-51.570	-31.893	
39.00	-51.514	-29.089	
40.00	-51.815	-19.998	
41.00	-52.080	-12.430	
42.00	-51.883	-6.498	
43.00	-52.630	0.009	
44.00	-52.900	9.028	
45.00	-53.160	18.772	
46.00	-53.222	28.746	
47.00	-53.361	37.010	
48.00	-54.164	49.122	
49.00	-53.696	58.935	
50.00	-53.891	72.261	
51.00	-53.864	84.055	
52.00	-53.896	93.191	
53.00	-53.664	103.488	
54.00	-53.442	111.761	
55.00	-53.100	125.276	
56.00	-52.787	135.126	
57.00	-52.574	143.566	
58.00	-52.159	154.068	
59.00	-52.222	161.381	
60.00	-51.665	170.377	
61.00	-51.497	179.707	
62.00	-51.432	-173.109	
63.00	-51.027	-164.569	
64.00	-50.824	-155.848	
65.00	-50.520	-149.018	
66.00	-50.115	-138.897	
67.00	-50.185	-132.754	
68.00	-50.099	-124.166	
69.00	-49.907	-116.467	
70.00	-49.779	-107.380	
71.00	-49.394	-99.989	
72.00	-49.282	-91.758	
73.00	-49.374	-84.699	
74.00	-49.145	-76.656	
75.00	-49.077	-68.884	
76.00	-48.686	-59.393	
77.00	-48.487	-54.289	
78.00	-48.310	-42.696	
79.00	-48.182	-35.811	
80.00	-47.843	-27.622	
81.00	-47.467	-20.411	
82.00	-47.262	-13.061	
83.00	-46.930	-4.893	
84.00	-46.693	1.305	
85.00	-46.362	10.918	
86.00	-45.965	18.583	
87.00	-45.530	26.720	
88.00	-45.031	32.806	
89.00	-44.597	41.153	
90.00	-44.280	48.886	
91.00	-43.815	56.509	
92.00	-43.460	63.532	
93.00	-43.034	71.914	
94.00	-42.595	79.660	
95.00	-42.176	87.065	
96.00	-41.697	95.379	
97.00	-41.350	102.767	
98.00	-40.888	111.246	
99.00	-40.386	119.037	
100.00	-40.011	126.158	
101.00	-39.618	134.410	
102.00	-39.140	142.447	
103.00	-38.772	150.126	
104.00	-38.360	158.304	
105.00	-37.938	166.113	
106.00	-37.606	173.878	
107.00	-37.262	-177.471	
108.00	-36.854	-169.716	
109.00	-36.402	-161.637	
110.00	-36.081	-153.686	
111.00	-35.694	-145.324	
112.00	-35.316	-137.513	
113.00	-34.954	-129.463	
114.00	-34.596	-121.448	
115.00	-34.252	-112.991	
116.00	-33.847	-105.178	
117.00	-33.493	-97.453	
118.00	-33.164	-89.460	
119.00	-32.791	-81.436	
120.00	-32.436	-73.487	
121.00	-32.109	-65.693	
122.00	-31.734	-58.028	
123.00	-31.390	-50.378	
124.00	-31.023	-42.840	
125.00	-30.709	-35.386	
126.00	-30.391	-27.828	
127.00	-30.031	-20.720	
128.00	-29.682	-13.165	
129.00	-29.359	-5.930	
130.00	-29.043	1.000	
131.00	-28.746	8.185	
132.00	-28.457	14.799	
133.00	-28.143	21.642	
134.00	-27.842	28.506	
135.00	-27.546	35.005	
136.00	-27.276	41.421	
137.00	-26.992	47.872	
138.00	-26.723	54.176	
139.00	-26.470	60.291	
140.00	-26.185	66.424	
141.00	-25.950	72.299	
142.00	-25.699	78.181	
143.00	-25.443	83.857	
144.00	-25.220	89.414	
145.00	-24.998	94.972	
146.00	-24.752	100.369	
147.00	-24.555	105.545	
148.00	-24.321	110.524	
149.00	-24.137	115.585	
150.00	-23.945	120.546	
151.00	-23.749	125.260	
152.00	-23.588	129.838	
153.00	-23.397	134.391	
154.00	-23.231	138.747	
155.00	-23.072	142.996	
156.00	-22.915	147.195	
157.00	-22.771	151.141	
158.00	-22.631	154.963	
159.00	-22.502	158.764	
160.00	-22.370	162.281	
161.00	-22.252	165.624	
162.00	-22.152	169.084	
163.00	-22.047	172.280	
164.00	-21.946	175.258	
165.00	-21.847	178.221	
166.00	-21.781	-179.139	
167.00	-21.699	-176.359	
168.00	-21.628	-173.851	
169.00	-21.548	-171.411	
170.00	-21.491	-169.225	
171.00	-21.428	-167.145	
172.00	-21.386	-165.175	
173.00	-21.342	-163.278	
174.00	-21.321	-161.620	
175.00	-21.284	-160.043	
176.00	-21.256	-158.656	
177.00	-21.252	-157.428	
178.00	-21.248	-156.193	
179.00	-21.261	-155.241	
180.00	-21.260	-154.351	
181.00	-21.265	-153.598	
182.00	-21.292	-152.914	
183.00	-21.311	-152.528	
184.00	-21.347	-152.192	
185.00	-21.389	-151.933	
186.00	-21.432	-151.991	
187.00	-21.493	-152.190	
188.00	-21.538	-152.405	
189.00	-21.608	-152.777	
190.00	-21.680	-153.342	
191.00	-21.762	-154.004	
192.00	-21.845	-154.832	
193.00	-21.939	-155.823	
194.00	-22.035	-156.818	
195.00	-22.150	-158.112	
196.00	-22.262	-159.424	
197.00	-22.367	-160.983	
198.00	-22.505	-162.733	
199.00	-22.633	-164.509	
200.00	-22.782	-166.492	
201.00	-22.932	-168.616	
202.00	-23.085	-170.915	
203.00	-23.241	-173.370	
204.00	-23.396	-176.061	
205.00	-23.565	-178.652	
206.00	-23.744	178.446	
207.00	-23.921	175.495	
208.00	-24.119	172.108	
209.00	-24.328	168.956	
210.00	-24.520	165.450	
211.00	-24.722	161.836	
212.00	-24.946	158.120	
213.00	-25.194	154.382	
214.00	-25.436	150.316	
215.00	-25.690	146.081	
216.00	-25.971	141.638	
217.00	-26.242	137.069	
218.00	-26.542	132.557	
219.00	-26.835	127.418	
220.00	-27.147	122.417	
221.00	-27.439	117.120	
222.00	-27.768	111.703	
223.00	-28.087	106.390	
224.00	-28.395	100.700	
225.00	-28.698	94.529	
226.00	-29.042	88.607	
227.00	-29.329	82.806	
228.00	-29.681	76.580	
229.00	-30.007	70.272	
230.00	-30.352	63.628	
231.00	-30.706	57.075	
232.00	-31.007	50.542	
233.00	-31.440	43.613	
234.00	-31.809	37.063	
235.00	-32.162	29.939	
236.00	-32.526	22.822	
237.00	-32.945	15.684	
238.00	-33.366	8.485	
239.00	-33.812	0.493	
240.00	-34.216	-6.852	
241.00	-34.667	-14.604	
242.00	-35.114	-22.581	
243.00	-35.593	-30.536	
244.00	-36.044	-38.665	
245.00	-36.527	-47.237	
246.00	-36.925	-55.257	
247.00	-37.513	-63.990	
248.00	-37.889	-72.968	
249.00	-38.371	-81.212	
250.00	-38.820	-90.284	
251.00	-39.410	-98.635	
252.00	-39.867	-107.521	
253.00	-40.246	-116.375	
254.00	-40.752	-124.595	
255.00	-41.441	-133.308	
256.00	-41.823	-141.301	
257.00	-42.465	-151.370	
258.00	-43.006	-159.007	
259.00	-43.680	-167.839	
260.00	-44.546	-176.838	
261.00	-45.273	173.940	
262.00	-45.870	167.093	
263.00	-46.580	158.940	
264.00	-47.578	149.126	
265.00	-48.500	142.091	
266.00	-49.388	132.736	
267.00	-50.398	124.065	
268.00	-51.964	116.584	
269.00	-53.201	104.621	
270.00	-54.893	98.078	
271.00	-56.326	91.998	
272.00	-58.806	84.290	
273.00	-60.137	83.907	
274.00	-63.422	77.813	
275.00	-67.046	77.082	
276.00	-69.484	95.251	
277.00	-71.932	136.097	
278.00	-69.068	146.808	
279.00	-66.359	143.491	
280.00	-63.625	147.571	
281.00	-61.800	141.846	
282.00	-59.748	129.684	
283.00	-58.757	120.258	
284.00	-58.761	114.390	
285.00	-58.476	99.497	
286.00	-57.189	86.531	
287.00	-56.311	79.886	
288.00	-55.576	69.932	
289.00	-55.247	58.697	
290.00	-54.855	51.713	
291.00	-54.311	40.964	
292.00	-54.434	32.778	
293.00	-53.837	25.094	
294.00	-53.394	13.147	
295.00	-53.183	6.507	
296.00	-53.057	-1.185	
297.00	-52.691	-11.564	
298.00	-53.112	-19.185	
299.00	-53.122	-27.462	
300.00	-53.139	-38.142	
301.00	-53.418	-45.237	
302.00	-53.416	-53.048	
303.00	-53.805	-62.038	
304.00	-53.879	-69.013	
305.00	-53.872	-78.560	
306.00	-55.261	-87.343	
307.00	-55.185	-93.998	
308.00	-56.068	-104.357	
309.00	-57.338	-115.305	
310.00	-58.109	-122.561	
311.00	-59.282	-131.872	
312.00	-60.023	-148.289	
313.00	-61.080	-161.064	
314.00	-62.193	178.897	
315.00	-63.098	167.827	
316.00	-63.309	137.806	
317.00	-61.561	116.051	
318.00	-60.653	98.778	
319.00	-59.944	82.398	
320.00	-58.380	71.335	
321.00	-57.359	58.913	
322.00	-57.238	52.418	
323.00	-55.563	43.699	
324.00	-55.046	39.705	
325.00	-53.989	29.406	
326.00	-53.755	25.959	
327.00	-53.146	18.600	
328.00	-52.483	13.276	
329.00	-52.423	8.066	
330.00	-52.023	2.831	
331.00	-51.776	-0.591	
332.00	-51.599	-6.176	
333.00	-51.415	-9.861	
334.00	-51.832	-14.693	
335.00	-51.932	-18.357	
336.00	-52.466	-21.089	
337.00	-53.040	-25.150	
338.00	-52.772	-27.502	
339.00	-53.667	-27.972	
340.00	-54.286	-30.716	
341.00	-54.694	-32.157	
342.00	-56.504	-31.397	
343.00	-57.109	-29.593	
344.00	-57.532	-24.279	
345.00	-58.454	-25.126	
346.00	-59.829	-20.010	
347.00	-61.054	-10.884	
348.00	-62.072	-0.763	
349.00	-62.136	19.326	
350.00	-62.258	37.931	
351.00	-60.600	51.664	
352.00	-60.523	54.358	
353.00	-58.141	57.786	
354.00	-57.393	66.917	
355.00	-55.861	72.193	
356.00	-55.908	70.085	
357.00	-55.915	69.987	
358.00	-54.652	74.267	
359.00	-54.570	72.456	
Frequency	3700.00	MHz	
Channel	test		
Scan Axis name	Azimuth  [deg]		
Scan Axis	Amplitude	Phase	
			
0.00	-52.599	-110.277	
1.00	-52.795	-111.599	
2.00	-52.703	-109.607	
3.00	-53.079	-107.241	
4.00	-53.201	-104.163	
5.00	-54.123	-107.863	
6.00	-54.425	-101.909	
7.00	-54.763	-100.224	
8.00	-55.621	-97.193	
9.00	-56.252	-94.018	
10.00	-57.431	-90.389	
11.00	-58.379	-88.688	
12.00	-58.823	-73.046	
13.00	-60.804	-70.592	
14.00	-60.588	-55.270	
15.00	-65.522	-38.671	
16.00	-64.178	-9.354	
17.00	-63.129	4.607	
18.00	-61.838	24.963	
19.00	-59.780	34.362	
20.00	-58.512	43.657	
21.00	-57.557	51.676	
22.00	-56.223	59.050	
23.00	-54.661	66.471	
24.00	-53.990	69.801	
25.00	-53.601	74.195	
26.00	-53.141	81.328	
27.00	-52.322	82.722	
28.00	-52.190	89.130	
29.00	-51.971	91.312	
30.00	-51.213	97.410	
31.00	-51.089	102.971	
32.00	-50.874	108.034	
33.00	-50.933	113.073	
34.00	-50.683	117.698	
35.00	-51.012	122.721	
36.00	-50.951	127.513	
37.00	-51.505	132.938	
38.00	-51.470	139.759	
39.00	-51.556	146.574	
40.00	-51.992	153.849	
41.00	-52.334	161.126	
42.00	-52.607	170.282	
43.00	-53.178	-179.869	
44.00	-53.786	-169.341	
45.00	-54.017	-159.328	
46.00	-54.090	-148.989	
47.00	-53.939	-138.373	
48.00	-54.488	-126.259	
49.00	-53.988	-112.256	
50.00	-53.772	-101.490	
51.00	-53.614	-92.175	
52.00	-53.251	-79.643	
53.00	-52.851	-71.189	
54.00	-52.740	-59.446	
55.00	-52.462	-49.862	
56.00	-52.030	-39.657	
57.00	-51.841	-33.039	
58.00	-51.303	-24.049	
59.00	-50.960	-13.754	
60.00	-50.623	-7.075	
61.00	-50.576	1.094	
62.00	-50.704	10.191	
63.00	-50.287	18.227	
64.00	-50.322	25.500	
65.00	-50.277	33.482	
66.00	-50.235	40.006	
67.00	-50.117	50.106	
68.00	-49.978	56.854	
69.00	-49.830	65.866	
70.00	-49.889	74.747	
71.00	-49.605	83.655	
72.00	-49.641	90.066	
73.00	-49.559	98.369	
74.00	-49.349	108.498	
75.00	-49.324	117.033	
76.00	-48.928	125.043	
77.00	-48.973	132.279	
78.00	-48.630	140.129	
79.00	-48.441	147.908	
80.00	-48.257	156.797	
81.00	-47.864	164.306	
82.00	-47.688	171.555	
83.00	-47.382	178.939	
84.00	-46.955	-173.025	
85.00	-46.615	-164.466	
86.00	-46.222	-157.903	
87.00	-45.773	-151.617	
88.00	-45.398	-143.452	
89.00	-45.076	-136.612	
90.00	-44.652	-128.197	
91.00	-44.207	-121.566	
92.00	-43.882	-114.104	
93.00	-43.453	-106.084	
94.00	-43.001	-99.339	
95.00	-42.524	-91.476	
96.00	-42.143	-83.285	
97.00	-41.643	-76.748	
98.00	-41.287	-68.034	
99.00	-40.926	-60.288	
100.00	-40.498	-53.133	
101.00	-40.066	-45.237	
102.00	-39.685	-37.504	
103.00	-39.363	-28.697	
104.00	-38.881	-21.184	
105.00	-38.523	-13.092	
106.00	-38.067	-5.348	
107.00	-37.679	3.411	
108.00	-37.305	11.869	
109.00	-36.951	19.915	
110.00	-36.543	28.190	
111.00	-36.191	36.269	
112.00	-35.785	44.790	
113.00	-35.360	53.242	
114.00	-34.940	61.222	
115.00	-34.590	69.282	
116.00	-34.159	77.458	
117.00	-33.805	85.507	
118.00	-33.422	93.235	
119.00	-32.981	101.512	
120.00	-32.629	109.631	
121.00	-32.246	117.396	
122.00	-31.886	125.146	
123.00	-31.500	133.032	
124.00	-31.148	140.560	
125.00	-30.803	148.140	
126.00	-30.439	155.781	
127.00	-30.040	163.240	
128.00	-29.718	170.495	
129.00	-29.371	177.917	
130.00	-29.028	-175.047	
131.00	-28.703	-167.831	
132.00	-28.376	-160.984	
133.00	-28.099	-154.083	
134.00	-27.753	-147.305	
135.00	-27.457	-140.671	
136.00	-27.185	-134.035	
137.00	-26.885	-127.682	
138.00	-26.611	-121.345	
139.00	-26.332	-115.067	
140.00	-26.049	-108.895	
141.00	-25.780	-102.911	
142.00	-25.528	-97.047	
143.00	-25.253	-91.160	
144.00	-25.027	-85.668	
145.00	-24.767	-80.074	
146.00	-24.540	-74.580	
147.00	-24.335	-69.374	
148.00	-24.119	-64.236	
149.00	-23.886	-59.141	
150.00	-23.687	-54.250	
151.00	-23.484	-49.459	
152.00	-23.305	-44.861	
153.00	-23.110	-40.277	
154.00	-22.933	-35.776	
155.00	-22.762	-31.568	
156.00	-22.589	-27.330	
157.00	-22.424	-23.280	
158.00	-22.292	-19.524	
159.00	-22.140	-15.708	
160.00	-22.002	-12.047	
161.00	-21.894	-8.734	
162.00	-21.763	-5.215	
163.00	-21.651	-2.099	
164.00	-21.550	0.943	
165.00	-21.453	3.917	
166.00	-21.371	6.718	
167.00	-21.278	9.335	
168.00	-21.201	11.824	
169.00	-21.134	14.303	
170.00	-21.060	16.596	
171.00	-21.006	18.645	
172.00	-20.938	20.692	
173.00	-20.910	22.485	
174.00	-20.874	24.074	
175.00	-20.840	25.660	
176.00	-20.812	27.047	
177.00	-20.805	28.331	
178.00	-20.772	29.511	
179.00	-20.798	30.351	
180.00	-20.787	31.295	
181.00	-20.793	32.147	
182.00	-20.791	32.717	
183.00	-20.821	33.168	
184.00	-20.852	33.426	
185.00	-20.887	33.628	
186.00	-20.923	33.663	
187.00	-20.962	33.580	
188.00	-21.020	33.227	
189.00	-21.076	32.874	
190.00	-21.164	32.244	
191.00	-21.226	31.549	
192.00	-21.322	30.771	
193.00	-21.411	29.736	
194.00	-21.503	28.588	
195.00	-21.616	27.220	
196.00	-21.722	25.849	
197.00	-21.844	24.274	
198.00	-21.957	22.580	
199.00	-22.071	20.609	
200.00	-22.217	18.520	
201.00	-22.377	16.345	
202.00	-22.515	14.019	
203.00	-22.674	11.541	
204.00	-22.842	8.830	
205.00	-23.019	6.023	
206.00	-23.204	3.112	
207.00	-23.384	0.048	
208.00	-23.592	-3.181	
209.00	-23.789	-6.597	
210.00	-24.010	-10.135	
211.00	-24.248	-13.976	
212.00	-24.474	-17.770	
213.00	-24.717	-21.785	
214.00	-24.973	-25.952	
215.00	-25.218	-30.408	
216.00	-25.485	-35.054	
217.00	-25.740	-39.725	
218.00	-25.996	-44.530	
219.00	-26.287	-49.582	
220.00	-26.547	-54.675	
221.00	-26.831	-59.668	
222.00	-27.131	-65.179	
223.00	-27.390	-70.583	
224.00	-27.723	-76.090	
225.00	-28.049	-81.750	
226.00	-28.380	-87.533	
227.00	-28.720	-93.551	
228.00	-29.098	-99.959	
229.00	-29.478	-105.996	
230.00	-29.874	-112.635	
231.00	-30.230	-119.186	
232.00	-30.645	-125.949	
233.00	-31.038	-132.970	
234.00	-31.492	-139.966	
235.00	-31.872	-147.461	
236.00	-32.299	-155.099	
237.00	-32.726	-162.627	
238.00	-33.140	-170.669	
239.00	-33.574	-178.255	
240.00	-33.975	173.415	
241.00	-34.345	165.351	
242.00	-34.776	157.452	
243.00	-35.187	149.035	
244.00	-35.543	140.590	
245.00	-35.946	132.240	
246.00	-36.414	123.788	
247.00	-36.829	115.493	
248.00	-37.352	107.200	
249.00	-37.765	98.411	
250.00	-38.172	90.846	
251.00	-38.680	82.047	
252.00	-39.233	73.677	
253.00	-39.863	65.212	
254.00	-40.455	56.413	
255.00	-41.047	47.980	
256.00	-41.572	39.109	
257.00	-42.393	30.289	
258.00	-43.012	21.446	
259.00	-43.644	12.216	
260.00	-44.414	3.645	
261.00	-45.203	-5.721	
262.00	-46.156	-15.095	
263.00	-47.072	-24.278	
264.00	-47.890	-33.099	
265.00	-48.837	-43.188	
266.00	-50.432	-52.586	
267.00	-51.747	-62.342	
268.00	-52.504	-75.651	
269.00	-54.052	-85.052	
270.00	-55.616	-98.750	
271.00	-57.423	-109.397	
272.00	-59.366	-119.655	
273.00	-61.706	-137.258	
274.00	-63.537	-160.400	
275.00	-66.894	170.324	
276.00	-68.861	144.871	
277.00	-69.032	111.555	
278.00	-67.584	72.792	
279.00	-66.187	56.117	
280.00	-64.759	26.404	
281.00	-62.771	11.569	
282.00	-61.578	-7.901	
283.00	-60.053	-25.786	
284.00	-59.822	-38.270	
285.00	-58.324	-53.709	
286.00	-57.627	-67.733	
287.00	-56.893	-76.326	
288.00	-56.714	-91.310	
289.00	-55.357	-102.137	
290.00	-55.209	-114.462	
291.00	-54.009	-125.669	
292.00	-53.717	-137.144	
293.00	-52.972	-145.752	
294.00	-52.873	-156.375	
295.00	-52.478	-164.687	
296.00	-52.058	-176.253	
297.00	-52.011	174.144	
298.00	-51.571	166.484	
299.00	-51.342	158.178	
300.00	-51.157	150.015	
301.00	-51.555	142.024	
302.00	-51.596	131.785	
303.00	-51.687	121.936	
304.00	-52.124	113.466	
305.00	-52.495	102.421	
306.00	-53.035	93.995	
307.00	-53.070	83.865	
308.00	-53.630	78.209	
309.00	-54.056	68.695	
310.00	-55.163	55.037	
311.00	-55.342	43.528	
312.00	-57.408	34.240	
313.00	-57.694	15.548	
314.00	-59.262	4.789	
315.00	-60.716	-20.907	
316.00	-60.893	-35.349	
317.00	-60.596	-62.066	
318.00	-59.629	-78.523	
319.00	-58.659	-93.168	
320.00	-58.332	-105.875	
321.00	-56.612	-120.001	
322.00	-55.607	-134.268	
323.00	-55.220	-138.530	
324.00	-54.531	-146.901	
325.00	-53.806	-155.254	
326.00	-53.500	-162.168	
327.00	-52.848	-167.928	
328.00	-52.609	-174.321	
329.00	-51.690	178.895	
330.00	-51.680	175.816	
331.00	-51.635	170.611	
332.00	-51.830	164.919	
333.00	-51.693	161.775	
334.00	-51.595	158.959	
335.00	-51.682	155.881	
336.00	-51.812	152.520	
337.00	-52.105	148.267	
338.00	-52.747	145.630	
339.00	-52.880	143.389	
340.00	-53.534	140.417	
341.00	-54.273	140.322	
342.00	-54.998	143.069	
343.00	-56.491	138.952	
344.00	-57.309	140.659	
345.00	-58.646	143.915	
346.00	-60.400	149.518	
347.00	-61.226	161.929	
348.00	-62.339	178.178	
349.00	-62.512	-168.653	
350.00	-61.561	-154.180	
351.00	-61.287	-141.846	
352.00	-59.340	-130.753	
353.00	-58.459	-120.947	
354.00	-57.019	-123.535	
355.00	-56.313	-113.290	
356.00	-55.540	-113.545	
357.00	-54.637	-111.982	
358.00	-54.564	-113.601	
359.00	-54.197	-109.879	
Frequency	3750.00	MHz	
Channel	test		
Scan Axis name	Azimuth  [deg]		
Scan Axis	Amplitude	Phase	
			
0.00	-52.390	58.356	
1.00	-52.298	60.174	
2.00	-52.408	60.596	
3.00	-53.035	63.112	
4.00	-53.043	61.139	
5.00	-53.132	63.555	
6.00	-54.157	60.918	
7.00	-54.937	70.908	
8.00	-55.752	76.062	
9.00	-55.818	77.195	
10.00	-57.546	87.154	
11.00	-58.819	90.179	
12.00	-59.808	102.536	
13.00	-61.724	112.158	
14.00	-62.070	139.447	
15.00	-62.422	154.718	
16.00	-63.455	176.681	
17.00	-60.805	-172.353	
18.00	-59.941	-154.439	
19.00	-57.958	-145.297	
20.00	-56.262	-136.228	
21.00	-54.837	-132.576	
22.00	-54.024	-126.650	
23.00	-53.558	-119.006	
24.00	-52.957	-113.918	
25.00	-52.114	-114.692	
26.00	-51.423	-103.906	
27.00	-51.251	-101.481	
28.00	-50.847	-98.138	
29.00	-50.554	-90.737	
30.00	-50.456	-87.552	
31.00	-50.451	-82.289	
32.00	-50.561	-77.015	
33.00	-50.225	-72.725	
34.00	-50.165	-65.910	
35.00	-50.286	-59.862	
36.00	-50.832	-53.125	
37.00	-50.995	-45.952	
38.00	-51.125	-41.138	
39.00	-51.594	-31.453	
40.00	-51.912	-24.024	
41.00	-52.173	-16.443	
42.00	-52.486	-6.971	
43.00	-52.779	1.309	
44.00	-52.860	12.969	
45.00	-53.414	25.403	
46.00	-53.273	35.921	
47.00	-53.879	49.065	
48.00	-53.302	60.018	
49.00	-53.325	73.189	
50.00	-53.214	84.595	
51.00	-52.848	96.300	
52.00	-52.558	104.101	
53.00	-52.201	116.469	
54.00	-52.071	126.158	
55.00	-51.997	134.839	
56.00	-51.401	145.642	
57.00	-51.147	154.361	
58.00	-50.861	161.755	
59.00	-50.672	170.160	
60.00	-50.412	179.087	
61.00	-50.299	-169.974	
62.00	-50.418	-163.003	
63.00	-50.081	-154.061	
64.00	-50.122	-145.632	
65.00	-50.148	-136.215	
66.00	-50.005	-128.132	
67.00	-49.898	-117.760	
68.00	-49.963	-109.966	
69.00	-49.708	-101.250	
70.00	-49.916	-92.713	
71.00	-49.737	-84.261	
72.00	-49.446	-74.673	
73.00	-49.448	-65.956	
74.00	-49.378	-57.154	
75.00	-49.438	-47.957	
76.00	-49.187	-39.500	
77.00	-49.019	-32.981	
78.00	-48.852	-24.577	
79.00	-48.719	-17.429	
80.00	-48.439	-9.017	
81.00	-48.348	-1.733	
82.00	-48.225	5.449	
83.00	-47.803	13.747	
84.00	-47.359	20.285	
85.00	-47.296	27.038	
86.00	-46.887	35.819	
87.00	-46.675	42.055	
88.00	-46.474	48.827	
89.00	-46.218	55.208	
90.00	-45.696	62.609	
91.00	-45.419	67.896	
92.00	-44.996	75.881	
93.00	-44.640	81.528	
94.00	-44.337	88.843	
95.00	-43.888	95.403	
96.00	-43.370	102.721	
97.00	-43.075	108.901	
98.00	-42.692	117.395	
99.00	-42.385	124.247	
100.00	-41.865	131.803	
101.00	-41.382	138.847	
102.00	-41.040	146.754	
103.00	-40.641	154.244	
104.00	-40.202	162.425	
105.00	-39.794	170.255	
106.00	-39.318	178.118	
107.00	-38.925	-173.281	
108.00	-38.500	-165.611	
109.00	-38.044	-157.276	
110.00	-37.641	-149.059	
111.00	-37.225	-141.114	
112.00	-36.827	-132.298	
113.00	-36.339	-124.609	
114.00	-35.942	-116.050	
115.00	-35.543	-108.517	
116.00	-35.132	-99.844	
117.00	-34.712	-92.272	
118.00	-34.287	-83.860	
119.00	-33.847	-76.062	
120.00	-33.426	-67.884	
121.00	-33.055	-60.051	
122.00	-32.620	-52.547	
123.00	-32.235	-44.343	
124.00	-31.871	-36.772	
125.00	-31.484	-29.045	
126.00	-31.103	-21.540	
127.00	-30.713	-14.063	
128.00	-30.328	-6.936	
129.00	-29.957	0.564	
130.00	-29.628	7.578	
131.00	-29.251	14.782	
132.00	-28.922	21.701	
133.00	-28.598	28.556	
134.00	-28.267	35.420	
135.00	-27.946	42.061	
136.00	-27.626	48.693	
137.00	-27.324	55.122	
138.00	-27.015	61.609	
139.00	-26.725	67.943	
140.00	-26.433	74.114	
141.00	-26.155	80.113	
142.00	-25.881	86.014	
143.00	-25.619	91.874	
144.00	-25.358	97.523	
145.00	-25.110	103.072	
146.00	-24.864	108.511	
147.00	-24.608	113.883	
148.00	-24.370	119.052	
149.00	-24.178	124.124	
150.00	-23.938	129.190	
151.00	-23.753	133.924	
152.00	-23.542	138.641	
153.00	-23.348	143.243	
154.00	-23.159	147.638	
155.00	-22.973	151.892	
156.00	-22.804	156.161	
157.00	-22.653	160.252	
158.00	-22.486	164.153	
159.00	-22.350	167.940	
160.00	-22.203	171.531	
161.00	-22.070	174.992	
162.00	-21.947	178.455	
163.00	-21.814	-178.354	
164.00	-21.716	-175.316	
165.00	-21.607	-172.383	
166.00	-21.503	-169.543	
167.00	-21.415	-166.829	
168.00	-21.330	-164.245	
169.00	-21.255	-161.851	
170.00	-21.183	-159.576	
171.00	-21.129	-157.541	
172.00	-21.064	-155.450	
173.00	-21.023	-153.740	
174.00	-20.981	-152.023	
175.00	-20.942	-150.431	
176.00	-20.912	-148.946	
177.00	-20.893	-147.716	
178.00	-20.878	-146.574	
179.00	-20.895	-145.655	
180.00	-20.882	-144.764	
181.00	-20.872	-143.961	
182.00	-20.889	-143.447	
183.00	-20.912	-143.008	
184.00	-20.933	-142.688	
185.00	-20.974	-142.520	
186.00	-21.004	-142.428	
187.00	-21.052	-142.630	
188.00	-21.120	-142.972	
189.00	-21.173	-143.406	
190.00	-21.244	-143.887	
191.00	-21.313	-144.726	
192.00	-21.384	-145.552	
193.00	-21.482	-146.594	
194.00	-21.568	-147.748	
195.00	-21.683	-149.098	
196.00	-21.775	-150.582	
197.00	-21.881	-152.060	
198.00	-22.007	-153.919	
199.00	-22.133	-155.862	
200.00	-22.268	-157.973	
201.00	-22.422	-160.093	
202.00	-22.577	-162.485	
203.00	-22.738	-165.020	
204.00	-22.907	-167.759	
205.00	-23.082	-170.649	
206.00	-23.253	-173.578	
207.00	-23.439	-176.748	
208.00	-23.636	179.827	
209.00	-23.823	176.420	
210.00	-24.035	172.721	
211.00	-24.253	168.915	
212.00	-24.472	165.051	
213.00	-24.705	160.874	
214.00	-24.938	156.662	
215.00	-25.187	152.327	
216.00	-25.448	147.733	
217.00	-25.678	143.146	
218.00	-25.965	138.413	
219.00	-26.245	133.498	
220.00	-26.542	128.467	
221.00	-26.820	123.302	
222.00	-27.160	117.888	
223.00	-27.489	112.355	
224.00	-27.826	106.777	
225.00	-28.150	100.717	
226.00	-28.498	94.779	
227.00	-28.920	88.538	
228.00	-29.266	82.099	
229.00	-29.638	75.407	
230.00	-30.014	68.490	
231.00	-30.370	61.756	
232.00	-30.783	54.656	
233.00	-31.160	47.454	
234.00	-31.532	40.286	
235.00	-31.930	33.013	
236.00	-32.334	25.397	
237.00	-32.689	17.786	
238.00	-33.204	9.924	
239.00	-33.550	2.401	
240.00	-33.982	-5.861	
241.00	-34.447	-13.633	
242.00	-34.879	-22.195	
243.00	-35.361	-30.029	
244.00	-35.853	-38.341	
245.00	-36.290	-46.738	
246.00	-36.857	-55.469	
247.00	-37.337	-64.350	
248.00	-37.862	-73.136	
249.00	-38.373	-82.347	
250.00	-38.858	-91.512	
251.00	-39.389	-100.209	
252.00	-39.954	-110.453	
253.00	-40.601	-119.500	
254.00	-41.097	-128.963	
255.00	-41.649	-138.679	
256.00	-42.113	-148.187	
257.00	-42.705	-157.128	
258.00	-43.389	-165.782	
259.00	-43.993	-175.400	
260.00	-44.445	174.520	
261.00	-45.282	165.178	
262.00	-46.018	154.689	
263.00	-46.580	146.422	
264.00	-47.540	137.311	
265.00	-48.255	128.133	
266.00	-49.214	119.018	
267.00	-50.241	110.877	
268.00	-51.349	101.965	
269.00	-52.079	91.037	
270.00	-53.893	84.487	
271.00	-55.223	76.642	
272.00	-57.915	70.818	
273.00	-58.949	59.494	
274.00	-61.398	50.855	
275.00	-64.768	47.869	
276.00	-67.105	20.744	
277.00	-72.561	66.829	
278.00	-78.610	104.636	
279.00	-70.894	147.016	
280.00	-67.749	134.322	
281.00	-64.393	131.171	
282.00	-62.542	124.009	
283.00	-62.049	112.662	
284.00	-60.875	106.833	
285.00	-59.881	95.310	
286.00	-59.323	82.922	
287.00	-57.669	74.601	
288.00	-57.065	65.056	
289.00	-56.540	58.741	
290.00	-56.297	42.712	
291.00	-55.922	37.587	
292.00	-55.198	23.942	
293.00	-54.698	12.777	
294.00	-54.456	5.434	
295.00	-54.261	-4.654	
296.00	-53.227	-12.349	
297.00	-53.488	-20.854	
298.00	-53.232	-28.672	
299.00	-53.237	-38.610	
300.00	-52.856	-46.689	
301.00	-52.529	-57.452	
302.00	-52.688	-61.211	
303.00	-52.965	-70.321	
304.00	-52.900	-81.649	
305.00	-53.321	-88.933	
306.00	-53.816	-93.561	
307.00	-54.078	-105.715	
308.00	-54.501	-114.481	
309.00	-55.088	-122.804	
310.00	-55.531	-135.576	
311.00	-55.934	-148.748	
312.00	-56.915	-160.373	
313.00	-57.767	-178.951	
314.00	-58.445	169.512	
315.00	-58.804	145.626	
316.00	-59.408	130.927	
317.00	-58.437	110.747	
318.00	-58.176	93.631	
319.00	-56.954	80.315	
320.00	-55.548	67.319	
321.00	-55.331	55.350	
322.00	-54.107	44.435	
323.00	-52.911	35.214	
324.00	-52.691	28.343	
325.00	-52.164	21.144	
326.00	-51.423	12.034	
327.00	-51.446	6.645	
328.00	-50.892	0.620	
329.00	-50.590	-4.988	
330.00	-50.704	-12.273	
331.00	-50.522	-17.679	
332.00	-50.689	-22.860	
333.00	-50.477	-28.026	
334.00	-50.718	-30.732	
335.00	-50.670	-34.700	
336.00	-51.609	-37.844	
337.00	-51.968	-41.154	
338.00	-52.405	-43.868	
339.00	-52.969	-46.929	
340.00	-53.548	-46.210	
341.00	-54.258	-45.489	
342.00	-54.954	-46.914	
343.00	-56.494	-40.952	
344.00	-57.572	-44.074	
345.00	-58.867	-37.563	
346.00	-59.869	-28.673	
347.00	-62.314	-17.999	
348.00	-61.646	0.916	
349.00	-61.943	12.810	
350.00	-59.933	22.387	
351.00	-59.624	36.114	
352.00	-58.300	42.203	
353.00	-57.472	44.415	
354.00	-56.052	50.787	
355.00	-55.310	52.956	
356.00	-54.707	54.763	
357.00	-54.025	58.459	
358.00	-53.715	58.054	
359.00	-53.275	58.829	
Frequency	3800.00	MHz	
Channel	test		
Scan Axis name	Azimuth  [deg]		
Scan Axis	Amplitude	Phase	
			
0.00	-52.377	-136.546	
1.00	-52.474	-138.814	
2.00	-51.968	-133.494	
3.00	-52.396	-135.322	
4.00	-52.956	-136.505	
5.00	-52.980	-132.446	
6.00	-53.925	-129.079	
7.00	-53.955	-127.219	
8.00	-55.291	-126.900	
9.00	-56.524	-118.704	
10.00	-58.273	-114.003	
11.00	-59.564	-105.257	
12.00	-62.317	-98.648	
13.00	-63.372	-70.233	
14.00	-64.463	-47.936	
15.00	-63.272	-19.054	
16.00	-60.402	2.075	
17.00	-58.827	17.521	
18.00	-56.204	19.938	
19.00	-55.625	30.546	
20.00	-54.284	34.116	
21.00	-53.230	41.764	
22.00	-52.640	45.437	
23.00	-51.601	47.910	
24.00	-50.818	52.317	
25.00	-50.435	56.131	
26.00	-49.882	60.467	
27.00	-49.830	63.540	
28.00	-49.541	68.534	
29.00	-49.127	72.348	
30.00	-49.250	77.568	
31.00	-49.265	82.268	
32.00	-49.181	85.715	
33.00	-49.392	91.362	
34.00	-49.287	96.817	
35.00	-49.863	102.493	
36.00	-50.048	108.516	
37.00	-50.819	116.360	
38.00	-50.969	123.884	
39.00	-51.672	130.249	
40.00	-52.457	138.924	
41.00	-53.175	149.012	
42.00	-53.490	155.829	
43.00	-54.118	173.075	
44.00	-54.712	-176.561	
45.00	-54.901	-159.309	
46.00	-55.348	-147.267	
47.00	-55.364	-132.416	
48.00	-54.471	-116.218	
49.00	-54.084	-101.469	
50.00	-53.555	-85.918	
51.00	-52.794	-76.559	
52.00	-52.276	-65.988	
53.00	-51.983	-56.498	
54.00	-51.196	-46.190	
55.00	-50.707	-36.794	
56.00	-50.326	-26.444	
57.00	-49.717	-18.615	
58.00	-49.714	-11.045	
59.00	-49.053	-2.856	
60.00	-48.972	6.133	
61.00	-48.752	15.418	
62.00	-48.497	23.380	
63.00	-48.497	31.909	
64.00	-48.452	39.948	
65.00	-48.133	49.123	
66.00	-47.868	57.995	
67.00	-47.916	66.369	
68.00	-47.752	74.467	
69.00	-47.750	84.212	
70.00	-47.565	93.739	
71.00	-47.628	102.847	
72.00	-47.560	111.409	
73.00	-47.317	119.390	
74.00	-47.215	126.904	
75.00	-47.250	137.066	
76.00	-47.008	143.718	
77.00	-47.057	151.560	
78.00	-47.070	159.738	
79.00	-46.818	167.454	
80.00	-46.606	176.406	
81.00	-46.554	-176.660	
82.00	-46.327	-168.751	
83.00	-46.178	-161.642	
84.00	-45.961	-155.175	
85.00	-46.061	-148.003	
86.00	-45.727	-141.433	
87.00	-45.564	-134.864	
88.00	-45.535	-127.691	
89.00	-45.217	-122.456	
90.00	-44.977	-115.746	
91.00	-45.024	-108.941	
92.00	-44.659	-102.568	
93.00	-44.434	-97.048	
94.00	-44.213	-90.255	
95.00	-44.012	-83.334	
96.00	-43.712	-76.553	
97.00	-43.368	-69.915	
98.00	-43.197	-63.318	
99.00	-42.847	-56.346	
100.00	-42.505	-49.320	
101.00	-42.182	-41.929	
102.00	-41.855	-33.939	
103.00	-41.446	-26.767	
104.00	-41.059	-19.076	
105.00	-40.723	-11.199	
106.00	-40.344	-3.183	
107.00	-39.892	5.017	
108.00	-39.547	13.148	
109.00	-39.061	21.274	
110.00	-38.672	29.596	
111.00	-38.268	37.216	
112.00	-37.806	45.182	
113.00	-37.484	53.915	
114.00	-36.958	62.063	
115.00	-36.547	70.448	
116.00	-36.127	78.462	
117.00	-35.662	86.510	
118.00	-35.198	94.838	
119.00	-34.829	102.651	
120.00	-34.392	110.916	
121.00	-33.984	118.643	
122.00	-33.571	126.411	
123.00	-33.197	134.488	
124.00	-32.744	142.220	
125.00	-32.340	149.768	
126.00	-31.943	157.430	
127.00	-31.572	164.892	
128.00	-31.184	172.373	
129.00	-30.821	179.556	
130.00	-30.419	-173.137	
131.00	-30.083	-166.121	
132.00	-29.728	-159.041	
133.00	-29.346	-152.092	
134.00	-29.005	-145.357	
135.00	-28.654	-138.594	
136.00	-28.329	-132.142	
137.00	-28.023	-125.452	
138.00	-27.721	-119.077	
139.00	-27.398	-112.933	
140.00	-27.090	-106.684	
141.00	-26.813	-100.800	
142.00	-26.530	-94.729	
143.00	-26.250	-89.089	
144.00	-25.992	-83.411	
145.00	-25.737	-77.825	
146.00	-25.483	-72.510	
147.00	-25.239	-66.989	
148.00	-25.001	-61.827	
149.00	-24.771	-56.795	
150.00	-24.534	-51.855	
151.00	-24.333	-47.150	
152.00	-24.108	-42.358	
153.00	-23.917	-37.856	
154.00	-23.719	-33.469	
155.00	-23.516	-29.199	
156.00	-23.348	-25.021	
157.00	-23.164	-20.915	
158.00	-22.994	-16.960	
159.00	-22.829	-13.160	
160.00	-22.690	-9.589	
161.00	-22.537	-6.132	
162.00	-22.387	-2.728	
163.00	-22.260	0.527	
164.00	-22.142	3.594	
165.00	-22.022	6.624	
166.00	-21.902	9.440	
167.00	-21.798	12.154	
168.00	-21.718	14.749	
169.00	-21.614	17.178	
170.00	-21.542	19.453	
171.00	-21.476	21.436	
172.00	-21.414	23.520	
173.00	-21.351	25.452	
174.00	-21.303	27.081	
175.00	-21.257	28.703	
176.00	-21.219	30.232	
177.00	-21.185	31.461	
178.00	-21.167	32.714	
179.00	-21.188	33.549	
180.00	-21.173	34.397	
181.00	-21.153	35.259	
182.00	-21.169	35.776	
183.00	-21.188	36.196	
184.00	-21.204	36.490	
185.00	-21.235	36.769	
186.00	-21.252	36.735	
187.00	-21.294	36.553	
188.00	-21.342	36.270	
189.00	-21.393	35.849	
190.00	-21.455	35.326	
191.00	-21.527	34.518	
192.00	-21.608	33.791	
193.00	-21.694	32.779	
194.00	-21.796	31.634	
195.00	-21.894	30.302	
196.00	-21.985	28.821	
197.00	-22.102	27.384	
198.00	-22.241	25.534	
199.00	-22.371	23.544	
200.00	-22.505	21.558	
201.00	-22.659	19.334	
202.00	-22.802	16.874	
203.00	-22.975	14.297	
204.00	-23.135	11.606	
205.00	-23.335	8.717	
206.00	-23.509	5.768	
207.00	-23.689	2.601	
208.00	-23.895	-0.722	
209.00	-24.099	-4.183	
210.00	-24.334	-7.821	
211.00	-24.540	-11.512	
212.00	-24.775	-15.309	
213.00	-25.022	-19.458	
214.00	-25.288	-23.664	
215.00	-25.545	-28.094	
216.00	-25.846	-32.720	
217.00	-26.123	-37.496	
218.00	-26.419	-42.606	
219.00	-26.704	-47.738	
220.00	-27.001	-52.934	
221.00	-27.307	-58.548	
222.00	-27.634	-64.165	
223.00	-27.949	-70.143	
224.00	-28.233	-75.951	
225.00	-28.576	-82.105	
226.00	-28.877	-88.436	
227.00	-29.178	-94.970	
228.00	-29.523	-101.440	
229.00	-29.869	-107.860	
230.00	-30.227	-114.793	
231.00	-30.531	-121.454	
232.00	-30.930	-128.128	
233.00	-31.353	-135.347	
234.00	-31.670	-142.482	
235.00	-32.110	-149.648	
236.00	-32.541	-157.324	
237.00	-32.940	-164.908	
238.00	-33.417	-172.506	
239.00	-33.872	179.239	
240.00	-34.331	171.027	
241.00	-34.726	162.600	
242.00	-35.189	154.346	
243.00	-35.607	145.511	
244.00	-36.052	136.821	
245.00	-36.500	127.924	
246.00	-36.941	119.295	
247.00	-37.298	109.544	
248.00	-37.763	100.607	
249.00	-38.172	91.125	
250.00	-38.532	82.284	
251.00	-38.971	73.118	
252.00	-39.347	64.410	
253.00	-39.747	55.463	
254.00	-40.146	46.299	
255.00	-40.534	37.464	
256.00	-40.959	29.304	
257.00	-41.633	19.599	
258.00	-42.130	12.382	
259.00	-42.589	2.998	
260.00	-43.139	-4.259	
261.00	-43.813	-13.285	
262.00	-44.580	-21.709	
263.00	-44.966	-29.643	
264.00	-45.840	-37.453	
265.00	-46.847	-45.057	
266.00	-47.565	-52.252	
267.00	-48.765	-59.275	
268.00	-50.049	-66.953	
269.00	-51.166	-72.765	
270.00	-52.552	-81.599	
271.00	-53.729	-85.596	
272.00	-55.444	-88.666	
273.00	-56.736	-96.694	
274.00	-57.818	-97.097	
275.00	-58.996	-95.423	
276.00	-60.687	-96.471	
277.00	-61.157	-85.289	
278.00	-61.672	-75.838	
279.00	-61.155	-74.901	
280.00	-59.885	-79.301	
281.00	-58.106	-80.972	
282.00	-58.689	-85.143	
283.00	-57.723	-93.191	
284.00	-57.043	-98.890	
285.00	-56.330	-114.379	
286.00	-56.098	-120.846	
287.00	-55.345	-128.737	
288.00	-55.016	-141.073	
289.00	-54.366	-150.724	
290.00	-54.044	-161.043	
291.00	-53.378	-169.404	
292.00	-53.046	176.768	
293.00	-52.701	168.492	
294.00	-52.239	156.737	
295.00	-52.170	148.863	
296.00	-51.925	138.643	
297.00	-51.493	129.148	
298.00	-51.691	118.496	
299.00	-51.414	108.119	
300.00	-51.552	103.077	
301.00	-51.636	92.729	
302.00	-51.746	82.857	
303.00	-52.090	75.175	
304.00	-52.917	67.260	
305.00	-53.111	56.440	
306.00	-53.399	46.520	
307.00	-53.914	39.036	
308.00	-55.319	26.707	
309.00	-55.963	14.414	
310.00	-56.582	-2.060	
311.00	-57.623	-18.161	
312.00	-58.176	-32.214	
313.00	-58.759	-49.524	
314.00	-58.376	-66.265	
315.00	-57.658	-87.221	
316.00	-57.463	-101.168	
317.00	-56.244	-115.767	
318.00	-56.068	-125.609	
319.00	-54.897	-140.390	
320.00	-54.298	-148.858	
321.00	-53.315	-158.792	
322.00	-52.505	-167.878	
323.00	-51.480	-171.365	
324.00	-51.289	-177.923	
325.00	-51.089	174.849	
326.00	-50.283	169.290	
327.00	-50.137	163.276	
328.00	-50.055	156.910	
329.00	-49.795	154.427	
330.00	-49.529	147.136	
331.00	-49.834	142.940	
332.00	-49.661	137.932	
333.00	-49.820	132.369	
334.00	-50.275	129.998	
335.00	-50.693	124.751	
336.00	-50.876	122.639	
337.00	-51.751	120.707	
338.00	-52.056	117.250	
339.00	-53.069	115.293	
340.00	-53.495	115.519	
341.00	-55.086	115.354	
342.00	-55.789	117.110	
343.00	-57.713	120.839	
344.00	-59.021	130.612	
345.00	-60.385	138.196	
346.00	-61.280	153.128	
347.00	-61.404	167.945	
348.00	-61.088	-175.121	
349.00	-59.672	-164.416	
350.00	-58.651	-154.196	
351.00	-56.859	-147.334	
352.00	-55.882	-144.460	
353.00	-54.803	-142.497	
354.00	-53.907	-141.383	
355.00	-53.224	-141.063	
356.00	-52.967	-138.979	
357.00	-52.333	-136.746	
358.00	-51.817	-137.648	
359.00	-51.716	-137.824	
