Test Title:	Alpha Wireless Indoor Range						
Date:	14/12/2017						
Time:	15:36						
Operator Name:	FL						
Comment:	Axis 1 180.2
Axis 2 349.9						
Caib. File Name:	C:\Program Files\Midas 2.01d\Calibration Files\test sigma 180900.cal						
							
[Scan Axis] Name: 	Azimuth  [deg]Start: 	0.000000	Stop	359.000000	Increment	1.000000[Step Axis] Name: 	Start: 	0.000000	Stop	0.000000	Increment	0.000000[Tert] Name: 	None [Forth] Name: 	None  [ Freq.]  (List) 	MHz.	2496.000000	2500.000000	2525.000000	2550.000000	2575.000000	2600.000000	2625.000000	2650.000000	2675.000000	2690.000000
 [Switch]  	None [Channel]  	test			 [ Beam] 	None			
Database:			
First Question			
2nd			
3rd			
4th			
			
Frequency	2496.00	MHz	
Channel	test		
Scan Axis name	Azimuth  [deg]		
Scan Axis	Amplitude	Phase	
			
0.00	-33.096	-176.983	
1.00	-32.415	-168.551	
2.00	-31.988	179.335	
3.00	-31.850	-174.557	
4.00	-31.818	176.952	
5.00	-32.174	-173.952	
6.00	-32.915	170.148	
7.00	-33.757	176.851	
8.00	-34.856	159.353	
9.00	-36.383	154.444	
10.00	-38.496	149.805	
11.00	-40.940	135.805	
12.00	-43.533	112.262	
13.00	-44.342	73.283	
14.00	-42.368	46.799	
15.00	-40.180	28.860	
16.00	-38.364	12.217	
17.00	-37.013	14.884	
18.00	-36.137	-4.923	
19.00	-35.723	0.000	
20.00	-35.601	-8.337	
21.00	-35.879	-11.511	
22.00	-36.487	-18.775	
23.00	-37.405	-15.353	
24.00	-38.850	-22.164	
25.00	-40.832	-39.861	
26.00	-43.304	-55.277	
27.00	-44.801	-89.117	
28.00	-43.876	-121.600	
29.00	-41.627	-142.961	
30.00	-39.246	-160.413	
31.00	-37.526	-160.521	
32.00	-36.148	-174.831	
33.00	-35.179	-173.468	
34.00	-34.714	178.204	
35.00	-34.508	-179.489	
36.00	-34.737	-178.605	
37.00	-35.137	176.383	
38.00	-36.102	-178.887	
39.00	-37.285	172.644	
40.00	-39.176	-178.121	
41.00	-41.750	-169.627	
42.00	-44.939	-150.751	
43.00	-46.061	-112.550	
44.00	-43.414	-84.385	
45.00	-40.278	-68.229	
46.00	-37.892	-63.730	
47.00	-36.159	-55.098	
48.00	-34.963	-57.579	
49.00	-34.167	-48.682	
50.00	-33.688	-58.286	
51.00	-33.424	-53.646	
52.00	-33.604	-56.334	
53.00	-33.889	-56.694	
54.00	-34.508	-57.775	
55.00	-35.455	-55.746	
56.00	-36.683	-61.588	
57.00	-38.054	-55.676	
58.00	-39.995	-63.417	
59.00	-42.288	-54.752	
60.00	-45.251	-62.168	
61.00	-48.563	-53.300	
62.00	-52.663	-42.457	
63.00	-55.264	-16.286	
64.00	-55.709	-4.146	
65.00	-54.373	-2.109	
66.00	-52.279	-12.284	
67.00	-49.938	-27.532	
68.00	-46.843	-41.772	
69.00	-44.219	-48.066	
70.00	-41.808	-55.758	
71.00	-39.783	-54.006	
72.00	-38.225	-62.024	
73.00	-36.965	-58.268	
74.00	-36.064	-60.481	
75.00	-35.385	-62.845	
76.00	-34.996	-62.978	
77.00	-34.839	-65.560	
78.00	-35.055	-65.571	
79.00	-35.355	-65.511	
80.00	-36.082	-64.887	
81.00	-37.227	-64.413	
82.00	-38.843	-63.961	
83.00	-41.266	-62.395	
84.00	-44.557	-64.513	
85.00	-51.264	-60.497	
86.00	-72.318	77.426	
87.00	-49.785	121.388	
88.00	-44.212	116.081	
89.00	-41.157	123.787	
90.00	-38.999	119.244	
91.00	-37.663	126.609	
92.00	-36.669	130.010	
93.00	-36.033	132.750	
94.00	-35.669	132.789	
95.00	-35.487	135.232	
96.00	-35.659	133.687	
97.00	-35.885	138.305	
98.00	-36.509	141.603	
99.00	-37.312	146.597	
100.00	-38.315	151.814	
101.00	-39.856	162.483	
102.00	-41.403	169.952	
103.00	-43.595	-174.241	
104.00	-45.474	-155.531	
105.00	-46.662	-130.674	
106.00	-45.949	-95.552	
107.00	-44.057	-79.312	
108.00	-42.091	-59.317	
109.00	-40.600	-53.596	
110.00	-39.354	-43.056	
111.00	-38.641	-39.965	
112.00	-38.067	-36.379	
113.00	-37.728	-23.977	
114.00	-37.528	-29.215	
115.00	-37.645	-16.307	
116.00	-37.920	-15.779	
117.00	-38.389	-5.742	
118.00	-39.028	1.466	
119.00	-39.694	9.673	
120.00	-40.154	21.980	
121.00	-40.690	33.829	
122.00	-40.673	47.713	
123.00	-40.526	61.447	
124.00	-39.878	69.770	
125.00	-39.401	83.786	
126.00	-38.726	86.809	
127.00	-38.331	99.325	
128.00	-37.834	97.881	
129.00	-37.701	106.510	
130.00	-37.584	109.531	
131.00	-37.765	116.624	
132.00	-37.890	120.978	
133.00	-38.287	127.526	
134.00	-38.504	129.876	
135.00	-38.830	139.467	
136.00	-38.969	142.921	
137.00	-38.919	158.044	
138.00	-38.830	157.616	
139.00	-38.356	175.782	
140.00	-37.922	-178.412	
141.00	-37.349	-170.959	
142.00	-36.751	-174.296	
143.00	-36.340	-170.419	
144.00	-36.086	-163.403	
145.00	-36.011	-156.261	
146.00	-35.867	-157.175	
147.00	-36.059	-160.984	
148.00	-36.257	-161.075	
149.00	-36.734	-155.064	
150.00	-37.420	-150.498	
151.00	-37.943	-151.825	
152.00	-38.821	-144.224	
153.00	-39.523	-129.862	
154.00	-40.505	-101.524	
155.00	-40.726	-111.664	
156.00	-40.590	-114.578	
157.00	-40.680	-71.486	
158.00	-40.351	-81.272	
159.00	-40.132	-58.814	
160.00	-40.094	-53.592	
161.00	-40.047	-50.845	
162.00	-40.265	-48.162	
163.00	-40.308	-45.681	
164.00	-40.787	-52.054	
165.00	-41.259	-55.585	
166.00	-41.360	-57.188	
167.00	-41.845	-53.916	
168.00	-41.931	-64.285	
169.00	-41.965	-54.566	
170.00	-41.665	-70.509	
171.00	-41.481	-62.887	
172.00	-41.006	-64.704	
173.00	-40.297	-52.286	
174.00	-39.524	-64.502	
175.00	-38.733	-57.646	
176.00	-38.167	-68.857	
177.00	-37.476	-50.600	
178.00	-36.838	-54.605	
179.00	-36.349	-46.703	
180.00	-36.033	-42.388	
181.00	-35.720	-44.651	
182.00	-35.601	-33.203	
183.00	-35.785	-39.902	
184.00	-35.767	-24.848	
185.00	-36.196	-35.519	
186.00	-36.573	-10.144	
187.00	-37.106	-27.227	
188.00	-37.696	-8.514	
189.00	-38.292	-13.881	
190.00	-38.964	0.024	
191.00	-39.799	-2.216	
192.00	-40.328	4.194	
193.00	-40.949	6.057	
194.00	-41.310	0.010	
195.00	-41.317	9.218	
196.00	-41.558	-3.032	
197.00	-41.216	-0.839	
198.00	-40.822	-5.212	
199.00	-40.176	-6.476	
200.00	-39.927	-31.003	
201.00	-38.928	-19.632	
202.00	-38.530	-34.084	
203.00	-37.401	-18.676	
204.00	-37.205	-26.028	
205.00	-36.780	-24.829	
206.00	-36.691	-27.134	
207.00	-36.833	-32.722	
208.00	-36.892	-19.467	
209.00	-37.480	-27.494	
210.00	-38.204	-24.078	
211.00	-39.105	-25.927	
212.00	-40.470	-24.406	
213.00	-42.276	-20.646	
214.00	-44.751	-30.271	
215.00	-48.195	-32.011	
216.00	-56.018	-66.242	
217.00	-54.391	-138.857	
218.00	-49.570	-165.707	
219.00	-45.535	-161.335	
220.00	-43.451	-156.232	
221.00	-41.311	-169.802	
222.00	-40.495	-150.829	
223.00	-39.300	-164.476	
224.00	-39.252	-145.821	
225.00	-38.980	-157.793	
226.00	-39.255	-135.147	
227.00	-39.565	-148.997	
228.00	-40.687	-128.728	
229.00	-41.887	-133.185	
230.00	-43.563	-116.020	
231.00	-46.127	-99.247	
232.00	-47.868	-72.351	
233.00	-46.992	-31.149	
234.00	-44.911	0.500	
235.00	-42.393	12.429	
236.00	-40.179	29.547	
237.00	-38.464	27.648	
238.00	-37.137	47.649	
239.00	-36.187	41.628	
240.00	-35.401	55.716	
241.00	-34.914	54.501	
242.00	-34.648	60.834	
243.00	-34.522	62.427	
244.00	-34.707	68.810	
245.00	-35.076	71.856	
246.00	-35.711	80.442	
247.00	-36.541	73.734	
248.00	-37.775	95.371	
249.00	-39.328	107.974	
250.00	-41.002	125.838	
251.00	-42.508	147.206	
252.00	-42.820	176.077	
253.00	-41.299	-154.197	
254.00	-39.486	-150.378	
255.00	-37.902	-149.120	
256.00	-36.254	-137.795	
257.00	-35.032	-133.628	
258.00	-34.229	-121.820	
259.00	-33.512	-125.772	
260.00	-33.109	-114.761	
261.00	-33.014	-116.320	
262.00	-33.005	-119.576	
263.00	-33.456	-98.224	
264.00	-33.915	-115.025	
265.00	-34.840	-93.816	
266.00	-35.765	-104.216	
267.00	-37.182	-102.114	
268.00	-39.180	-98.448	
269.00	-41.489	-90.512	
270.00	-44.089	-77.714	
271.00	-45.674	-36.192	
272.00	-44.724	-15.840	
273.00	-42.116	11.173	
274.00	-40.210	13.607	
275.00	-38.177	25.596	
276.00	-37.167	19.937	
277.00	-36.030	37.646	
278.00	-35.549	21.630	
279.00	-34.939	37.006	
280.00	-34.856	18.052	
281.00	-34.309	33.090	
282.00	-34.339	11.572	
283.00	-34.292	25.487	
284.00	-34.337	8.072	
285.00	-34.314	17.444	
286.00	-34.533	-5.582	
287.00	-34.759	4.134	
288.00	-35.192	-7.330	
289.00	-35.740	1.683	
290.00	-36.403	-7.683	
291.00	-37.364	11.440	
292.00	-38.308	0.292	
293.00	-39.546	32.463	
294.00	-40.380	26.519	
295.00	-40.259	56.630	
296.00	-39.374	69.894	
297.00	-38.014	85.007	
298.00	-36.443	91.967	
299.00	-35.150	101.922	
300.00	-34.163	107.718	
301.00	-33.418	106.399	
302.00	-32.870	113.895	
303.00	-32.502	112.561	
304.00	-32.353	113.218	
305.00	-32.448	107.347	
306.00	-32.689	113.286	
307.00	-32.989	103.718	
308.00	-33.486	107.617	
309.00	-33.992	92.718	
310.00	-34.577	102.337	
311.00	-34.854	80.579	
312.00	-35.120	89.140	
313.00	-35.091	66.387	
314.00	-34.982	73.864	
315.00	-34.768	57.344	
316.00	-34.540	64.614	
317.00	-34.325	53.964	
318.00	-34.261	60.805	
319.00	-34.199	59.517	
320.00	-34.303	63.521	
321.00	-34.471	63.479	
322.00	-34.634	75.197	
323.00	-34.896	71.446	
324.00	-35.156	87.578	
325.00	-35.350	87.222	
326.00	-35.613	97.779	
327.00	-35.904	101.837	
328.00	-36.119	106.854	
329.00	-36.525	105.285	
330.00	-37.119	118.161	
331.00	-37.936	109.947	
332.00	-39.068	118.489	
333.00	-40.954	111.914	
334.00	-43.474	115.227	
335.00	-47.466	90.561	
336.00	-49.885	56.326	
337.00	-46.058	3.671	
338.00	-42.252	3.206	
339.00	-38.979	-6.719	
340.00	-36.839	-1.120	
341.00	-35.075	-5.604	
342.00	-33.894	0.168	
343.00	-32.986	-7.325	
344.00	-32.361	-2.241	
345.00	-32.085	-12.348	
346.00	-32.115	-4.868	
347.00	-32.236	-21.615	
348.00	-32.867	-3.391	
349.00	-33.649	-13.204	
350.00	-35.052	-11.757	
351.00	-36.675	-13.302	
352.00	-39.281	-23.994	
353.00	-42.700	-35.591	
354.00	-46.222	-79.415	
355.00	-44.576	-112.691	
356.00	-40.808	-145.973	
357.00	-37.950	-149.234	
358.00	-35.733	-160.630	
359.00	-34.384	-161.924	
Frequency	2500.00	MHz	
Channel	test		
Scan Axis name	Azimuth  [deg]		
Scan Axis	Amplitude	Phase	
			
0.00	-32.863	66.994	
1.00	-32.325	76.103	
2.00	-32.000	63.797	
3.00	-31.956	69.683	
4.00	-32.114	60.589	
5.00	-32.586	70.050	
6.00	-33.273	53.491	
7.00	-34.329	60.205	
8.00	-35.697	40.912	
9.00	-37.766	35.361	
10.00	-40.238	26.526	
11.00	-43.011	6.074	
12.00	-44.485	-27.716	
13.00	-43.184	-67.967	
14.00	-40.713	-83.139	
15.00	-38.515	-94.260	
16.00	-36.957	-108.513	
17.00	-35.969	-103.823	
18.00	-35.239	-124.589	
19.00	-34.974	-117.738	
20.00	-35.040	-126.701	
21.00	-35.309	-130.088	
22.00	-36.022	-137.555	
23.00	-37.273	-134.802	
24.00	-38.741	-143.172	
25.00	-40.706	-163.696	
26.00	-42.564	177.397	
27.00	-43.048	143.394	
28.00	-41.508	115.487	
29.00	-39.249	99.510	
30.00	-37.266	82.962	
31.00	-35.570	82.987	
32.00	-34.544	70.020	
33.00	-33.594	71.817	
34.00	-33.172	64.537	
35.00	-32.963	65.331	
36.00	-33.000	66.917	
37.00	-33.465	61.499	
38.00	-34.122	65.967	
39.00	-35.227	57.554	
40.00	-36.730	65.466	
41.00	-38.819	70.268	
42.00	-41.388	79.947	
43.00	-43.766	106.510	
44.00	-43.396	137.296	
45.00	-40.900	161.590	
46.00	-38.535	171.312	
47.00	-36.671	-178.562	
48.00	-35.179	-179.953	
49.00	-34.393	-170.370	
50.00	-33.694	-179.392	
51.00	-33.516	-174.313	
52.00	-33.457	-177.493	
53.00	-33.760	-177.655	
54.00	-34.280	-179.389	
55.00	-35.123	-178.395	
56.00	-36.281	174.805	
57.00	-37.681	178.171	
58.00	-39.595	168.858	
59.00	-41.753	172.439	
60.00	-44.542	157.094	
61.00	-47.946	155.984	
62.00	-51.975	146.864	
63.00	-55.332	133.826	
64.00	-58.710	125.097	
65.00	-59.521	131.865	
66.00	-58.243	158.378	
67.00	-52.454	172.287	
68.00	-48.418	177.043	
69.00	-45.184	177.737	
70.00	-42.344	174.923	
71.00	-40.434	-178.371	
72.00	-38.630	174.841	
73.00	-37.435	179.508	
74.00	-36.381	178.476	
75.00	-35.759	176.551	
76.00	-35.365	176.640	
77.00	-35.296	174.108	
78.00	-35.460	174.135	
79.00	-35.910	173.335	
80.00	-36.716	173.140	
81.00	-37.893	171.424	
82.00	-39.611	170.107	
83.00	-42.360	166.777	
84.00	-46.019	156.090	
85.00	-52.452	123.835	
86.00	-51.747	46.614	
87.00	-45.561	27.361	
88.00	-41.952	15.615	
89.00	-39.342	17.834	
90.00	-37.814	11.843	
91.00	-36.588	16.242	
92.00	-35.707	19.420	
93.00	-35.270	20.410	
94.00	-34.978	20.392	
95.00	-35.001	21.196	
96.00	-35.201	19.954	
97.00	-35.596	23.924	
98.00	-36.264	26.964	
99.00	-37.253	32.052	
100.00	-38.340	36.970	
101.00	-39.876	47.961	
102.00	-41.671	55.776	
103.00	-43.958	72.226	
104.00	-46.032	93.093	
105.00	-46.467	120.741	
106.00	-45.759	152.673	
107.00	-43.705	167.962	
108.00	-42.033	-172.594	
109.00	-40.479	-168.870	
110.00	-39.399	-158.548	
111.00	-38.614	-155.062	
112.00	-38.161	-151.663	
113.00	-37.951	-139.514	
114.00	-37.929	-146.191	
115.00	-38.064	-132.581	
116.00	-38.663	-133.010	
117.00	-39.194	-121.806	
118.00	-40.020	-114.588	
119.00	-40.774	-104.120	
120.00	-41.200	-90.257	
121.00	-41.812	-76.464	
122.00	-41.759	-63.733	
123.00	-41.141	-48.068	
124.00	-40.574	-42.124	
125.00	-39.743	-27.904	
126.00	-39.208	-27.007	
127.00	-38.632	-14.190	
128.00	-38.318	-16.034	
129.00	-38.186	-6.970	
130.00	-38.191	-4.913	
131.00	-38.477	4.103	
132.00	-38.586	8.144	
133.00	-38.835	16.596	
134.00	-39.181	19.077	
135.00	-39.401	32.834	
136.00	-39.418	37.083	
137.00	-39.044	51.244	
138.00	-38.495	51.952	
139.00	-37.810	68.459	
140.00	-37.127	72.563	
141.00	-36.486	78.385	
142.00	-35.866	74.195	
143.00	-35.368	77.083	
144.00	-35.113	83.342	
145.00	-34.998	90.449	
146.00	-34.958	86.904	
147.00	-35.171	83.044	
148.00	-35.506	81.635	
149.00	-36.143	87.047	
150.00	-36.857	93.027	
151.00	-37.601	92.077	
152.00	-38.560	102.444	
153.00	-39.415	117.032	
154.00	-40.094	146.213	
155.00	-40.109	140.073	
156.00	-40.120	139.325	
157.00	-39.720	177.391	
158.00	-39.116	169.628	
159.00	-38.744	-170.768	
160.00	-38.452	-169.042	
161.00	-38.403	-166.505	
162.00	-38.273	-164.224	
163.00	-38.428	-163.884	
164.00	-38.684	-170.532	
165.00	-38.979	-173.334	
166.00	-39.606	-176.065	
167.00	-39.799	-172.848	
168.00	-40.264	175.187	
169.00	-40.863	-175.257	
170.00	-40.684	167.162	
171.00	-41.021	174.753	
172.00	-40.582	171.712	
173.00	-40.731	-175.722	
174.00	-39.611	171.953	
175.00	-39.270	179.613	
176.00	-38.540	169.301	
177.00	-38.119	-171.360	
178.00	-37.542	-173.957	
179.00	-37.061	-165.694	
180.00	-36.799	-161.304	
181.00	-36.364	-163.999	
182.00	-36.262	-152.119	
183.00	-36.174	-159.768	
184.00	-36.309	-144.742	
185.00	-36.515	-156.222	
186.00	-37.137	-128.844	
187.00	-37.575	-148.275	
188.00	-38.217	-130.341	
189.00	-39.010	-137.954	
190.00	-39.930	-123.245	
191.00	-40.860	-128.023	
192.00	-41.636	-123.678	
193.00	-42.342	-124.015	
194.00	-42.748	-133.555	
195.00	-42.859	-125.699	
196.00	-42.615	-138.416	
197.00	-42.368	-135.330	
198.00	-41.693	-140.674	
199.00	-41.075	-138.413	
200.00	-39.803	-161.057	
201.00	-39.218	-147.088	
202.00	-38.380	-160.197	
203.00	-37.992	-144.074	
204.00	-37.583	-149.502	
205.00	-37.196	-148.224	
206.00	-37.089	-149.070	
207.00	-37.042	-154.268	
208.00	-37.459	-140.571	
209.00	-37.678	-148.958	
210.00	-38.463	-145.872	
211.00	-39.364	-147.861	
212.00	-40.566	-148.974	
213.00	-42.467	-146.948	
214.00	-44.842	-162.362	
215.00	-47.741	-173.568	
216.00	-50.049	150.636	
217.00	-49.170	117.727	
218.00	-46.534	99.828	
219.00	-43.831	95.657	
220.00	-41.940	99.187	
221.00	-40.556	84.914	
222.00	-39.573	101.352	
223.00	-39.063	88.077	
224.00	-38.556	105.261	
225.00	-38.475	94.318	
226.00	-38.763	115.306	
227.00	-39.182	103.257	
228.00	-39.867	120.426	
229.00	-40.936	118.781	
230.00	-42.322	133.390	
231.00	-43.976	144.420	
232.00	-45.573	168.294	
233.00	-46.255	-160.257	
234.00	-45.164	-127.601	
235.00	-43.154	-113.090	
236.00	-41.601	-92.169	
237.00	-39.830	-94.049	
238.00	-38.340	-71.084	
239.00	-37.282	-77.505	
240.00	-36.564	-62.104	
241.00	-36.075	-62.847	
242.00	-35.816	-56.028	
243.00	-35.658	-53.855	
244.00	-35.869	-45.867	
245.00	-36.320	-42.829	
246.00	-36.928	-33.123	
247.00	-37.969	-37.602	
248.00	-38.820	-14.409	
249.00	-39.968	-2.502	
250.00	-41.455	19.009	
251.00	-42.231	41.321	
252.00	-41.753	67.477	
253.00	-40.281	90.945	
254.00	-38.363	93.165	
255.00	-36.823	93.223	
256.00	-35.596	104.718	
257.00	-34.481	106.488	
258.00	-33.719	119.081	
259.00	-33.118	114.628	
260.00	-32.753	125.934	
261.00	-32.571	124.306	
262.00	-32.635	120.871	
263.00	-32.925	141.735	
264.00	-33.371	125.521	
265.00	-34.049	145.489	
266.00	-35.011	137.115	
267.00	-36.360	138.506	
268.00	-37.966	139.851	
269.00	-39.980	148.159	
270.00	-42.152	156.456	
271.00	-44.354	-168.457	
272.00	-44.473	-150.366	
273.00	-42.713	-119.381	
274.00	-40.487	-114.426	
275.00	-38.494	-98.517	
276.00	-37.223	-103.950	
277.00	-36.279	-84.731	
278.00	-35.504	-101.078	
279.00	-34.941	-84.105	
280.00	-34.575	-102.757	
281.00	-34.296	-86.146	
282.00	-34.173	-107.326	
283.00	-34.072	-91.024	
284.00	-34.088	-109.005	
285.00	-34.296	-98.429	
286.00	-34.452	-122.639	
287.00	-34.985	-112.197	
288.00	-35.318	-124.860	
289.00	-36.064	-114.580	
290.00	-36.794	-125.086	
291.00	-38.043	-104.203	
292.00	-39.356	-117.788	
293.00	-40.845	-82.648	
294.00	-42.062	-86.624	
295.00	-41.918	-53.148	
296.00	-40.574	-35.981	
297.00	-38.749	-22.656	
298.00	-37.041	-17.066	
299.00	-35.593	-6.776	
300.00	-34.519	-2.981	
301.00	-33.764	-4.070	
302.00	-33.096	1.945	
303.00	-32.744	1.446	
304.00	-32.618	0.617	
305.00	-32.679	-5.272	
306.00	-32.994	0.010	
307.00	-33.380	-9.996	
308.00	-33.955	-6.868	
309.00	-34.474	-22.639	
310.00	-35.057	-12.115	
311.00	-35.311	-36.865	
312.00	-35.562	-27.420	
313.00	-35.378	-52.092	
314.00	-35.186	-43.792	
315.00	-34.800	-61.834	
316.00	-34.566	-53.903	
317.00	-34.400	-65.013	
318.00	-34.376	-58.330	
319.00	-34.362	-60.276	
320.00	-34.542	-55.511	
321.00	-34.890	-56.107	
322.00	-35.191	-43.390	
323.00	-35.456	-47.357	
324.00	-35.966	-29.126	
325.00	-36.367	-29.135	
326.00	-36.743	-17.639	
327.00	-37.169	-12.972	
328.00	-37.413	-6.958	
329.00	-37.894	-8.135	
330.00	-38.560	5.950	
331.00	-39.451	-2.093	
332.00	-40.636	7.642	
333.00	-42.953	3.322	
334.00	-45.896	8.569	
335.00	-52.126	-17.854	
336.00	-52.950	-77.279	
337.00	-46.473	-129.998	
338.00	-42.313	-120.234	
339.00	-39.069	-129.073	
340.00	-37.079	-121.118	
341.00	-35.427	-125.249	
342.00	-34.303	-118.423	
343.00	-33.445	-126.498	
344.00	-33.012	-119.909	
345.00	-32.660	-130.441	
346.00	-32.668	-122.857	
347.00	-32.908	-140.272	
348.00	-33.616	-121.113	
349.00	-34.637	-132.747	
350.00	-36.066	-131.977	
351.00	-38.211	-135.436	
352.00	-40.512	-148.500	
353.00	-43.800	-171.014	
354.00	-44.859	143.251	
355.00	-42.182	122.984	
356.00	-39.221	97.383	
357.00	-36.892	96.693	
358.00	-35.078	85.049	
359.00	-33.947	83.798	
Frequency	2525.00	MHz	
Channel	test		
Scan Axis name	Azimuth  [deg]		
Scan Axis	Amplitude	Phase	
			
0.00	-33.348	-108.790	
1.00	-32.970	-96.126	
2.00	-32.851	-104.973	
3.00	-33.047	-95.589	
4.00	-33.359	-100.571	
5.00	-34.211	-86.409	
6.00	-35.397	-99.437	
7.00	-37.032	-86.465	
8.00	-39.230	-97.431	
9.00	-42.427	-90.217	
10.00	-47.737	-66.174	
11.00	-51.955	2.116	
12.00	-45.525	46.852	
13.00	-41.047	55.403	
14.00	-38.444	62.622	
15.00	-36.412	64.541	
16.00	-35.057	59.190	
17.00	-34.117	69.960	
18.00	-33.485	54.858	
19.00	-33.247	65.122	
20.00	-33.364	60.142	
21.00	-33.675	60.999	
22.00	-34.312	58.295	
23.00	-35.376	66.887	
24.00	-36.733	66.757	
25.00	-38.971	61.020	
26.00	-42.113	64.905	
27.00	-47.383	65.336	
28.00	-60.480	125.547	
29.00	-49.188	-139.732	
30.00	-43.303	-138.351	
31.00	-40.064	-128.304	
32.00	-37.871	-137.954	
33.00	-36.453	-132.898	
34.00	-35.396	-138.165	
35.00	-34.939	-136.480	
36.00	-34.760	-134.135	
37.00	-34.914	-141.470	
38.00	-35.369	-137.890	
39.00	-36.165	-149.809	
40.00	-37.340	-147.062	
41.00	-38.901	-148.912	
42.00	-41.220	-154.117	
43.00	-44.518	-156.217	
44.00	-50.251	-165.308	
45.00	-64.525	168.066	
46.00	-53.506	18.391	
47.00	-47.728	17.354	
48.00	-44.333	9.574	
49.00	-42.783	12.031	
50.00	-41.663	-0.470	
51.00	-41.140	-1.480	
52.00	-41.171	-9.042	
53.00	-41.436	-17.202	
54.00	-42.059	-27.470	
55.00	-42.757	-39.184	
56.00	-43.259	-59.775	
57.00	-43.433	-71.055	
58.00	-42.718	-92.545	
59.00	-42.082	-99.287	
60.00	-41.355	-117.796	
61.00	-40.772	-122.338	
62.00	-40.519	-127.931	
63.00	-40.543	-130.145	
64.00	-41.047	-135.418	
65.00	-41.677	-138.407	
66.00	-43.056	-136.733	
67.00	-45.356	-140.404	
68.00	-48.910	-140.862	
69.00	-55.981	-131.344	
70.00	-63.939	-5.043	
71.00	-51.692	24.240	
72.00	-46.607	24.091	
73.00	-44.150	27.562	
74.00	-42.373	28.933	
75.00	-41.264	28.832	
76.00	-40.558	31.978	
77.00	-40.499	33.303	
78.00	-40.747	37.729	
79.00	-41.272	44.606	
80.00	-42.010	52.354	
81.00	-42.971	64.782	
82.00	-43.726	82.100	
83.00	-43.751	102.155	
84.00	-42.829	117.234	
85.00	-41.636	134.648	
86.00	-40.315	142.746	
87.00	-39.010	154.765	
88.00	-38.125	154.953	
89.00	-37.575	163.696	
90.00	-37.232	161.990	
91.00	-37.270	169.547	
92.00	-37.547	174.363	
93.00	-38.112	177.084	
94.00	-38.981	179.116	
95.00	-40.268	-177.934	
96.00	-41.983	-177.067	
97.00	-44.264	-167.665	
98.00	-47.581	-156.135	
99.00	-52.172	-124.429	
100.00	-52.419	-64.175	
101.00	-48.119	-31.603	
102.00	-44.844	-19.434	
103.00	-42.528	-10.133	
104.00	-40.951	-6.697	
105.00	-39.845	-7.331	
106.00	-39.058	2.511	
107.00	-38.638	0.252	
108.00	-38.452	9.985	
109.00	-38.619	8.722	
110.00	-38.868	16.227	
111.00	-39.517	17.650	
112.00	-40.299	20.311	
113.00	-41.503	32.555	
114.00	-42.679	30.103	
115.00	-44.597	46.568	
116.00	-46.112	56.916	
117.00	-48.069	80.052	
118.00	-48.265	104.357	
119.00	-47.251	124.894	
120.00	-45.553	142.764	
121.00	-44.241	152.342	
122.00	-43.073	157.293	
123.00	-42.277	163.436	
124.00	-41.780	160.946	
125.00	-41.396	168.487	
126.00	-41.595	164.115	
127.00	-41.710	172.634	
128.00	-42.275	168.361	
129.00	-42.681	174.403	
130.00	-43.706	176.075	
131.00	-44.881	-175.457	
132.00	-45.926	-166.703	
133.00	-46.827	-152.761	
134.00	-47.046	-140.363	
135.00	-45.777	-122.613	
136.00	-44.332	-116.642	
137.00	-42.663	-106.358	
138.00	-41.193	-111.028	
139.00	-40.105	-100.503	
140.00	-39.004	-101.726	
141.00	-38.164	-100.466	
142.00	-37.452	-109.606	
143.00	-37.016	-109.324	
144.00	-36.748	-107.098	
145.00	-36.755	-103.297	
146.00	-36.945	-107.664	
147.00	-37.250	-113.087	
148.00	-37.977	-114.652	
149.00	-38.842	-111.376	
150.00	-40.169	-107.349	
151.00	-41.465	-108.600	
152.00	-43.155	-98.446	
153.00	-44.858	-75.265	
154.00	-45.482	-37.893	
155.00	-45.009	-36.384	
156.00	-43.608	-31.984	
157.00	-41.932	5.492	
158.00	-40.889	-5.310	
159.00	-40.055	11.941	
160.00	-39.749	12.609	
161.00	-39.543	12.234	
162.00	-39.621	10.840	
163.00	-39.776	10.490	
164.00	-40.134	-0.738	
165.00	-40.707	-4.206	
166.00	-40.994	-9.280	
167.00	-41.890	-8.701	
168.00	-41.904	-20.113	
169.00	-42.398	-11.590	
170.00	-42.206	-26.510	
171.00	-42.679	-16.779	
172.00	-42.551	-20.265	
173.00	-42.552	-2.035	
174.00	-41.741	-12.484	
175.00	-41.128	0.134	
176.00	-40.118	-7.080	
177.00	-39.737	13.040	
178.00	-38.821	9.953	
179.00	-38.325	17.918	
180.00	-37.619	22.633	
181.00	-37.250	19.943	
182.00	-37.036	31.981	
183.00	-37.104	23.231	
184.00	-37.260	38.334	
185.00	-37.765	26.431	
186.00	-38.248	47.298	
187.00	-39.037	32.229	
188.00	-40.205	44.527	
189.00	-41.283	38.041	
190.00	-42.862	48.208	
191.00	-44.132	40.219	
192.00	-45.831	42.129	
193.00	-46.982	34.852	
194.00	-48.729	23.650	
195.00	-49.150	25.696	
196.00	-49.203	11.462	
197.00	-47.996	15.587	
198.00	-47.391	14.932	
199.00	-45.963	18.753	
200.00	-44.415	0.581	
201.00	-43.545	19.163	
202.00	-42.670	8.878	
203.00	-42.070	30.665	
204.00	-41.821	24.419	
205.00	-41.735	27.533	
206.00	-41.774	28.836	
207.00	-42.365	20.708	
208.00	-43.375	35.324	
209.00	-44.597	22.174	
210.00	-46.871	20.003	
211.00	-49.508	7.874	
212.00	-52.865	-17.898	
213.00	-52.674	-59.940	
214.00	-48.646	-88.377	
215.00	-45.819	-96.050	
216.00	-43.184	-107.216	
217.00	-41.798	-106.372	
218.00	-40.289	-103.987	
219.00	-39.868	-100.516	
220.00	-39.276	-92.972	
221.00	-38.817	-104.281	
222.00	-39.030	-88.094	
223.00	-39.008	-100.351	
224.00	-39.892	-86.322	
225.00	-40.369	-95.671	
226.00	-41.924	-80.557	
227.00	-43.246	-92.593	
228.00	-46.027	-82.512	
229.00	-49.418	-85.779	
230.00	-56.236	-79.292	
231.00	-69.022	104.373	
232.00	-53.964	109.922	
233.00	-47.703	111.482	
234.00	-44.806	119.159	
235.00	-42.772	114.140	
236.00	-41.144	124.426	
237.00	-40.350	114.514	
238.00	-39.386	134.017	
239.00	-39.200	123.722	
240.00	-38.669	136.926	
241.00	-38.792	131.798	
242.00	-38.954	137.045	
243.00	-39.372	136.073	
244.00	-39.974	142.514	
245.00	-40.838	144.112	
246.00	-42.143	151.508	
247.00	-44.136	143.107	
248.00	-46.132	166.279	
249.00	-50.010	-175.506	
250.00	-53.049	-135.466	
251.00	-51.498	-86.723	
252.00	-48.198	-60.572	
253.00	-44.763	-45.304	
254.00	-42.386	-51.426	
255.00	-40.859	-57.926	
256.00	-39.273	-50.372	
257.00	-38.250	-51.801	
258.00	-37.493	-42.763	
259.00	-37.000	-49.949	
260.00	-36.826	-41.042	
261.00	-36.698	-46.133	
262.00	-36.911	-51.435	
263.00	-37.217	-33.480	
264.00	-37.854	-53.081	
265.00	-38.766	-36.879	
266.00	-39.686	-50.432	
267.00	-41.166	-55.332	
268.00	-43.328	-59.627	
269.00	-45.962	-67.053	
270.00	-50.076	-76.834	
271.00	-55.706	-88.804	
272.00	-61.666	143.665	
273.00	-51.801	127.340	
274.00	-47.674	106.600	
275.00	-44.933	111.269	
276.00	-43.040	96.251	
277.00	-41.835	108.073	
278.00	-40.465	85.823	
279.00	-39.462	96.780	
280.00	-38.384	74.091	
281.00	-37.553	86.981	
282.00	-36.714	63.810	
283.00	-36.011	77.257	
284.00	-35.423	59.506	
285.00	-35.067	68.128	
286.00	-34.729	46.369	
287.00	-34.530	55.712	
288.00	-34.546	44.889	
289.00	-34.940	54.459	
290.00	-35.407	43.802	
291.00	-36.176	63.369	
292.00	-37.187	50.414	
293.00	-38.559	77.610	
294.00	-39.988	70.810	
295.00	-41.237	99.421	
296.00	-41.809	120.227	
297.00	-40.503	142.658	
298.00	-39.127	155.621	
299.00	-37.352	168.991	
300.00	-36.080	175.514	
301.00	-35.043	177.189	
302.00	-34.418	-176.930	
303.00	-34.130	-176.247	
304.00	-33.953	-176.746	
305.00	-34.092	177.902	
306.00	-34.375	-177.512	
307.00	-34.972	172.752	
308.00	-35.562	174.191	
309.00	-36.401	155.069	
310.00	-36.822	162.925	
311.00	-36.979	133.685	
312.00	-36.595	141.559	
313.00	-36.071	114.015	
314.00	-35.302	122.593	
315.00	-34.704	105.135	
316.00	-34.223	113.901	
317.00	-33.945	102.809	
318.00	-33.857	110.505	
319.00	-34.006	108.626	
320.00	-34.450	113.048	
321.00	-34.927	112.192	
322.00	-35.835	125.088	
323.00	-36.727	121.041	
324.00	-37.884	140.211	
325.00	-39.136	144.945	
326.00	-40.496	162.687	
327.00	-41.362	175.278	
328.00	-41.844	-166.515	
329.00	-42.066	-158.139	
330.00	-42.016	-133.067	
331.00	-41.925	-133.445	
332.00	-42.389	-113.565	
333.00	-43.258	-108.349	
334.00	-44.780	-82.270	
335.00	-46.142	-64.299	
336.00	-46.421	-20.484	
337.00	-44.483	-4.096	
338.00	-41.626	29.709	
339.00	-39.506	36.327	
340.00	-37.492	53.279	
341.00	-36.159	55.227	
342.00	-35.018	66.750	
343.00	-34.392	62.729	
344.00	-33.847	72.184	
345.00	-33.719	64.965	
346.00	-33.832	75.696	
347.00	-34.295	61.795	
348.00	-34.931	84.777	
349.00	-36.251	78.627	
350.00	-37.998	87.487	
351.00	-40.650	93.226	
352.00	-44.864	102.080	
353.00	-51.816	145.139	
354.00	-48.909	-140.856	
355.00	-42.937	-106.327	
356.00	-39.337	-108.499	
357.00	-37.041	-97.601	
358.00	-35.329	-100.825	
359.00	-34.355	-97.663	
Frequency	2550.00	MHz	
Channel	test		
Scan Axis name	Azimuth  [deg]		
Scan Axis	Amplitude	Phase	
			
0.00	-34.708	85.151	
1.00	-33.880	97.476	
2.00	-33.407	88.752	
3.00	-33.240	97.919	
4.00	-33.437	92.418	
5.00	-33.927	105.897	
6.00	-34.584	92.218	
7.00	-35.783	102.876	
8.00	-37.251	88.714	
9.00	-39.579	94.320	
10.00	-42.936	102.045	
11.00	-48.087	116.336	
12.00	-55.302	-177.832	
13.00	-48.118	-120.769	
14.00	-42.812	-104.657	
15.00	-39.846	-102.181	
16.00	-37.935	-107.675	
17.00	-36.476	-96.658	
18.00	-35.587	-112.726	
19.00	-35.166	-102.195	
20.00	-34.913	-108.817	
21.00	-34.955	-108.977	
22.00	-35.381	-113.077	
23.00	-36.080	-107.348	
24.00	-37.133	-111.933	
25.00	-38.577	-121.092	
26.00	-40.575	-126.836	
27.00	-42.979	-140.147	
28.00	-45.578	-160.199	
29.00	-47.641	170.438	
30.00	-46.609	128.338	
31.00	-44.711	117.416	
32.00	-42.886	93.678	
33.00	-41.597	89.770	
34.00	-40.865	78.505	
35.00	-40.648	74.902	
36.00	-41.043	73.266	
37.00	-41.753	60.671	
38.00	-43.088	55.448	
39.00	-44.907	34.134	
40.00	-47.106	14.955	
41.00	-47.616	-19.573	
42.00	-45.715	-53.278	
43.00	-43.256	-70.761	
44.00	-41.113	-86.877	
45.00	-39.505	-91.972	
46.00	-38.319	-98.373	
47.00	-37.489	-98.850	
48.00	-37.086	-104.263	
49.00	-36.901	-99.866	
50.00	-36.990	-108.414	
51.00	-37.508	-104.293	
52.00	-38.299	-105.689	
53.00	-39.530	-102.990	
54.00	-41.283	-100.484	
55.00	-43.359	-86.700	
56.00	-45.419	-73.583	
57.00	-45.861	-42.547	
58.00	-45.017	-24.989	
59.00	-43.156	-6.098	
60.00	-41.551	-5.026	
61.00	-40.439	1.178	
62.00	-39.786	2.218	
63.00	-39.357	4.256	
64.00	-39.455	-0.313	
65.00	-39.964	-3.643	
66.00	-40.711	-10.517	
67.00	-41.570	-21.686	
68.00	-42.465	-38.146	
69.00	-42.628	-56.065	
70.00	-42.107	-78.732	
71.00	-40.499	-87.641	
72.00	-39.215	-102.827	
73.00	-37.931	-104.182	
74.00	-36.935	-108.832	
75.00	-36.193	-112.619	
76.00	-35.697	-113.349	
77.00	-35.455	-115.924	
78.00	-35.432	-115.168	
79.00	-35.671	-114.056	
80.00	-36.123	-110.668	
81.00	-36.763	-107.189	
82.00	-37.645	-101.795	
83.00	-38.801	-94.937	
84.00	-40.135	-88.976	
85.00	-41.446	-73.967	
86.00	-42.674	-61.796	
87.00	-43.701	-40.951	
88.00	-44.398	-25.906	
89.00	-44.145	-1.660	
90.00	-43.652	10.665	
91.00	-43.086	29.486	
92.00	-42.372	45.533	
93.00	-41.891	57.630	
94.00	-41.216	66.629	
95.00	-40.793	76.123	
96.00	-40.331	82.406	
97.00	-39.886	93.405	
98.00	-39.664	103.195	
99.00	-39.336	112.047	
100.00	-39.346	119.537	
101.00	-39.364	132.432	
102.00	-39.558	139.379	
103.00	-39.932	149.685	
104.00	-40.327	158.655	
105.00	-40.809	163.335	
106.00	-41.475	-177.153	
107.00	-41.883	-170.320	
108.00	-42.215	-147.901	
109.00	-42.301	-138.507	
110.00	-42.280	-121.397	
111.00	-41.811	-111.040	
112.00	-41.351	-101.201	
113.00	-41.050	-83.822	
114.00	-40.772	-86.031	
115.00	-40.533	-70.539	
116.00	-40.576	-67.075	
117.00	-40.648	-55.915	
118.00	-40.911	-50.165	
119.00	-41.286	-43.813	
120.00	-41.675	-36.203	
121.00	-42.411	-26.457	
122.00	-42.967	-21.602	
123.00	-43.740	-9.235	
124.00	-44.323	-7.890	
125.00	-45.153	6.636	
126.00	-45.925	7.580	
127.00	-47.066	22.350	
128.00	-48.377	23.092	
129.00	-49.455	36.582	
130.00	-51.011	43.430	
131.00	-52.286	57.759	
132.00	-53.849	69.281	
133.00	-54.497	84.639	
134.00	-54.006	95.517	
135.00	-52.838	109.038	
136.00	-52.427	108.514	
137.00	-51.042	117.025	
138.00	-50.370	99.611	
139.00	-49.287	110.924	
140.00	-48.194	101.008	
141.00	-46.875	99.812	
142.00	-45.952	84.802	
143.00	-45.173	83.977	
144.00	-44.337	82.475	
145.00	-43.931	86.014	
146.00	-43.669	76.864	
147.00	-43.389	71.532	
148.00	-43.991	68.498	
149.00	-44.606	70.600	
150.00	-45.212	77.694	
151.00	-46.342	77.285	
152.00	-47.727	89.787	
153.00	-49.492	111.356	
154.00	-50.242	147.902	
155.00	-48.869	149.922	
156.00	-47.515	156.012	
157.00	-46.368	-163.125	
158.00	-44.915	-175.410	
159.00	-43.996	-154.161	
160.00	-43.312	-154.079	
161.00	-42.982	-152.458	
162.00	-42.864	-152.630	
163.00	-43.154	-150.197	
164.00	-43.619	-157.120	
165.00	-44.375	-156.249	
166.00	-44.757	-155.705	
167.00	-45.407	-150.671	
168.00	-46.298	-154.546	
169.00	-46.504	-141.974	
170.00	-47.205	-150.654	
171.00	-46.535	-139.259	
172.00	-46.101	-138.770	
173.00	-44.870	-122.663	
174.00	-44.178	-137.901	
175.00	-42.990	-125.935	
176.00	-42.094	-142.044	
177.00	-40.621	-121.007	
178.00	-39.883	-129.746	
179.00	-39.075	-122.028	
180.00	-38.601	-119.628	
181.00	-38.429	-122.592	
182.00	-38.293	-112.116	
183.00	-38.647	-119.653	
184.00	-38.733	-104.512	
185.00	-39.596	-114.598	
186.00	-39.689	-89.267	
187.00	-41.299	-102.940	
188.00	-41.874	-83.982	
189.00	-43.601	-85.417	
190.00	-44.500	-68.360	
191.00	-46.231	-64.490	
192.00	-47.231	-54.437	
193.00	-48.906	-50.813	
194.00	-51.028	-56.629	
195.00	-52.986	-61.061	
196.00	-52.924	-94.286	
197.00	-51.362	-103.631	
198.00	-48.317	-117.280	
199.00	-46.279	-120.523	
200.00	-43.938	-142.647	
201.00	-42.364	-126.811	
202.00	-40.973	-139.560	
203.00	-40.143	-119.821	
204.00	-39.543	-125.841	
205.00	-39.228	-122.536	
206.00	-39.354	-121.329	
207.00	-39.609	-125.811	
208.00	-40.580	-109.827	
209.00	-41.607	-116.971	
210.00	-43.457	-113.484	
211.00	-46.574	-114.197	
212.00	-52.148	-121.708	
213.00	-61.554	171.981	
214.00	-51.776	99.735	
215.00	-46.225	98.905	
216.00	-43.086	89.154	
217.00	-40.889	95.474	
218.00	-39.497	100.679	
219.00	-38.376	109.361	
220.00	-37.792	119.646	
221.00	-37.352	111.769	
222.00	-37.204	131.062	
223.00	-37.305	121.635	
224.00	-37.664	140.284	
225.00	-38.365	134.965	
226.00	-39.053	155.546	
227.00	-40.265	148.404	
228.00	-41.524	167.938	
229.00	-43.316	170.974	
230.00	-45.237	-166.910	
231.00	-46.796	-144.637	
232.00	-47.103	-111.068	
233.00	-45.968	-80.165	
234.00	-44.340	-56.073	
235.00	-42.225	-47.599	
236.00	-40.519	-28.111	
237.00	-39.302	-34.273	
238.00	-38.196	-12.707	
239.00	-37.563	-19.591	
240.00	-37.025	-4.754	
241.00	-36.711	-6.656	
242.00	-36.678	-1.003	
243.00	-36.926	0.115	
244.00	-37.202	6.898	
245.00	-37.899	9.586	
246.00	-38.751	16.014	
247.00	-40.005	7.807	
248.00	-41.739	28.581	
249.00	-44.502	36.990	
250.00	-48.015	62.642	
251.00	-50.552	100.696	
252.00	-47.721	145.283	
253.00	-44.419	169.771	
254.00	-41.826	168.274	
255.00	-39.965	164.240	
256.00	-38.373	173.616	
257.00	-37.270	173.244	
258.00	-36.447	-174.988	
259.00	-36.084	177.737	
260.00	-35.726	-172.745	
261.00	-35.910	-175.779	
262.00	-36.140	179.418	
263.00	-36.566	-161.118	
264.00	-37.511	-179.175	
265.00	-38.598	-160.234	
266.00	-40.208	-168.717	
267.00	-42.325	-170.519	
268.00	-45.531	-169.850	
269.00	-50.210	-160.060	
270.00	-57.254	-115.468	
271.00	-53.196	-47.019	
272.00	-48.063	-33.636	
273.00	-44.979	-24.673	
274.00	-43.040	-31.956	
275.00	-41.740	-23.100	
276.00	-40.952	-34.442	
277.00	-40.486	-20.998	
278.00	-40.301	-41.430	
279.00	-40.147	-31.314	
280.00	-40.197	-55.887	
281.00	-40.009	-45.630	
282.00	-39.821	-72.306	
283.00	-39.532	-62.700	
284.00	-39.205	-85.148	
285.00	-38.869	-79.688	
286.00	-38.629	-105.770	
287.00	-38.518	-98.475	
288.00	-38.405	-111.374	
289.00	-38.681	-103.210	
290.00	-39.261	-114.592	
291.00	-40.080	-95.532	
292.00	-41.702	-107.490	
293.00	-43.207	-78.888	
294.00	-45.246	-76.767	
295.00	-45.887	-36.778	
296.00	-44.004	-12.680	
297.00	-41.535	4.425	
298.00	-39.190	11.486	
299.00	-37.632	22.323	
300.00	-36.164	26.399	
301.00	-35.243	27.551	
302.00	-34.598	32.750	
303.00	-34.223	33.901	
304.00	-34.307	33.352	
305.00	-34.471	29.349	
306.00	-35.100	35.256	
307.00	-36.002	26.998	
308.00	-37.260	30.054	
309.00	-38.567	11.857	
310.00	-40.581	17.361	
311.00	-41.394	-18.818	
312.00	-41.715	-22.931	
313.00	-40.266	-55.490	
314.00	-38.877	-52.371	
315.00	-37.725	-71.449	
316.00	-36.747	-63.438	
317.00	-36.234	-73.738	
318.00	-35.919	-66.135	
319.00	-36.111	-67.824	
320.00	-36.533	-62.015	
321.00	-37.330	-61.528	
322.00	-38.355	-47.176	
323.00	-39.681	-46.389	
324.00	-41.264	-21.530	
325.00	-42.268	-8.836	
326.00	-42.709	16.954	
327.00	-41.761	34.232	
328.00	-40.667	47.694	
329.00	-39.550	49.751	
330.00	-39.055	68.260	
331.00	-38.632	59.978	
332.00	-39.071	75.843	
333.00	-39.520	72.392	
334.00	-40.922	89.544	
335.00	-43.082	87.962	
336.00	-47.176	115.991	
337.00	-51.630	142.900	
338.00	-48.680	-135.640	
339.00	-43.774	-118.301	
340.00	-40.161	-101.840	
341.00	-37.711	-99.856	
342.00	-35.945	-89.555	
343.00	-34.773	-94.991	
344.00	-33.850	-86.935	
345.00	-33.478	-95.216	
346.00	-33.213	-85.408	
347.00	-33.445	-100.421	
348.00	-33.766	-78.263	
349.00	-34.636	-86.326	
350.00	-35.865	-79.558	
351.00	-37.605	-73.793	
352.00	-40.342	-73.409	
353.00	-44.410	-64.531	
354.00	-53.069	-41.510	
355.00	-51.213	69.817	
356.00	-43.702	85.111	
357.00	-39.880	97.970	
358.00	-37.483	96.389	
359.00	-35.914	98.832	
Frequency	2575.00	MHz	
Channel	test		
Scan Axis name	Azimuth  [deg]		
Scan Axis	Amplitude	Phase	
			
0.00	-36.750	-73.259	
1.00	-36.284	-62.946	
2.00	-36.067	-73.542	
3.00	-36.154	-66.018	
4.00	-36.535	-73.373	
5.00	-37.331	-60.213	
6.00	-38.655	-78.035	
7.00	-40.148	-67.945	
8.00	-42.931	-92.298	
9.00	-46.544	-100.494	
10.00	-52.333	-129.257	
11.00	-50.708	165.796	
12.00	-45.583	136.402	
13.00	-42.007	125.224	
14.00	-39.755	122.140	
15.00	-38.127	119.531	
16.00	-37.062	109.851	
17.00	-36.421	118.362	
18.00	-35.946	101.503	
19.00	-36.026	109.963	
20.00	-36.301	102.854	
21.00	-36.909	100.549	
22.00	-37.915	95.886	
23.00	-39.270	96.919	
24.00	-41.503	89.626	
25.00	-44.136	71.835	
26.00	-46.885	45.275	
27.00	-47.128	4.346	
28.00	-44.496	-20.907	
29.00	-41.842	-33.307	
30.00	-40.083	-48.777	
31.00	-38.341	-43.729	
32.00	-37.670	-57.251	
33.00	-37.043	-52.363	
34.00	-37.040	-57.661	
35.00	-37.136	-55.454	
36.00	-37.779	-47.841	
37.00	-38.807	-54.077	
38.00	-40.380	-40.175	
39.00	-42.662	-39.769	
40.00	-44.530	-14.496	
41.00	-44.588	16.556	
42.00	-42.552	39.106	
43.00	-40.038	54.306	
44.00	-37.944	56.961	
45.00	-36.310	62.424	
46.00	-35.115	64.687	
47.00	-34.225	68.255	
48.00	-33.624	68.206	
49.00	-33.284	73.476	
50.00	-33.173	67.958	
51.00	-33.315	71.166	
52.00	-33.719	70.630	
53.00	-34.368	71.209	
54.00	-35.305	72.024	
55.00	-36.449	76.702	
56.00	-37.828	74.112	
57.00	-39.526	85.826	
58.00	-41.426	86.179	
59.00	-43.520	101.283	
60.00	-44.860	110.439	
61.00	-45.769	125.800	
62.00	-45.910	141.192	
63.00	-45.974	147.453	
64.00	-45.582	145.586	
65.00	-46.076	141.114	
66.00	-45.971	129.622	
67.00	-45.261	111.557	
68.00	-43.753	97.352	
69.00	-42.304	83.389	
70.00	-40.402	71.761	
71.00	-38.654	70.052	
72.00	-37.307	59.873	
73.00	-36.237	61.684	
74.00	-35.340	58.436	
75.00	-34.812	56.005	
76.00	-34.434	54.115	
77.00	-34.327	51.839	
78.00	-34.462	51.048	
79.00	-34.863	50.660	
80.00	-35.588	50.558	
81.00	-36.643	49.957	
82.00	-38.057	49.139	
83.00	-40.105	48.459	
84.00	-42.988	42.732	
85.00	-47.378	38.031	
86.00	-55.462	-0.964	
87.00	-51.441	-78.422	
88.00	-45.185	-103.821	
89.00	-41.902	-102.899	
90.00	-39.617	-109.248	
91.00	-37.989	-104.310	
92.00	-36.927	-100.551	
93.00	-36.146	-100.560	
94.00	-35.684	-100.275	
95.00	-35.571	-100.928	
96.00	-35.508	-101.888	
97.00	-35.893	-99.891	
98.00	-36.441	-96.412	
99.00	-37.406	-93.939	
100.00	-38.666	-90.244	
101.00	-40.440	-83.080	
102.00	-42.814	-78.986	
103.00	-46.618	-68.195	
104.00	-52.899	-38.405	
105.00	-53.545	37.175	
106.00	-47.005	72.774	
107.00	-43.152	78.383	
108.00	-40.508	89.276	
109.00	-38.856	88.994	
110.00	-37.512	95.420	
111.00	-36.710	96.268	
112.00	-36.214	96.523	
113.00	-36.006	105.261	
114.00	-36.086	97.371	
115.00	-36.403	106.689	
116.00	-36.985	104.090	
117.00	-37.886	110.272	
118.00	-39.061	114.066	
119.00	-40.494	119.868	
120.00	-42.461	129.070	
121.00	-44.277	142.082	
122.00	-46.018	161.440	
123.00	-46.473	-172.042	
124.00	-45.342	-156.659	
125.00	-44.504	-137.930	
126.00	-43.222	-135.125	
127.00	-42.597	-122.362	
128.00	-42.020	-126.138	
129.00	-42.137	-119.842	
130.00	-42.359	-120.674	
131.00	-42.919	-114.910	
132.00	-43.859	-115.170	
133.00	-44.856	-110.745	
134.00	-46.422	-111.986	
135.00	-48.156	-100.565	
136.00	-49.718	-95.243	
137.00	-51.090	-69.013	
138.00	-51.228	-67.644	
139.00	-49.684	-38.335	
140.00	-48.671	-36.421	
141.00	-47.191	-31.269	
142.00	-46.184	-42.501	
143.00	-45.570	-41.564	
144.00	-45.179	-42.064	
145.00	-45.044	-38.088	
146.00	-44.837	-49.465	
147.00	-44.854	-57.687	
148.00	-45.113	-66.622	
149.00	-45.792	-67.932	
150.00	-47.041	-67.849	
151.00	-48.666	-77.224	
152.00	-51.121	-77.591	
153.00	-54.502	-57.100	
154.00	-57.831	7.631	
155.00	-58.486	31.337	
156.00	-55.024	49.086	
157.00	-49.171	76.280	
158.00	-47.860	64.703	
159.00	-45.778	77.681	
160.00	-44.742	76.102	
161.00	-44.130	77.493	
162.00	-43.823	74.913	
163.00	-43.548	75.945	
164.00	-44.038	67.234	
165.00	-44.150	66.471	
166.00	-44.799	62.902	
167.00	-44.770	64.743	
168.00	-45.425	58.093	
169.00	-44.855	61.918	
170.00	-45.630	51.322	
171.00	-44.541	59.566	
172.00	-44.384	56.194	
173.00	-43.167	67.041	
174.00	-42.673	54.902	
175.00	-41.380	65.296	
176.00	-40.715	52.506	
177.00	-39.349	71.672	
178.00	-38.614	64.506	
179.00	-37.730	73.441	
180.00	-37.025	75.571	
181.00	-36.647	74.174	
182.00	-36.251	84.248	
183.00	-36.069	78.953	
184.00	-35.990	93.091	
185.00	-36.052	84.355	
186.00	-36.225	107.713	
187.00	-36.512	95.876	
188.00	-36.939	110.165	
189.00	-37.340	109.226	
190.00	-37.928	119.714	
191.00	-38.468	119.941	
192.00	-38.955	124.117	
193.00	-39.664	124.595	
194.00	-40.202	118.510	
195.00	-40.681	121.540	
196.00	-40.825	107.673	
197.00	-40.753	104.166	
198.00	-40.292	96.030	
199.00	-39.406	89.893	
200.00	-38.762	69.174	
201.00	-37.606	78.266	
202.00	-36.932	65.571	
203.00	-36.051	79.680	
204.00	-35.628	73.888	
205.00	-35.357	74.927	
206.00	-35.230	75.423	
207.00	-35.504	70.240	
208.00	-35.753	84.732	
209.00	-36.442	78.307	
210.00	-37.473	82.017	
211.00	-38.689	84.192	
212.00	-40.500	82.947	
213.00	-43.352	85.796	
214.00	-47.506	72.197	
215.00	-52.968	42.820	
216.00	-51.916	-33.012	
217.00	-46.432	-48.961	
218.00	-42.942	-48.005	
219.00	-40.788	-41.512	
220.00	-39.063	-34.028	
221.00	-38.135	-44.459	
222.00	-37.234	-23.500	
223.00	-36.998	-35.330	
224.00	-36.826	-16.822	
225.00	-37.027	-24.857	
226.00	-37.155	-2.797	
227.00	-38.062	-14.040	
228.00	-38.696	4.557	
229.00	-39.990	4.494	
230.00	-41.343	18.779	
231.00	-43.031	30.759	
232.00	-44.630	55.063	
233.00	-45.216	86.317	
234.00	-44.235	113.657	
235.00	-42.621	130.075	
236.00	-40.873	149.417	
237.00	-39.306	149.224	
238.00	-38.335	170.725	
239.00	-37.151	164.793	
240.00	-36.455	178.470	
241.00	-35.944	177.056	
242.00	-35.770	-177.236	
243.00	-35.791	-176.902	
244.00	-36.157	-171.228	
245.00	-36.642	-169.174	
246.00	-37.732	-163.112	
247.00	-38.736	-172.257	
248.00	-40.888	-152.253	
249.00	-43.467	-146.183	
250.00	-47.895	-126.112	
251.00	-53.048	-88.242	
252.00	-49.665	-14.669	
253.00	-44.363	6.634	
254.00	-41.504	3.244	
255.00	-39.291	-2.307	
256.00	-37.463	6.551	
257.00	-36.327	5.087	
258.00	-35.307	17.128	
259.00	-34.773	11.274	
260.00	-34.355	20.509	
261.00	-34.432	18.409	
262.00	-34.550	14.603	
263.00	-34.679	35.639	
264.00	-35.578	19.369	
265.00	-36.246	39.419	
266.00	-37.632	33.380	
267.00	-39.494	34.338	
268.00	-41.477	44.847	
269.00	-43.433	56.797	
270.00	-45.253	78.697	
271.00	-44.382	111.000	
272.00	-43.151	124.063	
273.00	-41.353	141.838	
274.00	-39.833	140.854	
275.00	-38.969	153.259	
276.00	-38.168	147.077	
277.00	-37.970	163.145	
278.00	-37.616	148.606	
279.00	-37.913	162.204	
280.00	-38.059	143.939	
281.00	-38.537	156.577	
282.00	-38.740	132.959	
283.00	-39.375	143.949	
284.00	-39.662	121.976	
285.00	-40.063	126.372	
286.00	-40.166	100.031	
287.00	-40.549	105.307	
288.00	-40.633	91.187	
289.00	-41.248	99.174	
290.00	-41.892	88.570	
291.00	-43.135	107.883	
292.00	-44.094	101.282	
293.00	-46.119	135.365	
294.00	-45.030	145.044	
295.00	-43.943	175.785	
296.00	-41.502	-171.718	
297.00	-39.619	-161.373	
298.00	-37.723	-158.046	
299.00	-36.382	-148.242	
300.00	-35.322	-147.149	
301.00	-34.554	-144.972	
302.00	-34.039	-141.817	
303.00	-33.813	-140.428	
304.00	-33.908	-141.633	
305.00	-34.194	-145.174	
306.00	-34.981	-140.198	
307.00	-35.781	-147.603	
308.00	-37.209	-144.730	
309.00	-38.504	-160.662	
310.00	-40.563	-153.830	
311.00	-41.766	174.087	
312.00	-42.606	171.274	
313.00	-41.893	137.408	
314.00	-41.012	137.636	
315.00	-39.783	119.498	
316.00	-39.084	125.735	
317.00	-38.800	117.348	
318.00	-38.884	125.159	
319.00	-39.313	125.645	
320.00	-40.144	135.051	
321.00	-41.083	140.867	
322.00	-42.278	164.473	
323.00	-42.630	174.463	
324.00	-42.488	-154.379	
325.00	-41.111	-144.208	
326.00	-39.927	-129.091	
327.00	-38.854	-124.326	
328.00	-37.891	-119.326	
329.00	-37.405	-124.195	
330.00	-37.357	-109.397	
331.00	-37.712	-123.780	
332.00	-38.424	-111.332	
333.00	-40.007	-120.714	
334.00	-42.335	-108.568	
335.00	-46.075	-123.371	
336.00	-53.562	-136.885	
337.00	-51.469	116.707	
338.00	-45.158	107.285	
339.00	-41.050	97.585	
340.00	-38.415	103.735	
341.00	-36.485	99.545	
342.00	-35.289	105.832	
343.00	-34.338	98.320	
344.00	-33.856	104.423	
345.00	-33.611	94.362	
346.00	-33.734	102.745	
347.00	-33.995	87.174	
348.00	-34.756	106.500	
349.00	-35.746	95.802	
350.00	-37.188	100.986	
351.00	-39.309	99.459	
352.00	-42.101	95.283	
353.00	-46.684	83.231	
354.00	-53.486	42.581	
355.00	-49.512	-23.793	
356.00	-44.649	-49.050	
357.00	-41.125	-49.334	
358.00	-39.068	-56.557	
359.00	-37.782	-57.361	
Frequency	2600.00	MHz	
Channel	test		
Scan Axis name	Azimuth  [deg]		
Scan Axis	Amplitude	Phase	
			
0.00	-36.584	113.746	
1.00	-36.447	127.611	
2.00	-36.688	121.359	
3.00	-37.046	132.767	
4.00	-37.885	130.168	
5.00	-38.910	147.257	
6.00	-40.504	137.378	
7.00	-42.344	156.392	
8.00	-45.606	152.460	
9.00	-48.821	-174.341	
10.00	-48.996	-122.420	
11.00	-45.662	-91.075	
12.00	-42.519	-78.941	
13.00	-39.875	-72.280	
14.00	-38.072	-66.235	
15.00	-36.765	-61.491	
16.00	-35.731	-67.906	
17.00	-35.267	-54.337	
18.00	-34.784	-69.742	
19.00	-34.905	-56.699	
20.00	-35.195	-61.190	
21.00	-35.755	-59.434	
22.00	-36.766	-59.679	
23.00	-38.478	-51.188	
24.00	-40.842	-50.182	
25.00	-44.626	-49.023	
26.00	-52.283	-34.507	
27.00	-54.838	80.708	
28.00	-45.614	104.769	
29.00	-41.180	114.614	
30.00	-38.442	109.511	
31.00	-36.514	120.915	
32.00	-35.382	111.276	
33.00	-34.464	118.486	
34.00	-34.074	115.744	
35.00	-33.962	118.346	
36.00	-34.093	126.151	
37.00	-34.660	120.328	
38.00	-35.554	130.825	
39.00	-36.951	126.001	
40.00	-38.540	139.222	
41.00	-40.145	155.852	
42.00	-41.283	174.593	
43.00	-40.668	-159.191	
44.00	-39.039	-146.214	
45.00	-37.244	-133.991	
46.00	-35.742	-127.801	
47.00	-34.550	-122.130	
48.00	-33.765	-120.952	
49.00	-33.262	-115.257	
50.00	-33.008	-120.173	
51.00	-32.995	-118.417	
52.00	-33.253	-119.605	
53.00	-33.822	-121.094	
54.00	-34.620	-123.648	
55.00	-35.682	-123.321	
56.00	-37.172	-131.432	
57.00	-38.802	-130.387	
58.00	-41.007	-143.303	
59.00	-43.334	-146.182	
60.00	-46.306	-168.460	
61.00	-48.129	176.721	
62.00	-49.120	155.862	
63.00	-49.606	146.779	
64.00	-49.944	141.034	
65.00	-50.314	150.096	
66.00	-50.051	167.891	
67.00	-48.829	-169.262	
68.00	-45.916	-157.003	
69.00	-43.402	-146.329	
70.00	-40.981	-144.600	
71.00	-39.127	-135.529	
72.00	-37.794	-139.026	
73.00	-36.599	-132.910	
74.00	-35.887	-132.798	
75.00	-35.424	-133.485	
76.00	-35.244	-133.232	
77.00	-35.438	-134.957	
78.00	-35.939	-135.044	
79.00	-36.812	-135.999	
80.00	-38.207	-136.929	
81.00	-40.225	-140.522	
82.00	-43.228	-146.039	
83.00	-48.109	-162.960	
84.00	-51.838	129.975	
85.00	-46.177	88.225	
86.00	-41.776	74.219	
87.00	-38.852	73.814	
88.00	-36.812	66.041	
89.00	-35.360	70.203	
90.00	-34.343	64.333	
91.00	-33.679	69.167	
92.00	-33.260	72.265	
93.00	-33.106	72.146	
94.00	-33.186	71.734	
95.00	-33.538	70.952	
96.00	-34.147	69.532	
97.00	-35.056	70.392	
98.00	-36.340	73.547	
99.00	-37.968	74.710	
100.00	-40.540	76.439	
101.00	-44.277	83.464	
102.00	-51.371	86.964	
103.00	-60.190	-133.524	
104.00	-47.561	-102.438	
105.00	-42.470	-104.727	
106.00	-39.642	-95.293	
107.00	-37.655	-99.877	
108.00	-36.445	-91.336	
109.00	-35.471	-94.589	
110.00	-34.929	-90.796	
111.00	-34.677	-91.495	
112.00	-34.645	-91.785	
113.00	-35.016	-83.937	
114.00	-35.490	-93.637	
115.00	-36.409	-84.890	
116.00	-37.667	-87.259	
117.00	-39.408	-82.234	
118.00	-41.796	-77.638	
119.00	-45.000	-68.600	
120.00	-49.148	-47.255	
121.00	-51.407	6.143	
122.00	-47.883	36.538	
123.00	-44.629	56.636	
124.00	-42.408	53.749	
125.00	-40.909	64.410	
126.00	-40.122	57.220	
127.00	-39.590	65.691	
128.00	-39.707	56.248	
129.00	-39.898	60.642	
130.00	-40.603	55.950	
131.00	-41.730	60.643	
132.00	-43.294	57.481	
133.00	-45.357	61.083	
134.00	-48.500	58.634	
135.00	-53.024	84.328	
136.00	-55.823	127.571	
137.00	-50.918	168.114	
138.00	-47.761	168.704	
139.00	-44.809	178.545	
140.00	-43.039	174.507	
141.00	-41.738	174.361	
142.00	-40.993	162.152	
143.00	-40.432	160.212	
144.00	-39.991	158.121	
145.00	-39.780	160.120	
146.00	-40.063	148.793	
147.00	-40.745	140.699	
148.00	-41.486	133.544	
149.00	-42.794	132.596	
150.00	-44.690	132.372	
151.00	-47.387	124.392	
152.00	-51.364	133.038	
153.00	-57.064	164.101	
154.00	-55.153	-114.174	
155.00	-50.156	-98.102	
156.00	-46.633	-100.343	
157.00	-44.548	-78.969	
158.00	-43.014	-93.582	
159.00	-42.035	-81.151	
160.00	-41.598	-85.161	
161.00	-41.470	-84.731	
162.00	-41.578	-89.151	
163.00	-42.076	-90.250	
164.00	-42.736	-102.241	
165.00	-43.837	-103.192	
166.00	-45.301	-113.732	
167.00	-46.767	-112.868	
168.00	-48.738	-130.862	
169.00	-50.511	-126.970	
170.00	-51.939	-147.869	
171.00	-53.594	-141.726	
172.00	-53.816	-142.507	
173.00	-53.912	-124.275	
174.00	-51.718	-122.034	
175.00	-49.406	-106.056	
176.00	-46.580	-110.658	
177.00	-44.621	-94.427	
178.00	-42.448	-99.774	
179.00	-40.878	-92.870	
180.00	-39.557	-89.844	
181.00	-38.456	-92.077	
182.00	-37.886	-82.784	
183.00	-37.183	-89.324	
184.00	-37.082	-76.878	
185.00	-36.795	-86.121	
186.00	-36.950	-64.599	
187.00	-37.134	-76.677	
188.00	-37.530	-63.407	
189.00	-37.912	-64.315	
190.00	-38.615	-53.916	
191.00	-39.028	-54.179	
192.00	-39.940	-49.844	
193.00	-40.533	-49.773	
194.00	-41.261	-56.497	
195.00	-41.836	-54.107	
196.00	-42.053	-67.602	
197.00	-41.985	-71.731	
198.00	-41.317	-80.249	
199.00	-40.472	-86.536	
200.00	-39.250	-108.398	
201.00	-38.110	-98.693	
202.00	-37.172	-111.772	
203.00	-36.241	-96.697	
204.00	-35.645	-103.084	
205.00	-35.131	-102.432	
206.00	-35.025	-101.179	
207.00	-34.935	-107.596	
208.00	-35.217	-93.199	
209.00	-35.501	-100.843	
210.00	-36.245	-98.887	
211.00	-37.249	-98.132	
212.00	-38.579	-102.224	
213.00	-40.349	-100.314	
214.00	-42.235	-116.782	
215.00	-44.180	-126.611	
216.00	-44.840	-157.695	
217.00	-43.988	-175.650	
218.00	-42.002	174.587	
219.00	-40.309	171.616	
220.00	-38.742	175.784	
221.00	-38.003	163.776	
222.00	-36.927	179.474	
223.00	-36.598	167.219	
224.00	-36.124	-177.954	
225.00	-36.182	173.972	
226.00	-36.115	-169.150	
227.00	-36.648	179.298	
228.00	-36.983	-168.704	
229.00	-38.026	-172.386	
230.00	-38.986	-165.885	
231.00	-40.598	-164.221	
232.00	-42.631	-157.065	
233.00	-45.682	-150.810	
234.00	-50.629	-139.968	
235.00	-60.440	-99.069	
236.00	-54.982	15.863	
237.00	-47.783	5.235	
238.00	-44.820	31.622	
239.00	-42.206	18.204	
240.00	-40.810	31.343	
241.00	-39.751	24.172	
242.00	-39.209	28.090	
243.00	-38.897	24.770	
244.00	-39.033	29.025	
245.00	-39.511	26.838	
246.00	-40.244	30.626	
247.00	-41.096	14.778	
248.00	-43.007	30.837	
249.00	-45.477	27.202	
250.00	-49.845	31.888	
251.00	-59.366	-4.127	
252.00	-55.726	-125.598	
253.00	-47.841	-132.414	
254.00	-44.064	-144.807	
255.00	-41.600	-154.459	
256.00	-39.582	-152.075	
257.00	-38.165	-157.504	
258.00	-36.931	-149.596	
259.00	-36.361	-157.780	
260.00	-35.725	-152.222	
261.00	-35.466	-156.371	
262.00	-35.548	-162.322	
263.00	-35.565	-146.549	
264.00	-36.187	-164.674	
265.00	-36.722	-149.409	
266.00	-37.806	-159.324	
267.00	-39.208	-165.542	
268.00	-40.591	-165.118	
269.00	-43.210	-167.061	
270.00	-46.142	-166.790	
271.00	-51.253	-150.425	
272.00	-57.516	-106.226	
273.00	-53.317	-38.080	
274.00	-47.754	-31.944	
275.00	-45.256	-19.791	
276.00	-42.947	-29.762	
277.00	-42.065	-14.672	
278.00	-40.704	-32.855	
279.00	-40.293	-20.756	
280.00	-39.501	-40.953	
281.00	-39.450	-28.408	
282.00	-38.850	-54.438	
283.00	-39.038	-41.383	
284.00	-38.434	-61.608	
285.00	-38.450	-55.120	
286.00	-37.915	-78.736	
287.00	-38.281	-69.557	
288.00	-37.959	-82.714	
289.00	-38.399	-73.258	
290.00	-38.664	-83.737	
291.00	-39.631	-63.002	
292.00	-40.234	-73.810	
293.00	-41.316	-45.656	
294.00	-41.733	-48.273	
295.00	-41.711	-22.640	
296.00	-40.950	-7.975	
297.00	-39.681	4.952	
298.00	-38.381	11.909	
299.00	-37.283	24.212	
300.00	-36.363	26.686	
301.00	-35.761	30.337	
302.00	-35.376	33.652	
303.00	-35.432	36.254	
304.00	-35.676	33.526	
305.00	-36.253	29.525	
306.00	-37.334	33.246	
307.00	-38.458	22.478	
308.00	-40.143	21.409	
309.00	-41.313	-2.839	
310.00	-42.816	-4.618	
311.00	-41.851	-39.706	
312.00	-41.168	-38.842	
313.00	-39.450	-63.866	
314.00	-38.657	-55.088	
315.00	-37.632	-69.953	
316.00	-37.495	-59.153	
317.00	-37.450	-67.848	
318.00	-37.887	-57.824	
319.00	-38.497	-56.362	
320.00	-39.566	-45.243	
321.00	-40.775	-39.012	
322.00	-42.329	-15.143	
323.00	-42.840	-6.367	
324.00	-42.975	28.345	
325.00	-42.295	36.408	
326.00	-41.243	53.740	
327.00	-40.441	59.550	
328.00	-39.966	65.793	
329.00	-39.936	61.254	
330.00	-40.546	79.384	
331.00	-41.643	64.956	
332.00	-43.884	82.674	
333.00	-47.280	78.979	
334.00	-54.151	118.807	
335.00	-55.182	-139.406	
336.00	-46.932	-105.929	
337.00	-42.516	-111.252	
338.00	-40.046	-92.330	
339.00	-38.026	-95.546	
340.00	-36.788	-84.108	
341.00	-35.865	-85.126	
342.00	-35.287	-76.136	
343.00	-35.056	-82.401	
344.00	-35.165	-72.844	
345.00	-35.566	-81.481	
346.00	-36.205	-69.720	
347.00	-37.268	-83.824	
348.00	-38.802	-58.302	
349.00	-40.867	-65.951	
350.00	-43.751	-49.582	
351.00	-48.651	-31.478	
352.00	-53.125	14.772	
353.00	-50.334	77.134	
354.00	-45.201	92.352	
355.00	-42.298	112.841	
356.00	-40.061	111.715	
357.00	-38.754	121.532	
358.00	-37.611	121.961	
359.00	-37.097	123.984	
Frequency	2625.00	MHz	
Channel	test		
Scan Axis name	Azimuth  [deg]		
Scan Axis	Amplitude	Phase	
			
0.00	-40.043	-34.942	
1.00	-38.873	-18.273	
2.00	-38.316	-24.531	
3.00	-37.753	-13.423	
4.00	-37.681	-17.513	
5.00	-37.897	-2.574	
6.00	-38.397	-16.374	
7.00	-39.263	-3.697	
8.00	-40.479	-18.849	
9.00	-42.599	-13.274	
10.00	-45.289	-6.478	
11.00	-50.033	9.154	
12.00	-55.552	54.071	
13.00	-51.217	117.883	
14.00	-45.993	134.933	
15.00	-42.978	139.185	
16.00	-40.738	130.621	
17.00	-39.454	144.549	
18.00	-38.324	125.109	
19.00	-37.767	138.323	
20.00	-37.606	129.633	
21.00	-37.639	130.671	
22.00	-38.003	127.153	
23.00	-38.758	135.054	
24.00	-39.912	131.240	
25.00	-41.861	127.284	
26.00	-44.578	126.701	
27.00	-49.512	127.683	
28.00	-62.702	163.529	
29.00	-53.505	-70.513	
30.00	-46.352	-73.510	
31.00	-42.858	-60.823	
32.00	-40.616	-74.830	
33.00	-39.073	-68.952	
34.00	-38.127	-74.470	
35.00	-37.621	-73.852	
36.00	-37.679	-68.780	
37.00	-38.068	-79.824	
38.00	-39.100	-73.712	
39.00	-40.517	-86.274	
40.00	-43.182	-84.763	
41.00	-47.560	-85.059	
42.00	-58.052	-101.805	
43.00	-53.720	95.767	
44.00	-45.655	85.668	
45.00	-41.619	83.948	
46.00	-39.119	81.816	
47.00	-37.464	81.535	
48.00	-36.260	79.378	
49.00	-35.709	80.525	
50.00	-35.413	73.588	
51.00	-35.461	72.845	
52.00	-35.897	69.733	
53.00	-36.625	65.375	
54.00	-37.949	60.829	
55.00	-39.655	57.399	
56.00	-41.928	41.674	
57.00	-44.533	31.515	
58.00	-46.955	-3.455	
59.00	-46.983	-35.908	
60.00	-44.992	-67.948	
61.00	-42.906	-79.473	
62.00	-41.687	-84.514	
63.00	-40.819	-87.135	
64.00	-40.850	-91.703	
65.00	-41.231	-91.303	
66.00	-42.323	-89.532	
67.00	-44.041	-85.872	
68.00	-47.010	-78.772	
69.00	-50.628	-50.754	
70.00	-50.902	-3.304	
71.00	-47.090	28.401	
72.00	-43.861	36.904	
73.00	-41.572	47.084	
74.00	-40.129	49.881	
75.00	-39.153	50.755	
76.00	-38.892	52.007	
77.00	-39.000	51.680	
78.00	-39.762	52.827	
79.00	-41.096	54.205	
80.00	-43.114	56.838	
81.00	-47.032	61.223	
82.00	-55.322	82.255	
83.00	-55.227	-152.562	
84.00	-46.172	-140.266	
85.00	-41.948	-132.531	
86.00	-39.102	-133.195	
87.00	-37.248	-128.649	
88.00	-35.870	-132.756	
89.00	-34.954	-127.128	
90.00	-34.337	-131.693	
91.00	-34.097	-126.698	
92.00	-34.123	-123.038	
93.00	-34.343	-124.138	
94.00	-34.863	-124.420	
95.00	-35.703	-127.046	
96.00	-36.890	-129.926	
97.00	-38.636	-131.411	
98.00	-40.871	-133.078	
99.00	-44.035	-142.501	
100.00	-48.612	-163.354	
101.00	-49.962	145.233	
102.00	-46.059	109.740	
103.00	-42.480	97.495	
104.00	-39.898	93.366	
105.00	-38.100	85.993	
106.00	-36.801	91.970	
107.00	-35.997	86.113	
108.00	-35.395	93.830	
109.00	-35.148	90.194	
110.00	-35.151	93.488	
111.00	-35.412	92.856	
112.00	-35.978	91.455	
113.00	-36.917	99.915	
114.00	-37.981	89.870	
115.00	-39.952	98.374	
116.00	-42.166	95.657	
117.00	-46.293	99.867	
118.00	-52.788	114.066	
119.00	-61.234	-132.800	
120.00	-49.733	-103.250	
121.00	-45.193	-96.376	
122.00	-42.455	-98.516	
123.00	-40.772	-94.091	
124.00	-39.511	-102.505	
125.00	-38.832	-95.444	
126.00	-38.647	-103.999	
127.00	-38.652	-97.914	
128.00	-39.064	-108.382	
129.00	-39.773	-103.646	
130.00	-40.838	-109.431	
131.00	-42.373	-106.073	
132.00	-44.508	-107.591	
133.00	-47.272	-107.120	
134.00	-51.756	-105.081	
135.00	-57.567	-66.139	
136.00	-55.273	-11.828	
137.00	-50.389	10.609	
138.00	-47.597	2.248	
139.00	-45.017	12.253	
140.00	-43.651	4.597	
141.00	-42.536	2.642	
142.00	-41.877	-12.087	
143.00	-41.367	-13.863	
144.00	-41.258	-17.595	
145.00	-41.273	-16.417	
146.00	-41.584	-27.941	
147.00	-42.224	-36.478	
148.00	-43.199	-44.147	
149.00	-44.705	-44.998	
150.00	-47.160	-46.478	
151.00	-50.929	-53.368	
152.00	-57.433	-34.607	
153.00	-59.058	54.683	
154.00	-52.798	93.343	
155.00	-48.341	84.263	
156.00	-45.401	73.730	
157.00	-44.134	103.986	
158.00	-42.831	83.091	
159.00	-42.482	98.580	
160.00	-42.092	93.900	
161.00	-42.706	93.924	
162.00	-43.176	90.264	
163.00	-44.347	91.537	
164.00	-45.859	72.353	
165.00	-48.243	74.633	
166.00	-50.360	61.370	
167.00	-55.620	69.637	
168.00	-59.853	31.545	
169.00	-75.525	5.209	
170.00	-76.020	-41.629	
171.00	-64.837	167.608	
172.00	-58.714	148.380	
173.00	-53.376	146.921	
174.00	-49.803	107.714	
175.00	-46.454	117.232	
176.00	-43.894	90.030	
177.00	-41.760	109.694	
178.00	-40.270	95.623	
179.00	-38.912	101.764	
180.00	-37.878	99.584	
181.00	-37.160	95.359	
182.00	-36.738	103.417	
183.00	-36.493	95.951	
184.00	-36.505	106.701	
185.00	-36.793	96.142	
186.00	-37.352	115.810	
187.00	-37.890	105.315	
188.00	-39.048	116.645	
189.00	-40.054	115.784	
190.00	-41.630	126.862	
191.00	-43.029	126.168	
192.00	-44.531	133.963	
193.00	-46.522	133.496	
194.00	-47.931	131.828	
195.00	-49.350	131.395	
196.00	-49.897	114.805	
197.00	-49.465	99.224	
198.00	-47.469	89.687	
199.00	-44.975	81.731	
200.00	-43.138	63.149	
201.00	-41.291	76.189	
202.00	-40.152	64.201	
203.00	-38.947	82.524	
204.00	-38.259	77.282	
205.00	-37.855	79.314	
206.00	-37.573	81.920	
207.00	-37.899	76.238	
208.00	-38.262	90.980	
209.00	-39.302	83.171	
210.00	-40.514	84.286	
211.00	-42.250	84.476	
212.00	-45.154	75.316	
213.00	-47.829	62.031	
214.00	-49.988	18.698	
215.00	-47.299	-5.646	
216.00	-44.030	-32.366	
217.00	-41.604	-31.973	
218.00	-39.892	-29.682	
219.00	-38.585	-22.180	
220.00	-37.842	-13.902	
221.00	-37.396	-23.021	
222.00	-37.060	-4.503	
223.00	-37.187	-14.604	
224.00	-37.482	2.376	
225.00	-38.200	-4.036	
226.00	-38.983	16.140	
227.00	-40.441	7.095	
228.00	-42.171	23.877	
229.00	-44.822	30.859	
230.00	-48.485	48.494	
231.00	-50.983	91.122	
232.00	-50.082	138.642	
233.00	-46.392	165.908	
234.00	-43.739	-171.630	
235.00	-41.555	-171.129	
236.00	-40.003	-153.518	
237.00	-38.693	-161.131	
238.00	-38.002	-139.967	
239.00	-37.463	-147.943	
240.00	-37.264	-133.543	
241.00	-37.355	-136.372	
242.00	-37.392	-130.086	
243.00	-38.087	-128.668	
244.00	-38.829	-120.309	
245.00	-39.941	-117.171	
246.00	-41.573	-106.532	
247.00	-43.691	-112.328	
248.00	-46.369	-76.954	
249.00	-48.912	-43.259	
250.00	-48.001	5.047	
251.00	-45.029	27.144	
252.00	-42.051	46.845	
253.00	-39.952	55.268	
254.00	-38.490	49.515	
255.00	-37.319	43.264	
256.00	-36.518	51.040	
257.00	-35.967	49.359	
258.00	-35.921	61.208	
259.00	-35.746	54.559	
260.00	-36.108	63.605	
261.00	-36.760	61.346	
262.00	-37.541	57.354	
263.00	-38.963	77.730	
264.00	-40.465	59.488	
265.00	-43.009	80.068	
266.00	-47.062	74.778	
267.00	-53.936	78.665	
268.00	-57.255	-177.375	
269.00	-49.319	-151.320	
270.00	-44.650	-146.360	
271.00	-41.838	-135.234	
272.00	-40.423	-146.076	
273.00	-39.159	-136.164	
274.00	-38.364	-146.027	
275.00	-37.744	-135.848	
276.00	-37.734	-147.201	
277.00	-37.754	-132.181	
278.00	-38.311	-150.083	
279.00	-38.969	-138.662	
280.00	-40.013	-160.105	
281.00	-41.519	-149.734	
282.00	-42.513	179.559	
283.00	-44.235	-179.012	
284.00	-44.454	148.039	
285.00	-44.477	137.299	
286.00	-43.493	107.648	
287.00	-42.614	106.165	
288.00	-42.178	89.470	
289.00	-41.731	93.631	
290.00	-42.132	76.479	
291.00	-42.394	91.454	
292.00	-43.920	73.933	
293.00	-45.656	86.503	
294.00	-49.574	72.857	
295.00	-57.883	71.692	
296.00	-61.072	-77.772	
297.00	-50.552	-92.676	
298.00	-45.964	-96.539	
299.00	-43.321	-92.011	
300.00	-41.524	-92.905	
301.00	-40.536	-90.712	
302.00	-40.097	-88.455	
303.00	-40.175	-84.586	
304.00	-40.552	-83.236	
305.00	-41.606	-81.003	
306.00	-42.998	-68.171	
307.00	-45.536	-61.280	
308.00	-48.190	-32.038	
309.00	-49.073	2.431	
310.00	-46.811	51.715	
311.00	-43.662	55.526	
312.00	-41.563	81.898	
313.00	-39.844	71.866	
314.00	-38.838	91.908	
315.00	-38.330	83.925	
316.00	-38.223	99.068	
317.00	-38.481	93.015	
318.00	-39.387	104.308	
319.00	-40.740	105.319	
320.00	-42.977	113.439	
321.00	-46.376	116.644	
322.00	-53.553	147.750	
323.00	-56.365	-134.636	
324.00	-48.737	-77.409	
325.00	-43.924	-77.293	
326.00	-41.265	-65.806	
327.00	-39.630	-65.186	
328.00	-38.229	-60.955	
329.00	-37.582	-67.580	
330.00	-37.291	-49.718	
331.00	-37.476	-63.747	
332.00	-37.725	-44.723	
333.00	-38.564	-49.373	
334.00	-39.661	-28.438	
335.00	-41.599	-28.644	
336.00	-43.320	-1.277	
337.00	-45.824	7.015	
338.00	-46.671	52.643	
339.00	-45.977	81.044	
340.00	-43.674	111.268	
341.00	-41.496	124.399	
342.00	-39.701	140.393	
343.00	-38.487	141.392	
344.00	-37.507	153.826	
345.00	-36.964	149.231	
346.00	-36.495	163.471	
347.00	-36.324	152.310	
348.00	-36.495	177.853	
349.00	-36.723	171.471	
350.00	-37.356	-175.833	
351.00	-38.287	-170.463	
352.00	-39.529	-163.307	
353.00	-41.103	-155.279	
354.00	-43.318	-145.486	
355.00	-45.327	-115.868	
356.00	-46.799	-94.502	
357.00	-45.788	-59.148	
358.00	-43.882	-40.325	
359.00	-42.025	-30.469	
Frequency	2650.00	MHz	
Channel	test		
Scan Axis name	Azimuth  [deg]		
Scan Axis	Amplitude	Phase	
			
0.00	-38.627	-179.142	
1.00	-38.276	-169.525	
2.00	-38.427	-179.594	
3.00	-38.731	-173.270	
4.00	-39.507	179.004	
5.00	-40.527	-172.140	
6.00	-42.250	166.407	
7.00	-44.108	168.810	
8.00	-46.560	134.681	
9.00	-48.240	118.433	
10.00	-48.152	86.079	
11.00	-46.210	66.026	
12.00	-44.354	47.136	
13.00	-42.454	38.655	
14.00	-41.339	31.207	
15.00	-40.689	26.726	
16.00	-40.286	11.205	
17.00	-40.256	20.466	
18.00	-40.493	-4.371	
19.00	-41.221	3.291	
20.00	-42.092	-10.713	
21.00	-43.439	-19.714	
22.00	-44.872	-34.342	
23.00	-46.723	-46.263	
24.00	-47.986	-76.061	
25.00	-47.310	-107.945	
26.00	-45.368	-132.777	
27.00	-43.544	-147.255	
28.00	-41.746	-160.188	
29.00	-40.466	-163.259	
30.00	-39.501	-177.915	
31.00	-38.816	-171.752	
32.00	-38.633	172.735	
33.00	-38.529	175.840	
34.00	-38.752	170.178	
35.00	-39.302	169.211	
36.00	-40.341	177.482	
37.00	-41.704	170.084	
38.00	-43.692	-174.315	
39.00	-46.241	-166.153	
40.00	-46.920	-132.447	
41.00	-44.783	-101.438	
42.00	-41.925	-91.368	
43.00	-39.462	-81.723	
44.00	-37.435	-84.329	
45.00	-35.993	-82.389	
46.00	-34.840	-80.714	
47.00	-33.944	-80.018	
48.00	-33.433	-79.813	
49.00	-33.087	-78.010	
50.00	-33.081	-82.081	
51.00	-33.259	-81.174	
52.00	-33.719	-81.805	
53.00	-34.460	-81.687	
54.00	-35.602	-82.659	
55.00	-36.868	-77.667	
56.00	-38.773	-80.742	
57.00	-41.034	-68.858	
58.00	-43.991	-63.230	
59.00	-46.801	-36.017	
60.00	-47.500	-11.836	
61.00	-46.292	15.776	
62.00	-44.972	31.069	
63.00	-43.951	39.302	
64.00	-43.661	39.550	
65.00	-43.952	36.981	
66.00	-44.800	33.360	
67.00	-46.306	23.561	
68.00	-48.218	0.479	
69.00	-49.140	-27.792	
70.00	-46.797	-60.011	
71.00	-44.338	-72.525	
72.00	-42.093	-85.999	
73.00	-40.434	-87.084	
74.00	-39.083	-90.467	
75.00	-38.439	-94.163	
76.00	-38.061	-94.121	
77.00	-38.111	-95.186	
78.00	-38.473	-93.375	
79.00	-39.368	-92.129	
80.00	-40.600	-87.250	
81.00	-42.438	-80.578	
82.00	-44.935	-67.432	
83.00	-47.518	-44.091	
84.00	-48.665	-9.873	
85.00	-46.579	26.547	
86.00	-43.955	42.517	
87.00	-41.812	57.231	
88.00	-40.464	58.344	
89.00	-39.356	68.875	
90.00	-38.837	68.688	
91.00	-38.521	78.174	
92.00	-38.547	86.383	
93.00	-38.873	90.586	
94.00	-39.471	95.789	
95.00	-40.295	100.813	
96.00	-41.320	109.624	
97.00	-42.777	120.332	
98.00	-43.945	138.192	
99.00	-45.046	159.490	
100.00	-45.403	-175.379	
101.00	-44.701	-149.562	
102.00	-43.442	-130.223	
103.00	-41.974	-115.858	
104.00	-40.640	-103.346	
105.00	-39.648	-99.537	
106.00	-38.553	-82.807	
107.00	-37.844	-82.135	
108.00	-37.291	-67.874	
109.00	-37.076	-67.043	
110.00	-36.958	-57.888	
111.00	-37.115	-53.891	
112.00	-37.452	-48.315	
113.00	-37.972	-34.543	
114.00	-38.855	-37.415	
115.00	-39.623	-19.325	
116.00	-40.705	-10.305	
117.00	-41.335	8.371	
118.00	-41.783	25.314	
119.00	-41.296	43.141	
120.00	-40.641	57.966	
121.00	-39.521	71.612	
122.00	-38.708	76.425	
123.00	-37.970	88.053	
124.00	-37.509	85.825	
125.00	-37.358	97.938	
126.00	-37.418	93.672	
127.00	-37.782	104.730	
128.00	-38.404	100.424	
129.00	-39.558	108.300	
130.00	-40.887	111.470	
131.00	-42.741	123.411	
132.00	-44.878	134.741	
133.00	-46.518	157.112	
134.00	-46.824	178.714	
135.00	-45.369	-155.822	
136.00	-43.824	-151.135	
137.00	-42.186	-135.258	
138.00	-41.397	-143.926	
139.00	-40.459	-131.350	
140.00	-40.268	-135.444	
141.00	-40.071	-131.605	
142.00	-40.594	-143.716	
143.00	-40.854	-140.332	
144.00	-41.522	-139.018	
145.00	-42.840	-132.883	
146.00	-44.344	-138.714	
147.00	-46.194	-137.295	
148.00	-48.118	-125.046	
149.00	-48.813	-103.536	
150.00	-48.524	-85.980	
151.00	-46.714	-76.773	
152.00	-44.980	-69.931	
153.00	-43.272	-55.439	
154.00	-41.953	-43.178	
155.00	-41.108	-59.799	
156.00	-40.512	-70.434	
157.00	-39.666	-39.524	
158.00	-39.552	-58.717	
159.00	-39.543	-40.977	
160.00	-39.989	-45.035	
161.00	-40.532	-40.932	
162.00	-41.277	-42.154	
163.00	-42.347	-34.049	
164.00	-43.461	-43.675	
165.00	-45.217	-30.918	
166.00	-46.203	-27.809	
167.00	-47.756	-7.795	
168.00	-48.432	-6.952	
169.00	-49.007	17.810	
170.00	-49.162	7.256	
171.00	-48.853	18.957	
172.00	-49.075	10.904	
173.00	-49.252	18.420	
174.00	-48.662	-15.109	
175.00	-48.023	-15.626	
176.00	-47.192	-45.650	
177.00	-45.297	-34.907	
178.00	-44.176	-52.605	
179.00	-42.744	-49.514	
180.00	-42.083	-49.988	
181.00	-41.447	-54.186	
182.00	-41.113	-43.252	
183.00	-40.937	-48.103	
184.00	-40.925	-32.940	
185.00	-41.220	-38.879	
186.00	-41.168	-12.420	
187.00	-41.747	-15.967	
188.00	-41.536	2.952	
189.00	-41.568	10.635	
190.00	-41.113	27.247	
191.00	-40.876	35.110	
192.00	-40.600	42.683	
193.00	-40.529	48.599	
194.00	-40.743	49.288	
195.00	-41.419	59.165	
196.00	-42.055	53.099	
197.00	-43.374	56.530	
198.00	-44.927	54.583	
199.00	-46.881	44.966	
200.00	-48.869	11.895	
201.00	-49.108	0.632	
202.00	-47.901	-35.352	
203.00	-45.801	-30.402	
204.00	-44.010	-42.220	
205.00	-42.479	-43.522	
206.00	-41.984	-41.573	
207.00	-41.022	-45.476	
208.00	-40.824	-27.840	
209.00	-40.631	-31.723	
210.00	-41.138	-25.049	
211.00	-41.730	-15.329	
212.00	-42.596	-8.087	
213.00	-43.953	11.314	
214.00	-45.016	17.758	
215.00	-46.150	43.488	
216.00	-46.975	53.279	
217.00	-47.054	82.706	
218.00	-46.974	106.474	
219.00	-46.031	131.280	
220.00	-45.041	154.642	
221.00	-44.399	158.936	
222.00	-43.605	-172.531	
223.00	-42.893	-171.399	
224.00	-42.573	-147.747	
225.00	-41.990	-146.800	
226.00	-41.602	-121.918	
227.00	-41.500	-126.547	
228.00	-41.518	-105.983	
229.00	-41.603	-103.019	
230.00	-41.812	-87.576	
231.00	-42.409	-75.750	
232.00	-42.467	-60.271	
233.00	-42.988	-41.016	
234.00	-43.040	-17.046	
235.00	-42.545	-7.234	
236.00	-41.589	19.461	
237.00	-40.541	18.531	
238.00	-39.517	43.576	
239.00	-38.496	40.643	
240.00	-37.723	56.808	
241.00	-37.084	56.870	
242.00	-36.856	62.402	
243.00	-36.604	64.909	
244.00	-36.879	71.745	
245.00	-37.221	74.334	
246.00	-38.124	81.088	
247.00	-39.192	71.996	
248.00	-41.295	94.874	
249.00	-44.065	103.047	
250.00	-48.178	135.327	
251.00	-49.843	171.111	
252.00	-46.107	-136.815	
253.00	-42.430	-120.144	
254.00	-40.049	-122.622	
255.00	-38.091	-126.955	
256.00	-36.501	-117.390	
257.00	-35.428	-119.897	
258.00	-34.447	-108.571	
259.00	-34.165	-115.047	
260.00	-33.840	-108.538	
261.00	-34.028	-110.474	
262.00	-34.380	-115.308	
263.00	-34.914	-96.755	
264.00	-35.758	-114.266	
265.00	-37.101	-97.247	
266.00	-38.811	-104.414	
267.00	-41.164	-111.611	
268.00	-44.932	-97.362	
269.00	-49.890	-84.785	
270.00	-52.232	-18.198	
271.00	-47.104	21.984	
272.00	-42.904	25.223	
273.00	-40.597	36.397	
274.00	-38.953	28.014	
275.00	-37.789	38.619	
276.00	-37.108	27.621	
277.00	-36.689	42.743	
278.00	-36.506	25.902	
279.00	-36.441	37.106	
280.00	-36.642	17.998	
281.00	-37.038	30.107	
282.00	-37.406	5.187	
283.00	-38.064	16.450	
284.00	-38.378	-6.127	
285.00	-39.014	-2.210	
286.00	-39.420	-28.824	
287.00	-40.095	-24.131	
288.00	-40.497	-38.827	
289.00	-41.618	-32.795	
290.00	-42.632	-47.808	
291.00	-45.010	-26.716	
292.00	-47.669	-27.890	
293.00	-50.968	16.335	
294.00	-48.422	46.363	
295.00	-44.635	75.964	
296.00	-41.389	83.294	
297.00	-39.004	88.909	
298.00	-37.164	88.869	
299.00	-35.835	97.071	
300.00	-34.800	95.082	
301.00	-34.138	99.501	
302.00	-33.738	100.458	
303.00	-33.590	105.289	
304.00	-33.810	103.689	
305.00	-34.303	103.945	
306.00	-35.251	112.118	
307.00	-36.311	110.811	
308.00	-37.879	120.959	
309.00	-39.923	116.353	
310.00	-42.545	144.018	
311.00	-46.420	139.410	
312.00	-50.305	-170.149	
313.00	-52.163	-141.144	
314.00	-49.885	-90.972	
315.00	-48.003	-85.526	
316.00	-47.308	-62.831	
317.00	-47.518	-59.349	
318.00	-49.486	-34.080	
319.00	-51.710	-5.109	
320.00	-50.799	46.981	
321.00	-46.127	71.452	
322.00	-42.810	96.820	
323.00	-40.235	92.676	
324.00	-37.955	111.481	
325.00	-36.532	108.350	
326.00	-35.479	116.000	
327.00	-34.668	115.326	
328.00	-34.313	118.443	
329.00	-34.306	110.438	
330.00	-34.548	125.995	
331.00	-35.232	109.197	
332.00	-36.061	126.725	
333.00	-37.668	116.460	
334.00	-39.563	131.371	
335.00	-42.948	121.362	
336.00	-48.148	132.311	
337.00	-64.829	28.591	
338.00	-49.960	-23.100	
339.00	-43.511	-29.468	
340.00	-40.382	-19.799	
341.00	-38.167	-22.612	
342.00	-36.850	-13.962	
343.00	-35.756	-21.442	
344.00	-35.434	-12.820	
345.00	-35.235	-23.105	
346.00	-35.447	-11.833	
347.00	-35.735	-27.356	
348.00	-36.738	-4.204	
349.00	-37.707	-14.290	
350.00	-39.507	-4.849	
351.00	-41.656	-5.576	
352.00	-45.221	-5.686	
353.00	-51.494	-15.050	
354.00	-62.333	-99.578	
355.00	-50.699	-157.202	
356.00	-45.600	-165.687	
357.00	-42.589	-164.032	
358.00	-40.730	-165.771	
359.00	-39.622	-168.807	
Frequency	2675.00	MHz	
Channel	test		
Scan Axis name	Azimuth  [deg]		
Scan Axis	Amplitude	Phase	
			
0.00	-38.021	13.039	
1.00	-38.224	28.294	
2.00	-38.580	21.922	
3.00	-39.438	34.054	
4.00	-40.849	30.127	
5.00	-42.788	49.030	
6.00	-45.627	37.669	
7.00	-50.526	62.669	
8.00	-58.982	99.271	
9.00	-51.223	-176.975	
10.00	-45.872	-162.382	
11.00	-42.453	-156.099	
12.00	-40.236	-154.919	
13.00	-38.712	-153.460	
14.00	-37.638	-151.116	
15.00	-36.983	-146.965	
16.00	-36.612	-156.794	
17.00	-36.539	-141.718	
18.00	-36.710	-159.673	
19.00	-37.326	-144.193	
20.00	-38.222	-147.456	
21.00	-39.543	-142.261	
22.00	-41.071	-137.730	
23.00	-43.392	-118.432	
24.00	-45.513	-97.734	
25.00	-46.045	-66.532	
26.00	-43.995	-42.222	
27.00	-41.527	-27.751	
28.00	-39.430	-21.845	
29.00	-37.809	-13.290	
30.00	-36.492	-19.083	
31.00	-35.671	-6.480	
32.00	-35.046	-17.770	
33.00	-34.695	-9.664	
34.00	-34.620	-11.675	
35.00	-34.757	-9.648	
36.00	-35.138	1.033	
37.00	-35.728	-5.891	
38.00	-36.586	8.030	
39.00	-37.421	5.515	
40.00	-38.289	20.406	
41.00	-38.762	37.725	
42.00	-38.528	47.861	
43.00	-37.470	65.495	
44.00	-36.310	69.412	
45.00	-35.068	77.399	
46.00	-34.016	83.699	
47.00	-33.158	87.404	
48.00	-32.495	90.857	
49.00	-32.103	93.886	
50.00	-31.942	91.439	
51.00	-31.985	92.511	
52.00	-32.248	93.238	
53.00	-32.742	92.304	
54.00	-33.507	91.977	
55.00	-34.554	95.109	
56.00	-35.928	88.762	
57.00	-37.600	96.009	
58.00	-39.667	89.153	
59.00	-42.317	96.266	
60.00	-45.679	90.688	
61.00	-50.251	96.116	
62.00	-56.506	109.003	
63.00	-63.860	140.749	
64.00	-66.775	-170.842	
65.00	-72.344	163.725	
66.00	-63.418	100.532	
67.00	-54.562	85.074	
68.00	-49.332	79.094	
69.00	-45.591	79.657	
70.00	-42.685	74.187	
71.00	-40.586	81.534	
72.00	-38.926	75.041	
73.00	-37.678	80.517	
74.00	-36.844	80.087	
75.00	-36.305	79.267	
76.00	-36.094	79.616	
77.00	-36.202	78.616	
78.00	-36.577	79.491	
79.00	-37.407	80.540	
80.00	-38.571	82.652	
81.00	-40.403	84.885	
82.00	-43.015	87.548	
83.00	-47.232	94.001	
84.00	-56.184	109.478	
85.00	-55.821	-117.959	
86.00	-47.442	-102.886	
87.00	-43.626	-93.765	
88.00	-41.036	-93.456	
89.00	-39.351	-86.865	
90.00	-38.230	-88.355	
91.00	-37.437	-80.960	
92.00	-36.997	-73.903	
93.00	-36.837	-72.716	
94.00	-36.948	-68.836	
95.00	-37.329	-67.993	
96.00	-37.971	-64.956	
97.00	-38.838	-61.269	
98.00	-40.206	-53.352	
99.00	-41.950	-47.881	
100.00	-44.222	-37.240	
101.00	-47.681	-16.918	
102.00	-51.271	18.603	
103.00	-50.068	70.411	
104.00	-46.231	99.570	
105.00	-42.963	107.610	
106.00	-40.828	124.926	
107.00	-39.087	122.835	
108.00	-37.862	136.455	
109.00	-37.036	135.076	
110.00	-36.443	141.626	
111.00	-36.193	143.519	
112.00	-36.227	145.479	
113.00	-36.423	156.900	
114.00	-37.077	148.580	
115.00	-37.905	162.689	
116.00	-39.110	163.287	
117.00	-40.476	176.268	
118.00	-42.043	-171.171	
119.00	-43.251	-153.049	
120.00	-43.627	-130.465	
121.00	-43.064	-108.077	
122.00	-41.707	-96.773	
123.00	-40.580	-81.280	
124.00	-39.525	-81.855	
125.00	-38.882	-69.242	
126.00	-38.383	-73.630	
127.00	-38.330	-63.705	
128.00	-38.494	-69.845	
129.00	-38.942	-62.452	
130.00	-39.768	-65.057	
131.00	-40.885	-57.643	
132.00	-42.429	-55.473	
133.00	-44.331	-47.237	
134.00	-46.587	-42.645	
135.00	-48.789	-18.092	
136.00	-49.571	-2.229	
137.00	-47.946	28.994	
138.00	-46.714	27.710	
139.00	-44.956	45.781	
140.00	-44.163	42.955	
141.00	-43.387	46.969	
142.00	-43.229	33.609	
143.00	-43.019	36.181	
144.00	-43.046	33.245	
145.00	-43.255	39.405	
146.00	-43.866	25.524	
147.00	-44.596	20.428	
148.00	-45.660	14.058	
149.00	-46.980	17.866	
150.00	-48.158	26.768	
151.00	-49.590	29.938	
152.00	-50.041	51.196	
153.00	-49.606	76.050	
154.00	-47.596	104.321	
155.00	-46.580	92.778	
156.00	-45.102	89.189	
157.00	-44.139	124.456	
158.00	-43.448	105.397	
159.00	-42.766	127.801	
160.00	-42.639	124.041	
161.00	-42.597	130.596	
162.00	-43.045	128.364	
163.00	-43.683	136.460	
164.00	-44.855	123.716	
165.00	-45.983	133.165	
166.00	-48.094	133.020	
167.00	-49.450	146.482	
168.00	-51.724	147.698	
169.00	-53.126	165.296	
170.00	-55.836	161.394	
171.00	-54.735	169.264	
172.00	-54.236	155.090	
173.00	-52.127	159.632	
174.00	-51.116	124.784	
175.00	-48.135	131.839	
176.00	-46.471	105.180	
177.00	-43.793	127.700	
178.00	-42.410	113.510	
179.00	-40.890	123.567	
180.00	-39.964	123.424	
181.00	-39.343	120.543	
182.00	-38.840	129.462	
183.00	-38.665	124.569	
184.00	-38.619	137.466	
185.00	-38.950	129.080	
186.00	-39.456	153.432	
187.00	-39.934	145.614	
188.00	-40.836	159.162	
189.00	-41.477	163.463	
190.00	-42.543	178.901	
191.00	-43.364	-172.846	
192.00	-44.065	-165.357	
193.00	-44.971	-157.868	
194.00	-45.909	-158.237	
195.00	-46.994	-152.757	
196.00	-48.562	-163.741	
197.00	-50.184	-171.582	
198.00	-50.579	173.879	
199.00	-49.696	149.528	
200.00	-47.764	112.425	
201.00	-45.748	126.028	
202.00	-43.947	107.846	
203.00	-42.735	126.745	
204.00	-41.673	120.299	
205.00	-41.255	121.312	
206.00	-40.917	124.041	
207.00	-41.221	119.450	
208.00	-41.791	138.764	
209.00	-43.008	134.590	
210.00	-44.573	141.913	
211.00	-46.807	151.182	
212.00	-50.848	156.743	
213.00	-56.805	-154.463	
214.00	-55.713	-83.922	
215.00	-49.673	-48.323	
216.00	-46.020	-51.234	
217.00	-43.833	-40.223	
218.00	-42.235	-32.467	
219.00	-41.305	-23.130	
220.00	-40.649	-13.170	
221.00	-40.551	-18.852	
222.00	-40.858	-1.704	
223.00	-41.374	-9.179	
224.00	-42.416	7.975	
225.00	-43.854	2.743	
226.00	-46.170	26.617	
227.00	-48.923	21.181	
228.00	-53.574	59.819	
229.00	-56.704	98.906	
230.00	-51.895	155.865	
231.00	-48.353	174.014	
232.00	-45.361	-171.854	
233.00	-43.629	-161.736	
234.00	-42.160	-149.254	
235.00	-41.162	-150.790	
236.00	-40.370	-135.972	
237.00	-39.721	-142.809	
238.00	-39.388	-125.692	
239.00	-39.039	-131.431	
240.00	-39.041	-118.593	
241.00	-39.119	-119.930	
242.00	-39.490	-114.472	
243.00	-39.836	-114.058	
244.00	-40.798	-106.455	
245.00	-41.683	-106.207	
246.00	-43.409	-97.546	
247.00	-45.186	-106.493	
248.00	-48.898	-78.395	
249.00	-54.481	-62.022	
250.00	-56.599	26.253	
251.00	-50.467	56.671	
252.00	-45.829	77.832	
253.00	-42.871	79.605	
254.00	-40.971	70.368	
255.00	-39.475	61.758	
256.00	-38.262	68.613	
257.00	-37.387	64.893	
258.00	-36.873	76.039	
259.00	-36.570	67.893	
260.00	-36.501	73.448	
261.00	-36.640	69.990	
262.00	-36.964	63.313	
263.00	-37.680	80.108	
264.00	-38.648	60.204	
265.00	-40.012	74.710	
266.00	-41.892	63.485	
267.00	-44.645	47.902	
268.00	-48.368	45.521	
269.00	-55.627	7.577	
270.00	-54.903	-73.046	
271.00	-48.623	-104.608	
272.00	-45.131	-117.657	
273.00	-42.543	-117.182	
274.00	-40.980	-130.044	
275.00	-39.680	-123.667	
276.00	-39.089	-136.345	
277.00	-38.528	-124.694	
278.00	-38.513	-141.988	
279.00	-38.605	-134.322	
280.00	-38.887	-154.314	
281.00	-39.316	-146.747	
282.00	-39.906	-173.393	
283.00	-39.979	-167.542	
284.00	-40.144	167.102	
285.00	-39.780	166.600	
286.00	-39.719	138.466	
287.00	-39.166	143.343	
288.00	-39.134	127.454	
289.00	-39.260	136.018	
290.00	-39.727	120.225	
291.00	-40.775	140.271	
292.00	-42.073	125.407	
293.00	-44.774	153.407	
294.00	-46.686	159.919	
295.00	-47.773	-156.332	
296.00	-44.772	-123.728	
297.00	-41.884	-108.057	
298.00	-39.407	-101.723	
299.00	-37.528	-89.885	
300.00	-36.183	-90.968	
301.00	-35.320	-84.828	
302.00	-34.733	-83.943	
303.00	-34.474	-78.334	
304.00	-34.624	-80.630	
305.00	-35.053	-81.276	
306.00	-35.983	-75.539	
307.00	-37.182	-79.308	
308.00	-39.003	-73.252	
309.00	-41.280	-83.199	
310.00	-44.720	-71.239	
311.00	-50.109	-103.407	
312.00	-54.348	-148.718	
313.00	-48.871	153.752	
314.00	-45.118	159.129	
315.00	-42.757	146.837	
316.00	-41.491	160.786	
317.00	-41.019	156.350	
318.00	-40.920	170.849	
319.00	-41.128	176.660	
320.00	-41.363	-167.634	
321.00	-41.538	-156.977	
322.00	-41.567	-131.339	
323.00	-40.663	-124.232	
324.00	-39.996	-97.352	
325.00	-38.865	-94.555	
326.00	-38.100	-80.966	
327.00	-37.505	-77.692	
328.00	-37.131	-72.480	
329.00	-37.114	-77.869	
330.00	-37.614	-60.169	
331.00	-38.340	-76.381	
332.00	-39.852	-58.390	
333.00	-41.982	-67.034	
334.00	-45.868	-53.074	
335.00	-52.422	-66.977	
336.00	-57.590	177.510	
337.00	-48.209	141.131	
338.00	-42.896	156.713	
339.00	-40.328	151.654	
340.00	-38.376	161.744	
341.00	-37.171	161.204	
342.00	-36.421	170.743	
343.00	-35.982	165.526	
344.00	-35.851	175.345	
345.00	-36.166	166.573	
346.00	-36.696	179.324	
347.00	-37.697	166.561	
348.00	-38.930	-166.821	
349.00	-41.090	-173.067	
350.00	-43.661	-157.767	
351.00	-47.600	-141.148	
352.00	-52.895	-104.565	
353.00	-50.720	-39.886	
354.00	-46.637	-14.257	
355.00	-43.431	7.496	
356.00	-41.258	9.248	
357.00	-39.847	18.432	
358.00	-38.864	21.033	
359.00	-38.424	21.645	
Frequency	2690.00	MHz	
Channel	test		
Scan Axis name	Azimuth  [deg]		
Scan Axis	Amplitude	Phase	
			
0.00	-38.682	127.638	
1.00	-38.862	145.726	
2.00	-39.027	143.269	
3.00	-39.654	157.266	
4.00	-40.600	155.986	
5.00	-41.787	179.356	
6.00	-43.604	171.567	
7.00	-46.067	-160.293	
8.00	-48.840	-155.198	
9.00	-49.178	-107.482	
10.00	-46.517	-76.473	
11.00	-43.612	-57.392	
12.00	-41.401	-51.685	
13.00	-39.764	-45.380	
14.00	-38.551	-40.530	
15.00	-37.608	-35.064	
16.00	-37.108	-44.202	
17.00	-36.804	-27.933	
18.00	-36.761	-46.288	
19.00	-37.018	-30.754	
20.00	-37.430	-35.139	
21.00	-38.239	-30.469	
22.00	-39.140	-28.526	
23.00	-40.465	-13.397	
24.00	-42.150	-4.898	
25.00	-43.712	9.493	
26.00	-44.271	28.443	
27.00	-43.404	50.948	
28.00	-41.745	65.159	
29.00	-40.201	80.385	
30.00	-38.609	77.614	
31.00	-37.455	92.904	
32.00	-36.585	83.076	
33.00	-35.985	91.824	
34.00	-35.614	90.449	
35.00	-35.409	92.062	
36.00	-35.588	102.565	
37.00	-35.816	93.621	
38.00	-36.440	105.647	
39.00	-37.094	99.991	
40.00	-38.037	110.293	
41.00	-38.992	122.425	
42.00	-39.582	129.668	
43.00	-39.755	148.781	
44.00	-39.163	157.255	
45.00	-38.190	169.395	
46.00	-37.124	-179.847	
47.00	-36.265	-174.475	
48.00	-35.514	-167.620	
49.00	-34.955	-164.944	
50.00	-34.661	-165.859	
51.00	-34.663	-164.877	
52.00	-34.888	-164.068	
53.00	-35.374	-165.619	
54.00	-36.166	-167.132	
55.00	-37.282	-166.073	
56.00	-38.655	-175.192	
57.00	-40.753	-173.233	
58.00	-42.993	171.961	
59.00	-45.855	164.356	
60.00	-48.218	129.848	
61.00	-48.395	104.612	
62.00	-47.268	85.887	
63.00	-46.098	79.151	
64.00	-45.541	73.905	
65.00	-45.164	76.391	
66.00	-45.264	82.162	
67.00	-45.565	94.489	
68.00	-45.465	104.618	
69.00	-44.864	123.571	
70.00	-43.513	133.962	
71.00	-42.221	152.293	
72.00	-40.865	154.195	
73.00	-39.844	165.696	
74.00	-39.023	169.501	
75.00	-38.578	171.263	
76.00	-38.489	173.646	
77.00	-38.639	174.235	
78.00	-39.170	175.441	
79.00	-40.310	177.221	
80.00	-41.989	178.585	
81.00	-44.444	178.770	
82.00	-48.828	176.495	
83.00	-58.725	159.556	
84.00	-55.351	29.029	
85.00	-47.618	19.600	
86.00	-43.599	17.478	
87.00	-41.005	19.811	
88.00	-39.224	16.399	
89.00	-37.978	21.787	
90.00	-37.245	18.856	
91.00	-36.699	24.812	
92.00	-36.546	30.800	
93.00	-36.517	30.051	
94.00	-36.868	32.586	
95.00	-37.420	31.335	
96.00	-38.345	32.266	
97.00	-39.574	33.380	
98.00	-41.275	36.661	
99.00	-43.776	36.494	
100.00	-47.458	38.262	
101.00	-54.456	31.917	
102.00	-61.138	-84.635	
103.00	-49.837	-113.356	
104.00	-45.362	-112.636	
105.00	-42.183	-121.378	
106.00	-40.158	-110.393	
107.00	-38.754	-117.763	
108.00	-37.631	-106.405	
109.00	-37.038	-110.760	
110.00	-36.654	-106.389	
111.00	-36.644	-106.292	
112.00	-36.837	-106.181	
113.00	-37.368	-96.483	
114.00	-38.363	-106.803	
115.00	-39.582	-95.769	
116.00	-41.485	-98.554	
117.00	-43.901	-89.396	
118.00	-47.708	-77.383	
119.00	-52.406	-45.240	
120.00	-52.041	13.371	
121.00	-47.778	42.480	
122.00	-44.463	48.002	
123.00	-42.538	56.445	
124.00	-41.033	51.974	
125.00	-40.289	59.610	
126.00	-39.817	52.282	
127.00	-39.866	57.861	
128.00	-40.286	49.103	
129.00	-40.895	52.228	
130.00	-42.172	46.973	
131.00	-43.603	47.630	
132.00	-45.841	40.930	
133.00	-48.793	35.339	
134.00	-52.929	16.831	
135.00	-57.586	-18.831	
136.00	-58.413	-83.339	
137.00	-54.402	-114.844	
138.00	-51.942	-139.424	
139.00	-50.520	-135.037	
140.00	-50.223	-149.664	
141.00	-50.352	-154.113	
142.00	-51.333	176.089	
143.00	-51.550	163.556	
144.00	-52.895	138.527	
145.00	-52.505	122.543	
146.00	-50.712	90.933	
147.00	-49.070	76.329	
148.00	-47.920	58.922	
149.00	-47.108	55.304	
150.00	-47.199	50.736	
151.00	-47.196	39.784	
152.00	-48.393	35.191	
153.00	-49.266	38.474	
154.00	-52.243	37.826	
155.00	-55.364	19.062	
156.00	-63.788	-5.884	
157.00	-62.084	-55.153	
158.00	-58.713	-132.949	
159.00	-54.116	-112.402	
160.00	-52.318	-128.095	
161.00	-51.032	-125.864	
162.00	-50.804	-140.334	
163.00	-51.061	-138.097	
164.00	-52.319	-170.559	
165.00	-52.949	-173.736	
166.00	-53.459	157.936	
167.00	-53.062	152.968	
168.00	-51.952	126.969	
169.00	-50.667	140.144	
170.00	-49.394	114.740	
171.00	-49.667	132.774	
172.00	-49.291	132.432	
173.00	-48.454	164.706	
174.00	-47.672	144.496	
175.00	-46.725	-179.556	
176.00	-45.395	163.281	
177.00	-43.527	-155.620	
178.00	-42.416	-165.648	
179.00	-41.171	-148.113	
180.00	-40.228	-144.799	
181.00	-39.701	-145.439	
182.00	-39.194	-133.075	
183.00	-39.170	-137.303	
184.00	-39.210	-122.631	
185.00	-39.846	-131.517	
186.00	-40.608	-105.832	
187.00	-41.524	-115.160	
188.00	-42.873	-101.963	
189.00	-44.480	-96.775	
190.00	-46.203	-81.729	
191.00	-48.909	-73.647	
192.00	-50.915	-61.135	
193.00	-54.725	-47.424	
194.00	-59.935	-30.932	
195.00	-70.216	-17.103	
196.00	-64.966	131.831	
197.00	-57.757	164.586	
198.00	-53.583	-179.129	
199.00	-50.083	-174.948	
200.00	-47.763	170.484	
201.00	-46.901	-165.073	
202.00	-45.953	-173.420	
203.00	-45.589	-145.885	
204.00	-45.071	-149.038	
205.00	-45.879	-143.489	
206.00	-46.613	-136.038	
207.00	-48.908	-135.482	
208.00	-51.661	-103.547	
209.00	-56.377	-65.734	
210.00	-54.196	-6.865	
211.00	-49.413	21.301	
212.00	-45.670	31.978	
213.00	-43.168	46.237	
214.00	-41.300	42.241	
215.00	-40.112	53.851	
216.00	-39.005	45.620	
217.00	-38.522	54.430	
218.00	-38.270	61.593	
219.00	-38.502	68.344	
220.00	-38.892	77.482	
221.00	-39.712	69.802	
222.00	-41.053	84.409	
223.00	-42.791	73.214	
224.00	-45.962	82.560	
225.00	-50.256	68.995	
226.00	-59.227	32.062	
227.00	-53.953	-50.870	
228.00	-47.658	-60.310	
229.00	-44.534	-66.659	
230.00	-42.182	-63.554	
231.00	-40.798	-62.779	
232.00	-39.661	-56.665	
233.00	-39.031	-50.912	
234.00	-38.568	-39.994	
235.00	-38.619	-43.965	
236.00	-38.734	-27.835	
237.00	-39.023	-32.909	
238.00	-39.189	-13.503	
239.00	-39.506	-15.580	
240.00	-40.015	1.415	
241.00	-40.434	4.981	
242.00	-40.860	15.873	
243.00	-41.341	21.511	
244.00	-42.113	34.551	
245.00	-42.712	41.257	
246.00	-43.569	55.655	
247.00	-44.570	53.584	
248.00	-46.105	82.658	
249.00	-47.422	99.143	
250.00	-48.318	132.203	
251.00	-47.552	148.848	
252.00	-46.172	-178.941	
253.00	-44.286	-170.410	
254.00	-42.433	-173.081	
255.00	-41.066	-177.578	
256.00	-40.057	-166.321	
257.00	-39.184	-168.781	
258.00	-38.714	-155.170	
259.00	-38.484	-162.058	
260.00	-38.256	-155.674	
261.00	-38.528	-157.438	
262.00	-38.870	-162.566	
263.00	-39.534	-144.571	
264.00	-40.516	-162.354	
265.00	-42.109	-146.552	
266.00	-44.318	-155.321	
267.00	-47.492	-166.802	
268.00	-53.311	-159.078	
269.00	-77.098	-110.313	
270.00	-53.121	6.396	
271.00	-47.484	8.496	
272.00	-44.544	3.266	
273.00	-42.356	8.679	
274.00	-40.995	-1.121	
275.00	-39.814	6.615	
276.00	-39.384	-3.275	
277.00	-39.236	8.513	
278.00	-39.374	-4.570	
279.00	-39.925	3.605	
280.00	-40.925	-13.427	
281.00	-42.140	-5.482	
282.00	-43.685	-32.768	
283.00	-44.859	-33.055	
284.00	-45.929	-68.754	
285.00	-45.114	-79.330	
286.00	-44.105	-116.087	
287.00	-42.728	-111.403	
288.00	-41.742	-130.728	
289.00	-41.379	-122.822	
290.00	-41.185	-139.149	
291.00	-41.602	-118.636	
292.00	-42.399	-133.543	
293.00	-44.060	-111.861	
294.00	-46.235	-111.600	
295.00	-48.814	-78.543	
296.00	-48.004	-34.175	
297.00	-45.232	-10.214	
298.00	-42.077	1.659	
299.00	-39.831	15.479	
300.00	-38.037	14.671	
301.00	-36.920	22.150	
302.00	-36.166	21.512	
303.00	-35.745	28.248	
304.00	-35.860	24.834	
305.00	-36.224	24.172	
306.00	-37.027	27.360	
307.00	-38.184	22.986	
308.00	-39.957	24.537	
309.00	-42.052	11.849	
310.00	-44.868	15.262	
311.00	-47.650	-24.870	
312.00	-47.193	-43.326	
313.00	-45.466	-79.858	
314.00	-43.184	-75.469	
315.00	-41.981	-91.819	
316.00	-41.028	-79.469	
317.00	-40.931	-86.830	
318.00	-41.146	-73.559	
319.00	-41.656	-70.606	
320.00	-42.644	-56.449	
321.00	-43.782	-46.059	
322.00	-44.364	-16.243	
323.00	-44.201	-4.107	
324.00	-43.095	26.813	
325.00	-41.741	33.146	
326.00	-40.623	47.710	
327.00	-39.900	52.377	
328.00	-39.270	58.969	
329.00	-39.217	54.780	
330.00	-39.767	73.819	
331.00	-40.454	60.126	
332.00	-42.013	82.496	
333.00	-44.304	80.712	
334.00	-48.097	111.959	
335.00	-51.625	137.872	
336.00	-50.527	-146.134	
337.00	-46.327	-136.009	
338.00	-42.692	-103.741	
339.00	-40.813	-103.187	
340.00	-39.195	-88.819	
341.00	-38.253	-86.123	
342.00	-37.645	-74.531	
343.00	-37.400	-76.829	
344.00	-37.485	-64.686	
345.00	-37.880	-69.419	
346.00	-38.429	-53.630	
347.00	-39.535	-60.001	
348.00	-40.384	-29.729	
349.00	-41.885	-26.617	
350.00	-43.365	-2.029	
351.00	-44.019	18.902	
352.00	-44.186	43.938	
353.00	-43.247	61.583	
354.00	-42.556	79.431	
355.00	-41.521	100.798	
356.00	-40.484	107.428	
357.00	-39.854	120.338	
358.00	-39.358	127.746	
359.00	-39.112	129.988	
