Test Title:	Alpha Wireless Indoor Range						
Date:	14/12/2017						
Time:	15:17						
Operator Name:	FL						
Comment:	Axis 1 180.2
Axis 2 349.9						
Caib. File Name:	C:\Program Files\Midas 2.01d\Calibration Files\test sigma 180900.cal						
							
[Scan Axis] Name: 	Azimuth  [deg]Start: 	0.000000	Stop	359.000000	Increment	1.000000[Step Axis] Name: 	Start: 	0.000000	Stop	0.000000	Increment	0.000000[Tert] Name: 	None [Forth] Name: 	None  [ Freq.]  (List) 	MHz.	2496.000000	2500.000000	2525.000000	2550.000000	2575.000000	2600.000000	2625.000000	2650.000000	2675.000000	2690.000000
 [Switch]  	None [Channel]  	test			 [ Beam] 	None			
Database:			
First Question			
2nd			
3rd			
4th			
			
Frequency	2496.00	MHz	
Channel	test		
Scan Axis name	Azimuth  [deg]		
Scan Axis	Amplitude	Phase	
			
0.00	-23.309	-79.558	
1.00	-22.371	-118.985	
2.00	-21.677	-109.857	
3.00	-21.302	-128.569	
4.00	-21.126	-114.192	
5.00	-21.266	-124.570	
6.00	-21.634	-114.432	
7.00	-22.352	-130.893	
8.00	-23.357	-131.139	
9.00	-24.687	-121.512	
10.00	-26.673	-122.343	
11.00	-29.240	-109.515	
12.00	-32.587	-112.686	
13.00	-34.508	-63.854	
14.00	-32.191	-19.673	
15.00	-28.828	-2.268	
16.00	-26.371	26.459	
17.00	-24.394	-5.220	
18.00	-23.037	18.541	
19.00	-22.006	-6.859	
20.00	-21.375	21.719	
21.00	-20.887	2.809	
22.00	-20.692	22.624	
23.00	-20.656	15.095	
24.00	-20.893	30.763	
25.00	-21.241	22.574	
26.00	-21.818	41.757	
27.00	-22.488	37.626	
28.00	-23.270	57.720	
29.00	-23.971	52.044	
30.00	-24.564	73.787	
31.00	-24.816	76.641	
32.00	-24.687	66.997	
33.00	-24.173	74.702	
34.00	-23.525	88.088	
35.00	-22.769	112.164	
36.00	-22.036	126.707	
37.00	-21.384	138.259	
38.00	-20.925	121.515	
39.00	-20.572	113.498	
40.00	-20.346	125.697	
41.00	-20.205	93.507	
42.00	-20.132	145.480	
43.00	-20.195	125.868	
44.00	-20.226	138.463	
45.00	-20.431	130.718	
46.00	-20.600	122.217	
47.00	-20.825	129.139	
48.00	-21.003	120.278	
49.00	-21.135	150.088	
50.00	-21.294	125.752	
51.00	-21.396	148.435	
52.00	-21.367	129.713	
53.00	-21.330	159.309	
54.00	-21.218	150.349	
55.00	-21.055	165.838	
56.00	-20.858	150.733	
57.00	-20.645	160.804	
58.00	-20.452	156.486	
59.00	-20.304	174.359	
60.00	-20.087	164.545	
61.00	-19.954	174.434	
62.00	-19.831	166.080	
63.00	-19.737	160.377	
64.00	-19.719	175.959	
65.00	-19.702	160.792	
66.00	-19.749	164.829	
67.00	-19.817	149.460	
68.00	-19.961	153.275	
69.00	-20.135	166.379	
70.00	-20.313	153.445	
71.00	-20.555	165.306	
72.00	-20.798	150.418	
73.00	-21.097	177.842	
74.00	-21.347	143.631	
75.00	-21.600	169.835	
76.00	-21.788	139.078	
77.00	-21.938	155.694	
78.00	-21.983	136.789	
79.00	-21.962	133.520	
80.00	-21.852	118.773	
81.00	-21.720	110.076	
82.00	-21.511	111.608	
83.00	-21.289	109.570	
84.00	-21.053	96.106	
85.00	-20.913	101.706	
86.00	-20.754	91.302	
87.00	-20.713	101.485	
88.00	-20.713	85.744	
89.00	-20.814	91.119	
90.00	-21.038	78.227	
91.00	-21.362	68.136	
92.00	-21.787	73.760	
93.00	-22.319	57.083	
94.00	-22.916	57.693	
95.00	-23.543	32.876	
96.00	-24.080	36.552	
97.00	-24.409	16.245	
98.00	-24.380	13.724	
99.00	-24.062	-12.180	
100.00	-23.472	-16.024	
101.00	-22.777	-30.247	
102.00	-22.067	-33.742	
103.00	-21.456	-34.376	
104.00	-20.980	-40.856	
105.00	-20.623	-48.467	
106.00	-20.509	-56.418	
107.00	-20.543	-50.814	
108.00	-20.829	-53.820	
109.00	-21.298	-59.790	
110.00	-22.063	-65.405	
111.00	-23.137	-71.254	
112.00	-24.621	-74.458	
113.00	-26.613	-79.230	
114.00	-29.194	-102.696	
115.00	-32.040	-113.579	
116.00	-32.578	-169.781	
117.00	-30.037	162.858	
118.00	-27.235	153.441	
119.00	-25.069	146.123	
120.00	-23.402	128.709	
121.00	-22.206	126.181	
122.00	-21.421	133.535	
123.00	-20.915	124.930	
124.00	-20.677	117.066	
125.00	-20.728	121.856	
126.00	-21.044	126.479	
127.00	-21.646	111.567	
128.00	-22.604	123.250	
129.00	-23.873	120.767	
130.00	-25.713	130.380	
131.00	-28.110	139.191	
132.00	-31.037	152.385	
133.00	-32.815	-168.896	
134.00	-31.026	-143.395	
135.00	-28.131	-112.232	
136.00	-25.756	-118.445	
137.00	-23.985	-102.196	
138.00	-22.623	-132.989	
139.00	-21.708	-108.084	
140.00	-21.041	-122.634	
141.00	-20.641	-107.573	
142.00	-20.502	-104.187	
143.00	-20.555	-108.526	
144.00	-20.809	-93.221	
145.00	-21.270	-99.818	
146.00	-21.831	-78.492	
147.00	-22.558	-83.933	
148.00	-23.285	-65.373	
149.00	-24.008	-65.170	
150.00	-24.463	-46.959	
151.00	-24.559	-40.958	
152.00	-24.221	-30.133	
153.00	-23.616	-18.523	
154.00	-22.892	-11.791	
155.00	-22.197	-3.171	
156.00	-21.579	10.908	
157.00	-21.054	2.770	
158.00	-20.666	6.955	
159.00	-20.390	6.235	
160.00	-20.238	16.738	
161.00	-20.228	16.916	
162.00	-20.298	12.740	
163.00	-20.492	27.384	
164.00	-20.703	18.257	
165.00	-21.034	37.661	
166.00	-21.337	28.137	
167.00	-21.659	42.461	
168.00	-21.918	36.642	
169.00	-22.124	43.585	
170.00	-22.203	43.644	
171.00	-22.162	40.816	
172.00	-22.049	57.560	
173.00	-21.819	54.286	
174.00	-21.512	72.165	
175.00	-21.175	66.290	
176.00	-20.848	77.924	
177.00	-20.498	68.649	
178.00	-20.152	78.227	
179.00	-19.874	71.430	
180.00	-19.636	80.678	
181.00	-19.446	71.987	
182.00	-19.288	82.264	
183.00	-19.196	68.576	
184.00	-19.177	77.694	
185.00	-19.202	70.129	
186.00	-19.280	73.967	
187.00	-19.417	74.622	
188.00	-19.626	74.386	
189.00	-19.863	71.028	
190.00	-20.200	74.068	
191.00	-20.515	68.430	
192.00	-20.916	72.499	
193.00	-21.289	65.568	
194.00	-21.710	65.143	
195.00	-22.081	59.235	
196.00	-22.399	57.275	
197.00	-22.655	57.378	
198.00	-22.770	49.926	
199.00	-22.764	47.748	
200.00	-22.651	40.550	
201.00	-22.438	39.575	
202.00	-22.152	36.911	
203.00	-21.854	32.927	
204.00	-21.537	29.546	
205.00	-21.262	27.833	
206.00	-21.012	24.658	
207.00	-20.907	29.275	
208.00	-20.825	18.409	
209.00	-20.928	30.083	
210.00	-21.080	5.807	
211.00	-21.421	31.525	
212.00	-21.802	2.217	
213.00	-22.393	18.968	
214.00	-23.014	-11.351	
215.00	-23.764	-0.418	
216.00	-24.414	-10.297	
217.00	-24.884	-14.308	
218.00	-24.982	-36.763	
219.00	-24.686	-56.582	
220.00	-24.136	-58.298	
221.00	-23.382	-81.566	
222.00	-22.635	-75.907	
223.00	-21.950	-94.102	
224.00	-21.440	-97.748	
225.00	-21.084	-117.705	
226.00	-20.927	-107.754	
227.00	-20.962	-120.568	
228.00	-21.201	-107.583	
229.00	-21.695	-119.195	
230.00	-22.478	-120.853	
231.00	-23.562	-112.675	
232.00	-25.025	-133.062	
233.00	-27.010	-134.189	
234.00	-29.405	-145.157	
235.00	-31.841	-156.139	
236.00	-31.831	166.687	
237.00	-29.505	142.386	
238.00	-26.932	124.645	
239.00	-24.853	106.795	
240.00	-23.334	115.427	
241.00	-22.165	92.185	
242.00	-21.425	107.976	
243.00	-20.904	93.932	
244.00	-20.723	106.935	
245.00	-20.788	112.295	
246.00	-21.121	104.966	
247.00	-21.759	114.281	
248.00	-22.626	88.453	
249.00	-23.944	106.343	
250.00	-25.829	108.412	
251.00	-28.572	141.225	
252.00	-32.082	166.099	
253.00	-34.567	-145.606	
254.00	-32.211	-108.708	
255.00	-28.591	-84.364	
256.00	-25.952	-71.217	
257.00	-24.019	-66.489	
258.00	-22.625	-72.251	
259.00	-21.621	-73.054	
260.00	-20.892	-57.449	
261.00	-20.457	-58.335	
262.00	-20.257	-53.982	
263.00	-20.215	-54.895	
264.00	-20.413	-38.431	
265.00	-20.752	-30.469	
266.00	-21.277	-30.875	
267.00	-21.956	-15.034	
268.00	-22.704	-15.949	
269.00	-23.482	3.860	
270.00	-24.076	8.484	
271.00	-24.415	28.216	
272.00	-24.290	35.333	
273.00	-23.838	45.418	
274.00	-23.164	57.204	
275.00	-22.404	59.120	
276.00	-21.688	72.662	
277.00	-21.107	68.164	
278.00	-20.603	84.669	
279.00	-20.247	89.073	
280.00	-19.948	82.619	
281.00	-19.828	95.709	
282.00	-19.770	83.755	
283.00	-19.814	105.472	
284.00	-19.951	93.876	
285.00	-20.122	114.419	
286.00	-20.345	103.979	
287.00	-20.601	112.193	
288.00	-20.843	126.971	
289.00	-21.035	128.616	
290.00	-21.201	128.353	
291.00	-21.272	131.530	
292.00	-21.234	143.461	
293.00	-21.176	144.127	
294.00	-21.069	138.694	
295.00	-20.888	161.038	
296.00	-20.658	139.951	
297.00	-20.451	169.564	
298.00	-20.218	156.343	
299.00	-20.066	176.739	
300.00	-19.894	157.604	
301.00	-19.751	-177.042	
302.00	-19.611	147.444	
303.00	-19.574	-173.225	
304.00	-19.542	165.763	
305.00	-19.561	178.150	
306.00	-19.578	-171.529	
307.00	-19.710	-174.958	
308.00	-19.797	-170.901	
309.00	-19.915	-170.923	
310.00	-20.026	-161.248	
311.00	-20.183	-169.059	
312.00	-20.326	-156.198	
313.00	-20.442	166.032	
314.00	-20.625	-140.254	
315.00	-20.696	174.693	
316.00	-20.833	-147.618	
317.00	-20.829	177.561	
318.00	-20.816	-170.944	
319.00	-20.763	-176.213	
320.00	-20.617	172.777	
321.00	-20.500	-174.970	
322.00	-20.309	170.852	
323.00	-20.141	178.663	
324.00	-19.967	160.801	
325.00	-19.842	170.835	
326.00	-19.793	159.363	
327.00	-19.781	162.142	
328.00	-19.893	158.877	
329.00	-20.076	155.899	
330.00	-20.350	147.890	
331.00	-20.768	143.680	
332.00	-21.205	136.634	
333.00	-21.788	131.968	
334.00	-22.346	128.128	
335.00	-22.938	112.096	
336.00	-23.346	110.772	
337.00	-23.616	99.284	
338.00	-23.545	93.839	
339.00	-23.258	85.339	
340.00	-22.786	75.009	
341.00	-22.185	70.379	
342.00	-21.652	58.655	
343.00	-21.206	59.458	
344.00	-20.878	48.581	
345.00	-20.702	48.425	
346.00	-20.694	46.020	
347.00	-20.891	40.791	
348.00	-21.296	44.275	
349.00	-21.934	36.950	
350.00	-22.837	42.027	
351.00	-24.042	30.450	
352.00	-25.659	29.424	
353.00	-27.801	17.697	
354.00	-30.231	-0.032	
355.00	-32.100	-28.589	
356.00	-31.352	-66.210	
357.00	-28.929	-85.462	
358.00	-26.610	-98.343	
359.00	-24.916	-101.635	
Frequency	2500.00	MHz	
Channel	test		
Scan Axis name	Azimuth  [deg]		
Scan Axis	Amplitude	Phase	
			
0.00	-23.214	167.756	
1.00	-22.200	127.958	
2.00	-21.536	137.472	
3.00	-21.110	118.670	
4.00	-20.999	133.604	
5.00	-21.106	123.137	
6.00	-21.464	133.114	
7.00	-22.098	116.818	
8.00	-23.057	116.190	
9.00	-24.413	126.803	
10.00	-26.273	124.661	
11.00	-28.836	137.908	
12.00	-31.743	130.551	
13.00	-34.228	178.378	
14.00	-32.339	-135.955	
15.00	-29.024	-116.214	
16.00	-26.395	-87.059	
17.00	-24.531	-118.072	
18.00	-23.129	-94.149	
19.00	-22.125	-119.005	
20.00	-21.400	-90.950	
21.00	-20.948	-108.671	
22.00	-20.691	-89.314	
23.00	-20.674	-96.462	
24.00	-20.855	-80.263	
25.00	-21.195	-88.510	
26.00	-21.712	-68.243	
27.00	-22.356	-73.232	
28.00	-23.017	-52.321	
29.00	-23.680	-58.552	
30.00	-24.181	-37.379	
31.00	-24.377	-35.434	
32.00	-24.205	-45.735	
33.00	-23.788	-38.484	
34.00	-23.192	-25.172	
35.00	-22.550	-0.853	
36.00	-21.861	13.396	
37.00	-21.300	24.793	
38.00	-20.832	8.459	
39.00	-20.484	0.074	
40.00	-20.252	13.642	
41.00	-20.082	-19.766	
42.00	-20.129	34.440	
43.00	-20.114	12.132	
44.00	-20.209	27.484	
45.00	-20.323	17.525	
46.00	-20.464	11.654	
47.00	-20.649	16.781	
48.00	-20.840	9.574	
49.00	-20.984	38.206	
50.00	-21.109	14.559	
51.00	-21.145	36.427	
52.00	-21.155	19.138	
53.00	-21.076	47.558	
54.00	-20.978	39.356	
55.00	-20.795	53.403	
56.00	-20.607	39.075	
57.00	-20.404	48.957	
58.00	-20.211	44.682	
59.00	-20.052	62.876	
60.00	-19.863	52.074	
61.00	-19.746	62.848	
62.00	-19.634	54.323	
63.00	-19.573	48.704	
64.00	-19.569	64.698	
65.00	-19.579	49.160	
66.00	-19.625	53.522	
67.00	-19.728	38.205	
68.00	-19.865	42.583	
69.00	-20.053	55.223	
70.00	-20.273	42.572	
71.00	-20.502	54.420	
72.00	-20.789	40.597	
73.00	-21.025	66.633	
74.00	-21.330	33.284	
75.00	-21.558	58.610	
76.00	-21.820	28.906	
77.00	-21.959	44.541	
78.00	-22.033	26.292	
79.00	-22.046	21.919	
80.00	-21.899	7.762	
81.00	-21.749	-1.748	
82.00	-21.520	0.156	
83.00	-21.279	-2.336	
84.00	-21.060	-15.637	
85.00	-20.847	-10.467	
86.00	-20.687	-20.311	
87.00	-20.636	-10.984	
88.00	-20.594	-26.172	
89.00	-20.684	-21.312	
90.00	-20.862	-33.573	
91.00	-21.168	-43.923	
92.00	-21.600	-37.895	
93.00	-22.098	-54.816	
94.00	-22.678	-53.496	
95.00	-23.316	-78.338	
96.00	-23.854	-74.105	
97.00	-24.238	-94.465	
98.00	-24.259	-96.725	
99.00	-24.033	-123.272	
100.00	-23.449	-127.159	
101.00	-22.792	-141.802	
102.00	-22.070	-145.190	
103.00	-21.432	-146.602	
104.00	-20.923	-152.641	
105.00	-20.574	-161.230	
106.00	-20.413	-168.406	
107.00	-20.425	-163.265	
108.00	-20.641	-165.928	
109.00	-21.137	-172.605	
110.00	-21.882	-177.646	
111.00	-22.942	176.105	
112.00	-24.405	173.453	
113.00	-26.383	168.352	
114.00	-28.850	145.263	
115.00	-31.609	135.316	
116.00	-32.172	81.071	
117.00	-29.977	52.936	
118.00	-27.181	42.878	
119.00	-24.987	34.430	
120.00	-23.334	17.426	
121.00	-22.129	14.807	
122.00	-21.280	22.006	
123.00	-20.751	12.437	
124.00	-20.506	6.277	
125.00	-20.500	9.240	
126.00	-20.756	15.022	
127.00	-21.312	-1.037	
128.00	-22.198	12.173	
129.00	-23.392	7.671	
130.00	-25.089	18.670	
131.00	-27.242	25.388	
132.00	-29.935	37.051	
133.00	-32.053	69.635	
134.00	-31.045	95.825	
135.00	-28.521	130.575	
136.00	-26.057	125.606	
137.00	-24.247	143.249	
138.00	-22.805	112.881	
139.00	-21.893	138.206	
140.00	-21.187	123.988	
141.00	-20.789	139.211	
142.00	-20.577	142.517	
143.00	-20.622	138.801	
144.00	-20.814	153.989	
145.00	-21.245	147.611	
146.00	-21.788	168.650	
147.00	-22.494	163.624	
148.00	-23.196	-178.351	
149.00	-23.893	-177.844	
150.00	-24.327	-160.233	
151.00	-24.448	-154.086	
152.00	-24.154	-143.433	
153.00	-23.599	-131.761	
154.00	-22.917	-124.966	
155.00	-22.219	-116.306	
156.00	-21.609	-101.687	
157.00	-21.107	-110.109	
158.00	-20.713	-105.309	
159.00	-20.476	-106.080	
160.00	-20.310	-95.071	
161.00	-20.265	-94.882	
162.00	-20.359	-98.874	
163.00	-20.521	-84.184	
164.00	-20.760	-93.093	
165.00	-21.030	-73.338	
166.00	-21.354	-82.700	
167.00	-21.631	-68.661	
168.00	-21.902	-74.110	
169.00	-22.038	-67.415	
170.00	-22.145	-67.564	
171.00	-22.112	-70.132	
172.00	-21.950	-53.677	
173.00	-21.759	-56.634	
174.00	-21.425	-39.634	
175.00	-21.122	-44.949	
176.00	-20.749	-33.881	
177.00	-20.454	-43.041	
178.00	-20.107	-33.657	
179.00	-19.841	-40.341	
180.00	-19.607	-31.435	
181.00	-19.420	-39.733	
182.00	-19.260	-29.813	
183.00	-19.193	-43.183	
184.00	-19.167	-34.449	
185.00	-19.188	-41.648	
186.00	-19.278	-38.049	
187.00	-19.419	-37.261	
188.00	-19.603	-37.413	
189.00	-19.851	-41.059	
190.00	-20.156	-37.393	
191.00	-20.497	-43.540	
192.00	-20.879	-38.624	
193.00	-21.260	-46.013	
194.00	-21.650	-45.921	
195.00	-22.030	-51.722	
196.00	-22.353	-53.561	
197.00	-22.581	-53.264	
198.00	-22.740	-60.516	
199.00	-22.750	-62.987	
200.00	-22.636	-69.971	
201.00	-22.439	-71.431	
202.00	-22.161	-74.020	
203.00	-21.853	-78.402	
204.00	-21.538	-81.574	
205.00	-21.265	-83.478	
206.00	-21.035	-86.822	
207.00	-20.884	-81.989	
208.00	-20.832	-93.427	
209.00	-20.890	-81.308	
210.00	-21.122	-105.958	
211.00	-21.367	-79.587	
212.00	-21.862	-109.462	
213.00	-22.386	-91.910	
214.00	-23.118	-122.991	
215.00	-23.801	-111.375	
216.00	-24.518	-120.836	
217.00	-25.026	-125.320	
218.00	-25.197	-148.678	
219.00	-24.937	-169.320	
220.00	-24.328	-171.552	
221.00	-23.512	165.219	
222.00	-22.725	170.829	
223.00	-22.014	151.902	
224.00	-21.464	148.541	
225.00	-21.014	128.455	
226.00	-20.856	138.861	
227.00	-20.816	125.732	
228.00	-21.098	138.940	
229.00	-21.506	127.813	
230.00	-22.271	126.072	
231.00	-23.348	134.616	
232.00	-24.788	114.040	
233.00	-26.665	113.814	
234.00	-29.103	103.207	
235.00	-31.624	93.498	
236.00	-31.813	56.755	
237.00	-29.612	30.372	
238.00	-26.940	12.520	
239.00	-24.883	-5.654	
240.00	-23.270	2.759	
241.00	-22.140	-19.917	
242.00	-21.334	-4.511	
243.00	-20.825	-17.993	
244.00	-20.556	-4.960	
245.00	-20.614	-0.009	
246.00	-20.918	-6.965	
247.00	-21.511	2.217	
248.00	-22.381	-23.416	
249.00	-23.613	-5.305	
250.00	-25.414	-2.659	
251.00	-27.843	30.230	
252.00	-30.947	53.699	
253.00	-33.560	95.413	
254.00	-31.962	131.641	
255.00	-28.713	158.044	
256.00	-26.049	173.760	
257.00	-24.094	178.487	
258.00	-22.667	174.163	
259.00	-21.605	173.264	
260.00	-20.908	-170.488	
261.00	-20.419	-171.844	
262.00	-20.188	-166.694	
263.00	-20.134	-167.806	
264.00	-20.320	-150.797	
265.00	-20.656	-142.922	
266.00	-21.159	-143.255	
267.00	-21.796	-126.767	
268.00	-22.510	-127.788	
269.00	-23.218	-108.201	
270.00	-23.802	-103.757	
271.00	-24.061	-84.494	
272.00	-24.002	-77.617	
273.00	-23.531	-68.355	
274.00	-22.949	-56.016	
275.00	-22.213	-54.675	
276.00	-21.566	-40.480	
277.00	-20.952	-45.045	
278.00	-20.485	-28.478	
279.00	-20.126	-23.682	
280.00	-19.856	-30.386	
281.00	-19.716	-16.477	
282.00	-19.625	-29.103	
283.00	-19.680	-6.617	
284.00	-19.779	-18.752	
285.00	-19.946	2.281	
286.00	-20.130	-8.350	
287.00	-20.366	0.128	
288.00	-20.591	15.353	
289.00	-20.804	15.519	
290.00	-20.942	16.694	
291.00	-20.976	18.749	
292.00	-20.951	30.820	
293.00	-20.918	30.433	
294.00	-20.767	26.478	
295.00	-20.626	47.699	
296.00	-20.356	27.247	
297.00	-20.223	56.462	
298.00	-19.942	43.259	
299.00	-19.808	63.800	
300.00	-19.659	45.120	
301.00	-19.516	69.723	
302.00	-19.373	35.609	
303.00	-19.313	73.845	
304.00	-19.277	53.518	
305.00	-19.294	66.711	
306.00	-19.318	75.916	
307.00	-19.444	74.263	
308.00	-19.547	76.191	
309.00	-19.691	78.413	
310.00	-19.797	86.158	
311.00	-19.963	79.942	
312.00	-20.113	91.280	
313.00	-20.274	54.912	
314.00	-20.409	107.687	
315.00	-20.553	63.285	
316.00	-20.622	100.345	
317.00	-20.653	65.872	
318.00	-20.656	77.347	
319.00	-20.591	72.078	
320.00	-20.513	61.211	
321.00	-20.377	73.022	
322.00	-20.155	59.084	
323.00	-20.015	66.244	
324.00	-19.838	48.655	
325.00	-19.752	58.026	
326.00	-19.681	47.210	
327.00	-19.692	49.369	
328.00	-19.781	46.314	
329.00	-19.950	42.959	
330.00	-20.244	35.215	
331.00	-20.617	30.846	
332.00	-21.092	23.651	
333.00	-21.652	19.229	
334.00	-22.277	14.655	
335.00	-22.828	-0.439	
336.00	-23.303	-2.910	
337.00	-23.560	-13.548	
338.00	-23.440	-20.417	
339.00	-23.133	-27.764	
340.00	-22.567	-38.635	
341.00	-22.004	-42.950	
342.00	-21.440	-54.513	
343.00	-20.972	-53.865	
344.00	-20.644	-64.233	
345.00	-20.449	-64.569	
346.00	-20.456	-66.717	
347.00	-20.634	-72.139	
348.00	-21.016	-68.275	
349.00	-21.628	-75.421	
350.00	-22.526	-70.359	
351.00	-23.759	-81.628	
352.00	-25.373	-82.873	
353.00	-27.486	-94.055	
354.00	-29.949	-111.604	
355.00	-31.991	-138.781	
356.00	-31.355	-178.647	
357.00	-29.035	162.251	
358.00	-26.578	148.472	
359.00	-24.847	145.749	
Frequency	2525.00	MHz	
Channel	test		
Scan Axis name	Azimuth  [deg]		
Scan Axis	Amplitude	Phase	
			
0.00	-23.708	0.549	
1.00	-22.738	-39.642	
2.00	-21.989	-29.446	
3.00	-21.587	-48.518	
4.00	-21.359	-32.686	
5.00	-21.445	-43.638	
6.00	-21.839	-32.787	
7.00	-22.515	-49.435	
8.00	-23.465	-49.912	
9.00	-24.740	-38.271	
10.00	-26.611	-41.552	
11.00	-29.044	-26.042	
12.00	-32.034	-33.162	
13.00	-33.972	13.689	
14.00	-32.280	55.546	
15.00	-29.238	77.069	
16.00	-26.691	104.397	
17.00	-24.907	75.260	
18.00	-23.444	98.666	
19.00	-22.483	74.641	
20.00	-21.727	101.781	
21.00	-21.290	85.451	
22.00	-21.004	104.133	
23.00	-21.000	97.679	
24.00	-21.159	113.416	
25.00	-21.506	105.127	
26.00	-21.975	126.073	
27.00	-22.580	119.843	
28.00	-23.238	141.532	
29.00	-23.839	134.339	
30.00	-24.413	155.643	
31.00	-24.661	157.110	
32.00	-24.571	146.779	
33.00	-24.186	153.891	
34.00	-23.616	167.449	
35.00	-23.007	-167.875	
36.00	-22.385	-153.582	
37.00	-21.819	-141.681	
38.00	-21.329	-158.102	
39.00	-20.990	-166.818	
40.00	-20.750	-151.527	
41.00	-20.560	173.036	
42.00	-20.589	-129.080	
43.00	-20.582	-154.510	
44.00	-20.645	-135.995	
45.00	-20.772	-148.541	
46.00	-20.914	-152.285	
47.00	-21.063	-148.780	
48.00	-21.207	-154.273	
49.00	-21.346	-125.834	
50.00	-21.401	-149.222	
51.00	-21.488	-127.515	
52.00	-21.415	-144.316	
53.00	-21.368	-116.215	
54.00	-21.203	-123.918	
55.00	-21.067	-110.466	
56.00	-20.835	-124.875	
57.00	-20.719	-114.764	
58.00	-20.484	-119.392	
59.00	-20.336	-100.509	
60.00	-20.166	-111.869	
61.00	-20.054	-100.541	
62.00	-19.940	-109.732	
63.00	-19.860	-115.569	
64.00	-19.856	-98.831	
65.00	-19.843	-115.315	
66.00	-19.889	-110.416	
67.00	-19.978	-125.959	
68.00	-20.087	-121.391	
69.00	-20.240	-108.340	
70.00	-20.400	-121.159	
71.00	-20.639	-109.290	
72.00	-20.906	-122.255	
73.00	-21.191	-96.991	
74.00	-21.468	-129.579	
75.00	-21.703	-104.347	
76.00	-21.903	-133.545	
77.00	-22.113	-118.430	
78.00	-22.179	-136.361	
79.00	-22.167	-141.519	
80.00	-22.063	-155.245	
81.00	-21.915	-165.295	
82.00	-21.741	-163.606	
83.00	-21.492	-166.302	
84.00	-21.233	-179.950	
85.00	-21.030	-175.413	
86.00	-20.831	175.368	
87.00	-20.770	-176.386	
88.00	-20.689	168.934	
89.00	-20.760	173.358	
90.00	-20.909	160.960	
91.00	-21.169	150.558	
92.00	-21.552	156.521	
93.00	-22.064	139.452	
94.00	-22.597	140.965	
95.00	-23.226	115.773	
96.00	-23.769	120.598	
97.00	-24.165	100.010	
98.00	-24.259	98.046	
99.00	-24.043	71.251	
100.00	-23.483	67.398	
101.00	-22.804	52.520	
102.00	-22.097	49.364	
103.00	-21.453	47.164	
104.00	-20.942	41.194	
105.00	-20.595	32.033	
106.00	-20.389	25.128	
107.00	-20.381	29.657	
108.00	-20.574	27.277	
109.00	-21.014	19.776	
110.00	-21.709	15.000	
111.00	-22.725	8.423	
112.00	-24.065	5.821	
113.00	-25.883	0.770	
114.00	-28.147	-21.571	
115.00	-30.769	-28.673	
116.00	-31.808	-79.931	
117.00	-30.104	-109.351	
118.00	-27.488	-120.858	
119.00	-25.358	-130.844	
120.00	-23.624	-149.096	
121.00	-22.399	-152.262	
122.00	-21.587	-145.114	
123.00	-21.050	-156.377	
124.00	-20.795	-161.647	
125.00	-20.825	-160.281	
126.00	-21.116	-154.159	
127.00	-21.725	-171.992	
128.00	-22.676	-157.574	
129.00	-24.016	-165.345	
130.00	-25.875	-153.327	
131.00	-28.534	-149.200	
132.00	-31.975	-137.155	
133.00	-35.108	-94.843	
134.00	-33.097	-60.272	
135.00	-29.250	-27.203	
136.00	-26.621	-34.692	
137.00	-24.582	-18.723	
138.00	-23.288	-50.322	
139.00	-22.231	-26.135	
140.00	-21.563	-40.794	
141.00	-21.153	-26.264	
142.00	-21.021	-23.527	
143.00	-21.105	-27.541	
144.00	-21.394	-13.062	
145.00	-21.905	-19.327	
146.00	-22.584	1.416	
147.00	-23.406	-3.114	
148.00	-24.297	14.933	
149.00	-25.058	16.757	
150.00	-25.548	35.451	
151.00	-25.548	43.336	
152.00	-25.091	54.788	
153.00	-24.340	66.370	
154.00	-23.491	73.640	
155.00	-22.731	81.381	
156.00	-22.017	95.932	
157.00	-21.487	86.429	
158.00	-21.122	91.383	
159.00	-20.856	89.826	
160.00	-20.779	101.007	
161.00	-20.751	100.870	
162.00	-20.877	97.059	
163.00	-21.079	111.785	
164.00	-21.368	103.221	
165.00	-21.708	122.765	
166.00	-22.009	113.927	
167.00	-22.335	128.250	
168.00	-22.596	123.358	
169.00	-22.761	130.380	
170.00	-22.788	130.385	
171.00	-22.721	128.368	
172.00	-22.571	144.283	
173.00	-22.303	141.607	
174.00	-22.035	158.248	
175.00	-21.672	152.627	
176.00	-21.380	163.317	
177.00	-21.042	153.682	
178.00	-20.748	162.796	
179.00	-20.486	155.975	
180.00	-20.275	164.433	
181.00	-20.085	155.935	
182.00	-19.954	165.865	
183.00	-19.858	152.214	
184.00	-19.838	160.835	
185.00	-19.828	153.770	
186.00	-19.898	157.579	
187.00	-20.007	158.599	
188.00	-20.174	158.980	
189.00	-20.379	155.502	
190.00	-20.640	159.988	
191.00	-20.916	153.885	
192.00	-21.274	159.663	
193.00	-21.604	152.706	
194.00	-21.972	153.421	
195.00	-22.353	148.290	
196.00	-22.694	146.956	
197.00	-22.975	147.691	
198.00	-23.156	140.568	
199.00	-23.279	138.264	
200.00	-23.238	131.266	
201.00	-23.082	128.892	
202.00	-22.854	126.053	
203.00	-22.517	120.490	
204.00	-22.190	116.823	
205.00	-21.852	114.042	
206.00	-21.574	110.192	
207.00	-21.356	114.590	
208.00	-21.240	102.674	
209.00	-21.229	114.729	
210.00	-21.321	90.066	
211.00	-21.568	116.507	
212.00	-21.939	86.832	
213.00	-22.442	104.943	
214.00	-23.148	74.009	
215.00	-23.877	86.668	
216.00	-24.649	78.104	
217.00	-25.303	74.133	
218.00	-25.676	51.541	
219.00	-25.670	30.908	
220.00	-25.176	26.767	
221.00	-24.480	2.743	
222.00	-23.665	7.218	
223.00	-22.891	-12.315	
224.00	-22.246	-15.928	
225.00	-21.802	-36.225	
226.00	-21.523	-25.971	
227.00	-21.482	-39.028	
228.00	-21.631	-26.156	
229.00	-22.041	-36.815	
230.00	-22.707	-38.425	
231.00	-23.708	-29.276	
232.00	-25.092	-49.301	
233.00	-26.990	-47.752	
234.00	-29.454	-55.549	
235.00	-32.541	-63.143	
236.00	-33.823	-102.144	
237.00	-31.502	-135.500	
238.00	-28.478	-155.515	
239.00	-26.089	-174.417	
240.00	-24.320	-165.843	
241.00	-23.017	171.630	
242.00	-22.136	-173.330	
243.00	-21.520	173.849	
244.00	-21.255	-172.590	
245.00	-21.210	-167.855	
246.00	-21.452	-174.904	
247.00	-22.020	-165.487	
248.00	-22.792	168.056	
249.00	-24.015	-173.008	
250.00	-25.792	-170.616	
251.00	-28.185	-137.158	
252.00	-31.260	-113.247	
253.00	-33.702	-73.380	
254.00	-32.447	-36.214	
255.00	-29.207	-9.967	
256.00	-26.582	7.107	
257.00	-24.617	10.736	
258.00	-23.179	7.456	
259.00	-22.106	5.837	
260.00	-21.370	23.010	
261.00	-20.904	20.913	
262.00	-20.654	26.873	
263.00	-20.623	25.217	
264.00	-20.784	42.938	
265.00	-21.128	50.024	
266.00	-21.666	49.964	
267.00	-22.303	66.552	
268.00	-23.053	65.098	
269.00	-23.789	84.932	
270.00	-24.413	88.841	
271.00	-24.746	108.415	
272.00	-24.684	115.437	
273.00	-24.309	124.587	
274.00	-23.690	137.658	
275.00	-22.994	138.598	
276.00	-22.290	153.175	
277.00	-21.713	148.706	
278.00	-21.207	165.167	
279.00	-20.843	170.145	
280.00	-20.576	163.128	
281.00	-20.467	177.771	
282.00	-20.379	164.284	
283.00	-20.455	-172.572	
284.00	-20.529	174.743	
285.00	-20.758	-163.643	
286.00	-20.933	-174.668	
287.00	-21.207	-166.355	
288.00	-21.468	-150.291	
289.00	-21.660	-151.391	
290.00	-21.822	-149.309	
291.00	-21.890	-147.574	
292.00	-21.895	-135.807	
293.00	-21.852	-136.067	
294.00	-21.736	-140.313	
295.00	-21.583	-118.745	
296.00	-21.355	-139.620	
297.00	-21.170	-109.305	
298.00	-20.913	-123.222	
299.00	-20.703	-102.212	
300.00	-20.534	-121.085	
301.00	-20.335	-96.470	
302.00	-20.197	-130.166	
303.00	-20.072	-91.644	
304.00	-20.026	-111.988	
305.00	-19.979	-98.553	
306.00	-19.976	-89.712	
307.00	-20.038	-90.031	
308.00	-20.100	-90.066	
309.00	-20.178	-85.489	
310.00	-20.243	-79.329	
311.00	-20.402	-83.991	
312.00	-20.528	-73.621	
313.00	-20.729	-108.393	
314.00	-20.855	-56.727	
315.00	-20.991	-100.406	
316.00	-21.083	-64.267	
317.00	-21.172	-98.278	
318.00	-21.142	-87.392	
319.00	-21.144	-92.973	
320.00	-21.028	-103.685	
321.00	-20.873	-92.829	
322.00	-20.702	-106.116	
323.00	-20.542	-100.125	
324.00	-20.376	-117.153	
325.00	-20.242	-108.402	
326.00	-20.155	-118.908	
327.00	-20.149	-116.993	
328.00	-20.245	-120.096	
329.00	-20.459	-123.355	
330.00	-20.725	-130.916	
331.00	-21.152	-135.383	
332.00	-21.627	-141.971	
333.00	-22.224	-146.085	
334.00	-22.904	-150.837	
335.00	-23.567	-165.714	
336.00	-24.130	-168.707	
337.00	-24.447	-179.384	
338.00	-24.440	172.299	
339.00	-24.021	164.599	
340.00	-23.521	152.195	
341.00	-22.779	148.347	
342.00	-22.205	136.118	
343.00	-21.628	137.223	
344.00	-21.232	126.776	
345.00	-20.997	126.460	
346.00	-20.921	125.108	
347.00	-21.078	119.570	
348.00	-21.432	123.925	
349.00	-22.034	116.950	
350.00	-22.905	122.719	
351.00	-24.119	112.020	
352.00	-25.717	111.533	
353.00	-27.910	101.226	
354.00	-30.528	84.549	
355.00	-32.974	56.359	
356.00	-32.461	14.563	
357.00	-29.802	-5.644	
358.00	-27.205	-19.975	
359.00	-25.365	-22.228	
Frequency	2550.00	MHz	
Channel	test		
Scan Axis name	Azimuth  [deg]		
Scan Axis	Amplitude	Phase	
			
0.00	-24.278	-158.906	
1.00	-23.198	160.969	
2.00	-22.422	171.347	
3.00	-21.985	151.961	
4.00	-21.707	167.926	
5.00	-21.796	156.967	
6.00	-22.107	167.040	
7.00	-22.796	151.012	
8.00	-23.730	149.847	
9.00	-25.009	162.398	
10.00	-26.879	157.506	
11.00	-29.324	173.116	
12.00	-32.562	164.051	
13.00	-34.876	-146.422	
14.00	-32.916	-103.363	
15.00	-29.775	-81.245	
16.00	-27.152	-54.603	
17.00	-25.191	-83.446	
18.00	-23.809	-60.509	
19.00	-22.748	-84.118	
20.00	-22.059	-58.063	
21.00	-21.565	-73.828	
22.00	-21.397	-55.786	
23.00	-21.361	-61.774	
24.00	-21.567	-46.429	
25.00	-21.909	-55.139	
26.00	-22.475	-33.424	
27.00	-23.088	-40.514	
28.00	-23.870	-17.588	
29.00	-24.516	-25.383	
30.00	-25.138	-2.805	
31.00	-25.374	-1.331	
32.00	-25.182	-11.572	
33.00	-24.701	-3.953	
34.00	-24.049	10.216	
35.00	-23.288	35.316	
36.00	-22.578	49.386	
37.00	-21.989	60.579	
38.00	-21.475	43.908	
39.00	-21.125	34.393	
40.00	-20.856	50.103	
41.00	-20.685	13.701	
42.00	-20.703	73.343	
43.00	-20.666	45.254	
44.00	-20.741	66.438	
45.00	-20.845	51.389	
46.00	-20.970	49.912	
47.00	-21.129	51.813	
48.00	-21.252	48.304	
49.00	-21.357	75.384	
50.00	-21.415	53.598	
51.00	-21.432	74.234	
52.00	-21.374	58.681	
53.00	-21.265	85.982	
54.00	-21.108	79.245	
55.00	-20.917	91.560	
56.00	-20.716	77.687	
57.00	-20.521	87.609	
58.00	-20.332	82.814	
59.00	-20.147	102.044	
60.00	-20.025	89.860	
61.00	-19.874	101.842	
62.00	-19.782	92.060	
63.00	-19.714	86.296	
64.00	-19.710	103.553	
65.00	-19.712	86.340	
66.00	-19.770	91.486	
67.00	-19.874	75.730	
68.00	-19.987	80.927	
69.00	-20.154	93.450	
70.00	-20.351	80.830	
71.00	-20.592	92.547	
72.00	-20.870	80.447	
73.00	-21.161	104.664	
74.00	-21.460	72.882	
75.00	-21.738	97.163	
76.00	-21.985	68.967	
77.00	-22.190	82.914	
78.00	-22.317	65.780	
79.00	-22.383	59.309	
80.00	-22.280	46.121	
81.00	-22.134	35.037	
82.00	-21.905	36.916	
83.00	-21.639	33.553	
84.00	-21.374	19.725	
85.00	-21.101	24.118	
86.00	-20.919	14.980	
87.00	-20.779	22.724	
88.00	-20.731	8.712	
89.00	-20.758	12.692	
90.00	-20.921	0.598	
91.00	-21.170	-10.238	
92.00	-21.582	-2.949	
93.00	-22.082	-20.963	
94.00	-22.696	-18.336	
95.00	-23.376	-44.663	
96.00	-24.033	-39.217	
97.00	-24.490	-60.569	
98.00	-24.671	-62.859	
99.00	-24.429	-90.888	
100.00	-23.863	-95.392	
101.00	-23.144	-111.378	
102.00	-22.363	-114.283	
103.00	-21.637	-117.539	
104.00	-21.034	-122.913	
105.00	-20.652	-132.620	
106.00	-20.411	-138.950	
107.00	-20.368	-134.558	
108.00	-20.535	-136.524	
109.00	-20.982	-144.309	
110.00	-21.670	-148.491	
111.00	-22.704	-154.756	
112.00	-24.079	-157.028	
113.00	-26.008	-161.468	
114.00	-28.480	176.894	
115.00	-31.386	169.021	
116.00	-32.628	114.427	
117.00	-30.493	82.871	
118.00	-27.680	71.889	
119.00	-25.357	61.850	
120.00	-23.614	44.311	
121.00	-22.370	41.770	
122.00	-21.518	49.464	
123.00	-20.956	37.495	
124.00	-20.729	34.037	
125.00	-20.756	33.888	
126.00	-21.078	41.635	
127.00	-21.664	22.747	
128.00	-22.643	39.151	
129.00	-23.983	30.151	
130.00	-25.829	44.202	
131.00	-28.415	48.514	
132.00	-31.705	62.468	
133.00	-34.205	103.800	
134.00	-32.189	133.774	
135.00	-28.749	166.651	
136.00	-26.249	158.584	
137.00	-24.352	175.204	
138.00	-23.081	143.577	
139.00	-22.097	168.426	
140.00	-21.460	154.247	
141.00	-21.110	169.157	
142.00	-20.983	172.094	
143.00	-21.103	168.579	
144.00	-21.412	-176.428	
145.00	-21.966	178.084	
146.00	-22.617	-160.883	
147.00	-23.433	-164.242	
148.00	-24.231	-145.721	
149.00	-24.872	-142.605	
150.00	-25.165	-124.262	
151.00	-24.983	-116.100	
152.00	-24.455	-105.781	
153.00	-23.664	-95.022	
154.00	-22.914	-88.481	
155.00	-22.135	-81.167	
156.00	-21.519	-66.526	
157.00	-21.041	-76.486	
158.00	-20.713	-70.975	
159.00	-20.499	-72.424	
160.00	-20.443	-60.659	
161.00	-20.473	-60.693	
162.00	-20.633	-63.635	
163.00	-20.873	-48.649	
164.00	-21.168	-56.225	
165.00	-21.507	-35.975	
166.00	-21.799	-44.298	
167.00	-22.099	-29.254	
168.00	-22.288	-33.707	
169.00	-22.380	-26.510	
170.00	-22.370	-26.663	
171.00	-22.261	-28.305	
172.00	-22.044	-12.355	
173.00	-21.802	-15.127	
174.00	-21.487	0.851	
175.00	-21.177	-4.585	
176.00	-20.882	5.525	
177.00	-20.626	-3.841	
178.00	-20.379	4.667	
179.00	-20.171	-1.824	
180.00	-19.999	5.986	
181.00	-19.867	-2.217	
182.00	-19.772	7.173	
183.00	-19.715	-6.265	
184.00	-19.686	1.775	
185.00	-19.717	-4.757	
186.00	-19.758	-1.246	
187.00	-19.850	0.155	
188.00	-19.991	0.555	
189.00	-20.178	-3.290	
190.00	-20.397	1.927	
191.00	-20.632	-4.358	
192.00	-20.903	2.081	
193.00	-21.196	-4.932	
194.00	-21.498	-3.836	
195.00	-21.821	-8.381	
196.00	-22.115	-9.380	
197.00	-22.390	-8.137	
198.00	-22.600	-14.650	
199.00	-22.737	-17.021	
200.00	-22.779	-23.783	
201.00	-22.688	-26.461	
202.00	-22.500	-29.335	
203.00	-22.225	-35.467	
204.00	-21.943	-39.313	
205.00	-21.622	-42.775	
206.00	-21.327	-47.195	
207.00	-21.115	-43.009	
208.00	-20.952	-55.927	
209.00	-20.919	-43.943	
210.00	-20.939	-68.895	
211.00	-21.159	-42.359	
212.00	-21.464	-72.452	
213.00	-21.940	-53.717	
214.00	-22.528	-85.040	
215.00	-23.225	-71.841	
216.00	-23.970	-79.419	
217.00	-24.670	-82.865	
218.00	-25.183	-104.528	
219.00	-25.309	-124.816	
220.00	-25.000	-129.879	
221.00	-24.413	-153.805	
222.00	-23.661	-150.587	
223.00	-22.953	-171.140	
224.00	-22.332	-175.315	
225.00	-21.892	163.293	
226.00	-21.566	173.563	
227.00	-21.476	160.256	
228.00	-21.563	172.600	
229.00	-21.927	162.162	
230.00	-22.547	160.085	
231.00	-23.478	169.556	
232.00	-24.842	149.083	
233.00	-26.584	151.219	
234.00	-29.001	144.958	
235.00	-32.037	139.784	
236.00	-34.044	102.866	
237.00	-32.070	65.593	
238.00	-28.942	43.799	
239.00	-26.438	24.010	
240.00	-24.606	31.675	
241.00	-23.216	9.670	
242.00	-22.321	23.874	
243.00	-21.676	11.459	
244.00	-21.400	24.953	
245.00	-21.345	28.984	
246.00	-21.591	21.975	
247.00	-22.157	30.932	
248.00	-22.961	4.640	
249.00	-24.210	23.555	
250.00	-25.906	25.994	
251.00	-28.437	59.144	
252.00	-31.577	82.983	
253.00	-34.205	124.094	
254.00	-32.692	162.618	
255.00	-29.334	-171.868	
256.00	-26.686	-154.803	
257.00	-24.717	-152.220	
258.00	-23.268	-154.835	
259.00	-22.305	-156.881	
260.00	-21.589	-139.258	
261.00	-21.199	-142.249	
262.00	-21.014	-135.552	
263.00	-21.059	-137.532	
264.00	-21.294	-119.360	
265.00	-21.707	-112.545	
266.00	-22.305	-111.980	
267.00	-23.049	-94.597	
268.00	-23.870	-95.427	
269.00	-24.671	-74.276	
270.00	-25.241	-68.874	
271.00	-25.404	-48.117	
272.00	-25.140	-40.292	
273.00	-24.517	-31.930	
274.00	-23.769	-18.807	
275.00	-22.988	-19.182	
276.00	-22.295	-5.123	
277.00	-21.709	-10.284	
278.00	-21.272	5.856	
279.00	-20.961	10.646	
280.00	-20.751	2.804	
281.00	-20.662	18.283	
282.00	-20.681	4.126	
283.00	-20.767	28.146	
284.00	-20.970	15.183	
285.00	-21.192	37.562	
286.00	-21.454	27.090	
287.00	-21.734	35.989	
288.00	-22.005	53.667	
289.00	-22.226	51.916	
290.00	-22.337	56.090	
291.00	-22.357	57.951	
292.00	-22.251	70.036	
293.00	-22.175	69.341	
294.00	-21.964	65.974	
295.00	-21.707	86.374	
296.00	-21.475	65.566	
297.00	-21.188	95.895	
298.00	-20.964	81.248	
299.00	-20.731	101.766	
300.00	-20.546	82.855	
301.00	-20.354	106.501	
302.00	-20.251	73.234	
303.00	-20.108	111.072	
304.00	-20.072	90.877	
305.00	-20.015	105.129	
306.00	-19.998	113.117	
307.00	-20.087	114.282	
308.00	-20.116	112.627	
309.00	-20.254	119.410	
310.00	-20.316	124.028	
311.00	-20.457	120.659	
312.00	-20.607	130.256	
313.00	-20.794	96.220	
314.00	-20.925	148.197	
315.00	-21.088	104.498	
316.00	-21.186	140.960	
317.00	-21.284	106.811	
318.00	-21.317	117.439	
319.00	-21.293	111.784	
320.00	-21.232	100.901	
321.00	-21.115	111.191	
322.00	-20.997	97.909	
323.00	-20.798	103.233	
324.00	-20.677	85.994	
325.00	-20.513	93.638	
326.00	-20.410	83.916	
327.00	-20.417	84.903	
328.00	-20.439	82.210	
329.00	-20.594	77.827	
330.00	-20.862	71.266	
331.00	-21.232	65.983	
332.00	-21.701	60.142	
333.00	-22.335	56.434	
334.00	-22.973	51.867	
335.00	-23.749	38.065	
336.00	-24.398	35.075	
337.00	-24.876	25.636	
338.00	-25.015	16.323	
339.00	-24.779	9.251	
340.00	-24.200	-5.467	
341.00	-23.586	-9.787	
342.00	-22.847	-23.009	
343.00	-22.263	-22.330	
344.00	-21.788	-32.860	
345.00	-21.446	-33.458	
346.00	-21.340	-34.660	
347.00	-21.401	-40.330	
348.00	-21.732	-35.759	
349.00	-22.223	-42.638	
350.00	-23.074	-36.602	
351.00	-24.184	-47.017	
352.00	-25.735	-46.846	
353.00	-27.779	-55.997	
354.00	-30.406	-70.822	
355.00	-33.157	-95.791	
356.00	-33.389	-139.341	
357.00	-30.784	-163.265	
358.00	-28.057	-179.047	
359.00	-26.077	178.407	
Frequency	2575.00	MHz	
Channel	test		
Scan Axis name	Azimuth  [deg]		
Scan Axis	Amplitude	Phase	
			
0.00	-24.870	42.080	
1.00	-23.829	1.393	
2.00	-22.953	12.464	
3.00	-22.525	-6.909	
4.00	-22.238	9.584	
5.00	-22.328	-1.695	
6.00	-22.634	8.874	
7.00	-23.301	-7.075	
8.00	-24.286	-8.451	
9.00	-25.542	5.789	
10.00	-27.504	0.233	
11.00	-29.830	18.941	
12.00	-32.907	9.617	
13.00	-34.375	60.891	
14.00	-32.445	98.665	
15.00	-29.494	119.915	
16.00	-27.104	144.031	
17.00	-25.389	116.558	
18.00	-24.051	139.056	
19.00	-23.142	116.063	
20.00	-22.445	141.281	
21.00	-22.092	126.607	
22.00	-21.911	143.777	
23.00	-21.965	138.463	
24.00	-22.214	154.137	
25.00	-22.634	144.809	
26.00	-23.251	167.875	
27.00	-23.923	160.163	
28.00	-24.687	-175.575	
29.00	-25.359	176.782	
30.00	-25.858	-159.880	
31.00	-25.934	-158.350	
32.00	-25.600	-168.287	
33.00	-24.999	-161.791	
34.00	-24.320	-148.246	
35.00	-23.621	-124.139	
36.00	-22.976	-111.007	
37.00	-22.416	-100.449	
38.00	-21.963	-117.287	
39.00	-21.641	-127.701	
40.00	-21.485	-111.062	
41.00	-21.296	-148.874	
42.00	-21.416	-86.901	
43.00	-21.410	-117.594	
44.00	-21.536	-93.691	
45.00	-21.627	-110.637	
46.00	-21.779	-109.813	
47.00	-21.900	-109.191	
48.00	-22.009	-111.274	
49.00	-22.072	-84.744	
50.00	-22.073	-106.105	
51.00	-22.034	-86.218	
52.00	-21.924	-100.600	
53.00	-21.745	-74.071	
54.00	-21.588	-80.250	
55.00	-21.364	-68.993	
56.00	-21.160	-82.661	
57.00	-20.958	-72.684	
58.00	-20.791	-78.146	
59.00	-20.619	-58.488	
60.00	-20.488	-71.704	
61.00	-20.411	-59.013	
62.00	-20.323	-69.362	
63.00	-20.281	-75.217	
64.00	-20.281	-57.394	
65.00	-20.328	-75.496	
66.00	-20.387	-70.002	
67.00	-20.489	-86.191	
68.00	-20.641	-80.297	
69.00	-20.797	-67.884	
70.00	-20.985	-80.402	
71.00	-21.244	-68.673	
72.00	-21.518	-79.837	
73.00	-21.808	-55.966	
74.00	-22.126	-87.255	
75.00	-22.428	-63.030	
76.00	-22.710	-90.654	
77.00	-22.976	-77.210	
78.00	-23.140	-93.925	
79.00	-23.253	-101.326	
80.00	-23.189	-113.856	
81.00	-23.072	-125.857	
82.00	-22.886	-124.058	
83.00	-22.610	-128.008	
84.00	-22.285	-142.089	
85.00	-22.028	-138.379	
86.00	-21.775	-146.959	
87.00	-21.588	-140.216	
88.00	-21.470	-153.561	
89.00	-21.460	-150.216	
90.00	-21.585	-161.673	
91.00	-21.775	-172.254	
92.00	-22.162	-164.712	
93.00	-22.651	177.692	
94.00	-23.235	-178.966	
95.00	-23.991	155.490	
96.00	-24.723	161.992	
97.00	-25.352	141.085	
98.00	-25.703	138.664	
99.00	-25.683	109.894	
100.00	-25.184	104.629	
101.00	-24.502	87.176	
102.00	-23.654	84.057	
103.00	-22.890	79.708	
104.00	-22.222	74.541	
105.00	-21.758	63.813	
106.00	-21.502	58.320	
107.00	-21.380	62.381	
108.00	-21.510	61.165	
109.00	-21.919	53.012	
110.00	-22.582	49.615	
111.00	-23.558	43.785	
112.00	-24.931	42.573	
113.00	-26.849	39.276	
114.00	-29.503	19.614	
115.00	-33.067	15.007	
116.00	-35.577	-44.438	
117.00	-33.037	-84.978	
118.00	-29.505	-96.064	
119.00	-26.872	-106.329	
120.00	-24.909	-123.117	
121.00	-23.565	-124.911	
122.00	-22.650	-116.268	
123.00	-22.058	-128.891	
124.00	-21.785	-130.325	
125.00	-21.769	-131.389	
126.00	-22.062	-122.004	
127.00	-22.613	-141.609	
128.00	-23.607	-122.696	
129.00	-24.865	-132.553	
130.00	-26.674	-115.636	
131.00	-29.015	-110.796	
132.00	-31.798	-93.790	
133.00	-33.190	-56.893	
134.00	-31.446	-33.767	
135.00	-28.698	-2.562	
136.00	-26.493	-10.321	
137.00	-24.794	6.795	
138.00	-23.608	-24.156	
139.00	-22.706	1.340	
140.00	-22.132	-12.426	
141.00	-21.815	3.164	
142.00	-21.730	6.522	
143.00	-21.884	3.614	
144.00	-22.167	19.098	
145.00	-22.712	14.323	
146.00	-23.346	35.997	
147.00	-24.061	33.520	
148.00	-24.723	52.249	
149.00	-25.223	55.678	
150.00	-25.373	72.944	
151.00	-25.110	80.705	
152.00	-24.563	89.486	
153.00	-23.839	99.589	
154.00	-23.119	105.828	
155.00	-22.465	112.738	
156.00	-21.933	127.701	
157.00	-21.555	117.199	
158.00	-21.273	123.424	
159.00	-21.125	121.765	
160.00	-21.097	134.255	
161.00	-21.172	134.139	
162.00	-21.330	132.090	
163.00	-21.566	147.298	
164.00	-21.879	140.562	
165.00	-22.176	161.246	
166.00	-22.423	153.430	
167.00	-22.629	168.842	
168.00	-22.772	165.040	
169.00	-22.771	172.178	
170.00	-22.673	171.771	
171.00	-22.525	170.435	
172.00	-22.299	-174.152	
173.00	-22.023	-176.530	
174.00	-21.779	-161.217	
175.00	-21.485	-166.490	
176.00	-21.269	-156.622	
177.00	-21.052	-166.021	
178.00	-20.862	-157.564	
179.00	-20.712	-164.201	
180.00	-20.606	-156.461	
181.00	-20.529	-164.388	
182.00	-20.479	-155.261	
183.00	-20.442	-168.493	
184.00	-20.488	-160.598	
185.00	-20.505	-166.885	
186.00	-20.567	-163.507	
187.00	-20.659	-161.992	
188.00	-20.759	-161.294	
189.00	-20.898	-165.502	
190.00	-21.074	-159.703	
191.00	-21.253	-166.047	
192.00	-21.478	-159.346	
193.00	-21.689	-166.433	
194.00	-21.942	-165.043	
195.00	-22.190	-169.450	
196.00	-22.423	-170.047	
197.00	-22.678	-168.666	
198.00	-22.870	-174.933	
199.00	-22.996	-177.141	
200.00	-23.045	176.597	
201.00	-22.997	173.626	
202.00	-22.835	170.904	
203.00	-22.612	164.187	
204.00	-22.355	160.125	
205.00	-22.066	156.168	
206.00	-21.806	151.410	
207.00	-21.591	155.177	
208.00	-21.432	141.888	
209.00	-21.387	153.629	
210.00	-21.448	128.188	
211.00	-21.609	154.791	
212.00	-21.917	123.940	
213.00	-22.369	143.172	
214.00	-22.937	111.293	
215.00	-23.611	125.038	
216.00	-24.337	118.015	
217.00	-25.035	114.493	
218.00	-25.597	93.241	
219.00	-25.807	73.309	
220.00	-25.591	67.785	
221.00	-25.075	44.250	
222.00	-24.317	47.015	
223.00	-23.644	26.116	
224.00	-23.035	21.810	
225.00	-22.580	0.324	
226.00	-22.289	10.496	
227.00	-22.210	-2.479	
228.00	-22.328	9.502	
229.00	-22.700	-0.552	
230.00	-23.317	-2.508	
231.00	-24.265	7.007	
232.00	-25.644	-13.537	
233.00	-27.495	-10.339	
234.00	-29.862	-16.685	
235.00	-33.133	-21.845	
236.00	-35.155	-59.568	
237.00	-33.087	-98.951	
238.00	-29.807	-119.588	
239.00	-27.283	-139.388	
240.00	-25.431	-131.709	
241.00	-24.060	-153.323	
242.00	-23.152	-139.211	
243.00	-22.568	-150.945	
244.00	-22.264	-137.115	
245.00	-22.285	-133.220	
246.00	-22.568	-139.925	
247.00	-23.152	-130.893	
248.00	-24.014	-156.934	
249.00	-25.293	-136.992	
250.00	-27.144	-133.454	
251.00	-29.649	-97.838	
252.00	-32.658	-69.968	
253.00	-34.251	-28.103	
254.00	-32.310	5.482	
255.00	-29.249	26.608	
256.00	-26.905	43.492	
257.00	-25.149	45.043	
258.00	-23.880	43.045	
259.00	-22.986	40.919	
260.00	-22.366	59.337	
261.00	-22.035	56.129	
262.00	-21.935	63.806	
263.00	-22.045	62.026	
264.00	-22.345	81.517	
265.00	-22.822	88.584	
266.00	-23.487	90.346	
267.00	-24.205	109.359	
268.00	-24.937	109.861	
269.00	-25.509	132.610	
270.00	-25.769	138.316	
271.00	-25.614	158.983	
272.00	-25.125	165.032	
273.00	-24.433	171.588	
274.00	-23.729	-176.392	
275.00	-23.011	-178.504	
276.00	-22.415	-164.760	
277.00	-21.958	-170.456	
278.00	-21.618	-154.503	
279.00	-21.421	-149.934	
280.00	-21.313	-158.250	
281.00	-21.373	-141.844	
282.00	-21.442	-156.432	
283.00	-21.672	-131.440	
284.00	-21.877	-144.452	
285.00	-22.189	-121.246	
286.00	-22.490	-131.300	
287.00	-22.758	-121.553	
288.00	-22.997	-102.841	
289.00	-23.121	-105.696	
290.00	-23.162	-99.734	
291.00	-23.071	-98.639	
292.00	-22.882	-86.397	
293.00	-22.695	-88.035	
294.00	-22.457	-90.470	
295.00	-22.195	-71.638	
296.00	-21.886	-92.244	
297.00	-21.631	-62.063	
298.00	-21.360	-77.169	
299.00	-21.140	-57.005	
300.00	-21.003	-75.575	
301.00	-20.792	-52.820	
302.00	-20.666	-85.090	
303.00	-20.527	-47.862	
304.00	-20.472	-67.693	
305.00	-20.410	-52.999	
306.00	-20.396	-45.490	
307.00	-20.461	-42.894	
308.00	-20.520	-46.590	
309.00	-20.593	-37.483	
310.00	-20.671	-34.625	
311.00	-20.817	-36.534	
312.00	-20.932	-28.356	
313.00	-21.140	-61.142	
314.00	-21.218	-10.331	
315.00	-21.453	-53.765	
316.00	-21.509	-17.953	
317.00	-21.690	-51.996	
318.00	-21.745	-41.523	
319.00	-21.801	-47.640	
320.00	-21.760	-58.526	
321.00	-21.669	-49.026	
322.00	-21.547	-62.123	
323.00	-21.388	-57.839	
324.00	-21.242	-74.940	
325.00	-21.141	-67.798	
326.00	-21.022	-77.470	
327.00	-20.964	-76.607	
328.00	-21.016	-79.379	
329.00	-21.160	-83.487	
330.00	-21.399	-89.882	
331.00	-21.767	-94.967	
332.00	-22.248	-100.512	
333.00	-22.847	-103.667	
334.00	-23.560	-108.161	
335.00	-24.300	-120.884	
336.00	-25.065	-124.220	
337.00	-25.621	-132.791	
338.00	-25.842	-143.262	
339.00	-25.681	-150.228	
340.00	-25.140	-165.785	
341.00	-24.412	-169.760	
342.00	-23.637	176.819	
343.00	-22.972	177.115	
344.00	-22.394	166.891	
345.00	-22.049	166.061	
346.00	-21.832	165.455	
347.00	-21.848	159.815	
348.00	-22.084	164.783	
349.00	-22.547	158.206	
350.00	-23.277	164.688	
351.00	-24.326	155.130	
352.00	-25.812	155.722	
353.00	-27.828	147.868	
354.00	-30.434	135.023	
355.00	-33.547	113.495	
356.00	-34.651	68.235	
357.00	-32.075	40.571	
358.00	-29.077	22.365	
359.00	-26.968	19.415	
Frequency	2600.00	MHz	
Channel	test		
Scan Axis name	Azimuth  [deg]		
Scan Axis	Amplitude	Phase	
			
0.00	-24.031	-121.397	
1.00	-22.940	-161.873	
2.00	-22.114	-150.547	
3.00	-21.663	-170.136	
4.00	-21.407	-153.118	
5.00	-21.527	-164.592	
6.00	-21.866	-154.253	
7.00	-22.560	-169.955	
8.00	-23.581	-171.803	
9.00	-24.962	-157.016	
10.00	-26.943	-163.813	
11.00	-29.610	-143.985	
12.00	-33.010	-152.082	
13.00	-34.492	-94.846	
14.00	-31.843	-57.055	
15.00	-28.712	-36.431	
16.00	-26.327	-14.135	
17.00	-24.579	-41.998	
18.00	-23.265	-20.308	
19.00	-22.403	-42.821	
20.00	-21.803	-18.658	
21.00	-21.497	-32.338	
22.00	-21.404	-15.969	
23.00	-21.530	-20.673	
24.00	-21.836	-5.067	
25.00	-22.378	-14.652	
26.00	-23.089	9.539	
27.00	-23.863	1.228	
28.00	-24.718	26.750	
29.00	-25.403	19.183	
30.00	-25.932	43.525	
31.00	-25.912	44.737	
32.00	-25.529	34.897	
33.00	-24.907	41.468	
34.00	-24.185	54.804	
35.00	-23.468	78.852	
36.00	-22.829	91.296	
37.00	-22.303	101.332	
38.00	-21.897	84.302	
39.00	-21.604	72.694	
40.00	-21.433	90.686	
41.00	-21.299	51.016	
42.00	-21.409	115.558	
43.00	-21.448	81.719	
44.00	-21.522	108.122	
45.00	-21.640	88.902	
46.00	-21.779	91.529	
47.00	-21.884	90.358	
48.00	-21.976	90.206	
49.00	-22.016	115.623	
50.00	-21.992	95.244	
51.00	-21.927	113.872	
52.00	-21.758	100.718	
53.00	-21.585	126.546	
54.00	-21.368	120.954	
55.00	-21.163	131.343	
56.00	-20.938	117.668	
57.00	-20.803	127.637	
58.00	-20.593	122.187	
59.00	-20.465	142.269	
60.00	-20.347	128.347	
61.00	-20.286	141.620	
62.00	-20.238	130.938	
63.00	-20.211	125.049	
64.00	-20.217	143.019	
65.00	-20.263	124.622	
66.00	-20.321	130.090	
67.00	-20.427	113.893	
68.00	-20.540	119.966	
69.00	-20.676	132.162	
70.00	-20.863	119.672	
71.00	-21.089	131.194	
72.00	-21.352	121.058	
73.00	-21.631	143.608	
74.00	-21.920	113.716	
75.00	-22.198	137.154	
76.00	-22.509	110.996	
77.00	-22.793	123.784	
78.00	-23.008	108.233	
79.00	-23.169	100.139	
80.00	-23.204	88.296	
81.00	-23.177	75.757	
82.00	-23.046	77.619	
83.00	-22.858	72.995	
84.00	-22.590	58.699	
85.00	-22.334	61.574	
86.00	-22.117	53.220	
87.00	-21.939	58.750	
88.00	-21.799	45.606	
89.00	-21.779	48.055	
90.00	-21.837	36.493	
91.00	-22.037	25.057	
92.00	-22.383	32.880	
93.00	-22.842	14.541	
94.00	-23.409	18.394	
95.00	-24.079	-7.933	
96.00	-24.775	-1.254	
97.00	-25.375	-22.442	
98.00	-25.765	-24.547	
99.00	-25.680	-53.619	
100.00	-25.218	-58.869	
101.00	-24.485	-76.310	
102.00	-23.669	-79.284	
103.00	-22.860	-84.389	
104.00	-22.187	-89.275	
105.00	-21.687	-100.619	
106.00	-21.371	-105.573	
107.00	-21.216	-102.071	
108.00	-21.300	-103.127	
109.00	-21.657	-112.234	
110.00	-22.249	-114.855	
111.00	-23.190	-121.156	
112.00	-24.443	-122.270	
113.00	-26.275	-125.792	
114.00	-28.677	-145.076	
115.00	-31.833	-148.422	
116.00	-34.325	158.653	
117.00	-32.825	119.695	
118.00	-29.485	105.115	
119.00	-26.901	92.739	
120.00	-24.907	75.145	
121.00	-23.515	72.775	
122.00	-22.558	81.160	
123.00	-21.942	67.223	
124.00	-21.637	67.022	
125.00	-21.604	64.227	
126.00	-21.861	74.280	
127.00	-22.425	53.354	
128.00	-23.357	73.667	
129.00	-24.621	61.155	
130.00	-26.437	79.084	
131.00	-28.839	81.399	
132.00	-31.779	97.521	
133.00	-33.871	134.372	
134.00	-32.216	161.407	
135.00	-29.237	-165.004	
136.00	-26.837	-172.947	
137.00	-25.017	-155.466	
138.00	-23.734	173.289	
139.00	-22.776	-161.588	
140.00	-22.168	-175.200	
141.00	-21.826	-159.921	
142.00	-21.710	-156.797	
143.00	-21.835	-159.694	
144.00	-22.143	-144.338	
145.00	-22.657	-148.980	
146.00	-23.268	-128.046	
147.00	-23.980	-130.281	
148.00	-24.655	-112.347	
149.00	-25.159	-108.703	
150.00	-25.338	-91.985	
151.00	-25.127	-84.030	
152.00	-24.637	-75.043	
153.00	-23.955	-65.168	
154.00	-23.275	-58.361	
155.00	-22.639	-51.698	
156.00	-22.130	-36.067	
157.00	-21.740	-46.930	
158.00	-21.494	-40.122	
159.00	-21.345	-41.929	
160.00	-21.320	-28.980	
161.00	-21.406	-29.194	
162.00	-21.576	-30.796	
163.00	-21.815	-15.717	
164.00	-22.082	-22.187	
165.00	-22.359	-1.721	
166.00	-22.594	-9.298	
167.00	-22.793	5.634	
168.00	-22.905	1.839	
169.00	-22.905	8.444	
170.00	-22.817	7.622	
171.00	-22.646	6.401	
172.00	-22.426	21.335	
173.00	-22.201	19.349	
174.00	-21.947	34.038	
175.00	-21.714	29.073	
176.00	-21.489	38.588	
177.00	-21.291	29.428	
178.00	-21.161	37.862	
179.00	-21.011	31.750	
180.00	-20.900	39.247	
181.00	-20.837	31.655	
182.00	-20.789	40.930	
183.00	-20.769	28.129	
184.00	-20.770	36.148	
185.00	-20.780	30.312	
186.00	-20.849	33.837	
187.00	-20.912	35.834	
188.00	-21.001	36.954	
189.00	-21.108	32.824	
190.00	-21.229	39.292	
191.00	-21.403	32.651	
192.00	-21.569	40.047	
193.00	-21.777	32.722	
194.00	-22.015	34.508	
195.00	-22.242	30.094	
196.00	-22.490	29.504	
197.00	-22.735	30.869	
198.00	-22.927	24.695	
199.00	-23.093	22.141	
200.00	-23.164	15.817	
201.00	-23.144	12.234	
202.00	-23.034	9.321	
203.00	-22.825	2.028	
204.00	-22.550	-2.322	
205.00	-22.266	-6.545	
206.00	-21.997	-11.450	
207.00	-21.756	-7.728	
208.00	-21.609	-21.466	
209.00	-21.582	-9.510	
210.00	-21.669	-35.017	
211.00	-21.854	-8.071	
212.00	-22.193	-39.521	
213.00	-22.683	-19.528	
214.00	-23.315	-52.042	
215.00	-24.043	-38.086	
216.00	-24.844	-45.202	
217.00	-25.641	-49.161	
218.00	-26.237	-71.087	
219.00	-26.428	-91.462	
220.00	-26.093	-97.853	
221.00	-25.471	-121.478	
222.00	-24.593	-118.506	
223.00	-23.857	-139.269	
224.00	-23.177	-142.969	
225.00	-22.706	-164.355	
226.00	-22.350	-153.343	
227.00	-22.266	-165.834	
228.00	-22.341	-153.368	
229.00	-22.715	-162.282	
230.00	-23.349	-163.957	
231.00	-24.324	-153.777	
232.00	-25.754	-173.521	
233.00	-27.648	-169.417	
234.00	-30.428	-174.138	
235.00	-34.218	-179.388	
236.00	-36.887	135.011	
237.00	-33.672	91.714	
238.00	-29.939	72.888	
239.00	-27.213	55.107	
240.00	-25.310	63.685	
241.00	-23.931	43.795	
242.00	-22.962	57.682	
243.00	-22.348	47.374	
244.00	-22.067	61.680	
245.00	-22.041	65.765	
246.00	-22.291	59.844	
247.00	-22.875	69.134	
248.00	-23.680	44.023	
249.00	-24.924	64.826	
250.00	-26.638	69.707	
251.00	-28.894	106.246	
252.00	-31.419	133.738	
253.00	-32.635	170.829	
254.00	-31.159	-159.099	
255.00	-28.617	-138.044	
256.00	-26.490	-119.052	
257.00	-24.777	-117.548	
258.00	-23.568	-117.796	
259.00	-22.642	-119.750	
260.00	-22.037	-100.086	
261.00	-21.693	-103.594	
262.00	-21.557	-94.748	
263.00	-21.633	-96.391	
264.00	-21.862	-75.813	
265.00	-22.280	-68.629	
266.00	-22.808	-66.425	
267.00	-23.379	-47.137	
268.00	-23.946	-47.355	
269.00	-24.386	-25.729	
270.00	-24.600	-21.239	
271.00	-24.515	-2.206	
272.00	-24.197	3.116	
273.00	-23.692	8.534	
274.00	-23.140	21.320	
275.00	-22.600	19.103	
276.00	-22.150	33.553	
277.00	-21.796	28.496	
278.00	-21.536	45.053	
279.00	-21.381	50.937	
280.00	-21.309	42.775	
281.00	-21.343	60.472	
282.00	-21.426	46.000	
283.00	-21.613	72.405	
284.00	-21.789	59.697	
285.00	-22.013	83.629	
286.00	-22.203	73.973	
287.00	-22.370	83.751	
288.00	-22.486	103.184	
289.00	-22.536	98.637	
290.00	-22.502	105.349	
291.00	-22.390	105.530	
292.00	-22.164	116.490	
293.00	-22.001	113.966	
294.00	-21.781	111.279	
295.00	-21.557	129.151	
296.00	-21.299	108.034	
297.00	-21.073	138.423	
298.00	-20.851	122.191	
299.00	-20.656	142.073	
300.00	-20.484	123.827	
301.00	-20.294	145.137	
302.00	-20.188	113.883	
303.00	-20.025	150.104	
304.00	-19.933	130.222	
305.00	-19.855	145.395	
306.00	-19.782	151.652	
307.00	-19.840	155.681	
308.00	-19.858	149.913	
309.00	-19.940	160.810	
310.00	-19.977	161.914	
311.00	-20.116	161.601	
312.00	-20.297	168.262	
313.00	-20.490	137.418	
314.00	-20.654	-172.869	
315.00	-20.911	144.825	
316.00	-21.111	-179.866	
317.00	-21.320	146.939	
318.00	-21.488	157.027	
319.00	-21.592	150.978	
320.00	-21.661	140.547	
321.00	-21.624	149.423	
322.00	-21.595	136.837	
323.00	-21.460	140.275	
324.00	-21.319	123.804	
325.00	-21.180	129.884	
326.00	-21.028	121.293	
327.00	-20.996	121.697	
328.00	-20.975	119.630	
329.00	-21.083	115.274	
330.00	-21.337	109.717	
331.00	-21.655	104.640	
332.00	-22.115	99.874	
333.00	-22.732	97.602	
334.00	-23.454	92.724	
335.00	-24.258	81.451	
336.00	-25.091	77.450	
337.00	-25.740	70.067	
338.00	-26.077	57.781	
339.00	-25.927	50.741	
340.00	-25.314	33.316	
341.00	-24.498	28.738	
342.00	-23.618	14.501	
343.00	-22.819	14.704	
344.00	-22.181	4.393	
345.00	-21.694	3.434	
346.00	-21.463	2.893	
347.00	-21.393	-3.117	
348.00	-21.602	2.129	
349.00	-22.011	-4.628	
350.00	-22.758	1.742	
351.00	-23.789	-7.968	
352.00	-25.245	-7.780	
353.00	-27.234	-15.818	
354.00	-29.834	-29.625	
355.00	-32.813	-51.629	
356.00	-33.617	-97.321	
357.00	-31.048	-123.006	
358.00	-28.044	-140.716	
359.00	-26.013	-143.291	
Frequency	2625.00	MHz	
Channel	test		
Scan Axis name	Azimuth  [deg]		
Scan Axis	Amplitude	Phase	
			
0.00	-24.037	73.027	
1.00	-22.769	32.091	
2.00	-21.911	43.877	
3.00	-21.360	24.387	
4.00	-21.108	41.984	
5.00	-21.149	30.481	
6.00	-21.457	40.763	
7.00	-22.116	25.693	
8.00	-23.068	23.700	
9.00	-24.437	40.046	
10.00	-26.364	32.426	
11.00	-28.818	54.503	
12.00	-31.680	45.059	
13.00	-32.913	100.041	
14.00	-30.637	134.253	
15.00	-27.736	156.649	
16.00	-25.462	178.172	
17.00	-23.729	151.772	
18.00	-22.442	173.145	
19.00	-21.563	151.892	
20.00	-20.967	175.393	
21.00	-20.621	163.181	
22.00	-20.497	179.412	
23.00	-20.620	175.681	
24.00	-20.938	-168.448	
25.00	-21.415	-178.003	
26.00	-22.111	-152.110	
27.00	-22.816	-161.065	
28.00	-23.639	-134.098	
29.00	-24.267	-141.925	
30.00	-24.684	-116.642	
31.00	-24.673	-115.757	
32.00	-24.249	-125.407	
33.00	-23.597	-119.058	
34.00	-22.923	-105.225	
35.00	-22.220	-80.928	
36.00	-21.620	-68.114	
37.00	-21.119	-58.125	
38.00	-20.752	-74.838	
39.00	-20.538	-86.976	
40.00	-20.388	-67.861	
41.00	-20.356	-108.409	
42.00	-20.466	-41.698	
43.00	-20.583	-77.872	
44.00	-20.753	-48.847	
45.00	-20.945	-70.335	
46.00	-21.148	-65.866	
47.00	-21.313	-68.406	
48.00	-21.451	-67.150	
49.00	-21.556	-42.840	
50.00	-21.584	-62.346	
51.00	-21.546	-44.858	
52.00	-21.416	-56.718	
53.00	-21.273	-32.012	
54.00	-21.077	-36.659	
55.00	-20.862	-27.251	
56.00	-20.649	-40.754	
57.00	-20.437	-30.730	
58.00	-20.253	-36.601	
59.00	-20.069	-16.393	
60.00	-19.899	-31.182	
61.00	-19.792	-17.245	
62.00	-19.708	-28.639	
63.00	-19.655	-34.663	
64.00	-19.614	-16.087	
65.00	-19.617	-35.264	
66.00	-19.656	-29.530	
67.00	-19.744	-46.061	
68.00	-19.852	-39.496	
69.00	-19.975	-27.329	
70.00	-20.175	-39.623	
71.00	-20.371	-27.861	
72.00	-20.667	-36.975	
73.00	-20.952	-14.848	
74.00	-21.288	-44.028	
75.00	-21.637	-21.162	
76.00	-22.008	-46.054	
77.00	-22.348	-33.851	
78.00	-22.670	-48.382	
79.00	-22.925	-57.635	
80.00	-23.028	-68.600	
81.00	-23.056	-82.047	
82.00	-23.004	-80.060	
83.00	-22.817	-85.115	
84.00	-22.528	-99.574	
85.00	-22.286	-97.323	
86.00	-21.994	-105.065	
87.00	-21.809	-100.360	
88.00	-21.624	-112.776	
89.00	-21.552	-110.630	
90.00	-21.569	-121.508	
91.00	-21.735	-132.563	
92.00	-22.066	-124.119	
93.00	-22.500	-141.975	
94.00	-23.114	-136.852	
95.00	-23.900	-162.843	
96.00	-24.752	-154.496	
97.00	-25.632	-175.556	
98.00	-26.289	-177.885	
99.00	-26.500	150.986	
100.00	-26.129	143.922	
101.00	-25.320	123.904	
102.00	-24.350	120.368	
103.00	-23.401	113.880	
104.00	-22.544	109.304	
105.00	-21.905	97.323	
106.00	-21.474	92.912	
107.00	-21.251	96.196	
108.00	-21.283	95.873	
109.00	-21.531	86.525	
110.00	-22.086	84.433	
111.00	-22.963	78.597	
112.00	-24.215	78.075	
113.00	-26.013	75.169	
114.00	-28.471	57.287	
115.00	-31.991	56.124	
116.00	-35.463	2.302	
117.00	-33.769	-44.702	
118.00	-29.902	-59.719	
119.00	-27.004	-72.149	
120.00	-24.913	-89.242	
121.00	-23.445	-90.929	
122.00	-22.441	-81.645	
123.00	-21.807	-96.564	
124.00	-21.497	-94.878	
125.00	-21.467	-98.781	
126.00	-21.732	-87.123	
127.00	-22.307	-109.103	
128.00	-23.303	-86.157	
129.00	-24.637	-100.212	
130.00	-26.432	-79.337	
131.00	-28.876	-76.878	
132.00	-31.626	-57.230	
133.00	-32.865	-19.473	
134.00	-30.927	3.112	
135.00	-28.143	33.819	
136.00	-25.937	25.111	
137.00	-24.264	42.087	
138.00	-23.049	11.395	
139.00	-22.168	36.340	
140.00	-21.620	23.080	
141.00	-21.318	38.542	
142.00	-21.277	41.812	
143.00	-21.420	39.385	
144.00	-21.790	54.593	
145.00	-22.318	50.723	
146.00	-22.975	71.771	
147.00	-23.695	70.480	
148.00	-24.381	88.527	
149.00	-24.826	93.148	
150.00	-24.950	109.639	
151.00	-24.660	118.168	
152.00	-24.107	126.751	
153.00	-23.401	136.617	
154.00	-22.711	143.424	
155.00	-22.095	150.073	
156.00	-21.587	166.251	
157.00	-21.217	154.903	
158.00	-20.954	162.309	
159.00	-20.812	160.539	
160.00	-20.814	174.123	
161.00	-20.874	173.819	
162.00	-21.040	172.866	
163.00	-21.264	-171.944	
164.00	-21.498	-177.631	
165.00	-21.770	-157.139	
166.00	-21.961	-164.556	
167.00	-22.120	-149.461	
168.00	-22.179	-153.287	
169.00	-22.163	-146.770	
170.00	-22.060	-148.206	
171.00	-21.905	-149.203	
172.00	-21.710	-134.977	
173.00	-21.475	-136.870	
174.00	-21.264	-122.707	
175.00	-21.058	-127.476	
176.00	-20.899	-118.577	
177.00	-20.712	-127.986	
178.00	-20.573	-119.868	
179.00	-20.434	-125.929	
180.00	-20.337	-119.110	
181.00	-20.242	-126.699	
182.00	-20.194	-117.993	
183.00	-20.130	-130.907	
184.00	-20.097	-123.276	
185.00	-20.088	-129.132	
186.00	-20.081	-126.112	
187.00	-20.114	-124.353	
188.00	-20.150	-123.141	
189.00	-20.218	-127.899	
190.00	-20.326	-121.212	
191.00	-20.432	-128.204	
192.00	-20.603	-120.864	
193.00	-20.773	-128.055	
194.00	-20.991	-126.312	
195.00	-21.245	-130.388	
196.00	-21.510	-130.757	
197.00	-21.786	-129.435	
198.00	-22.048	-135.158	
199.00	-22.260	-137.818	
200.00	-22.390	-143.800	
201.00	-22.447	-147.752	
202.00	-22.369	-150.363	
203.00	-22.203	-158.278	
204.00	-21.950	-162.542	
205.00	-21.649	-167.274	
206.00	-21.346	-172.331	
207.00	-21.068	-168.564	
208.00	-20.875	177.534	
209.00	-20.750	-170.517	
210.00	-20.763	164.174	
211.00	-20.862	-168.570	
212.00	-21.109	160.261	
213.00	-21.496	-179.065	
214.00	-22.084	148.809	
215.00	-22.770	163.906	
216.00	-23.613	158.469	
217.00	-24.486	154.931	
218.00	-25.229	133.974	
219.00	-25.587	113.890	
220.00	-25.559	105.690	
221.00	-25.015	81.772	
222.00	-24.197	82.884	
223.00	-23.286	60.637	
224.00	-22.518	56.013	
225.00	-21.906	34.138	
226.00	-21.457	44.516	
227.00	-21.233	31.896	
228.00	-21.218	43.444	
229.00	-21.476	34.645	
230.00	-21.977	32.509	
231.00	-22.794	42.360	
232.00	-23.979	22.325	
233.00	-25.605	27.122	
234.00	-27.837	22.979	
235.00	-30.955	21.464	
236.00	-33.947	-9.378	
237.00	-33.140	-55.362	
238.00	-29.701	-80.094	
239.00	-26.905	-102.103	
240.00	-24.828	-96.044	
241.00	-23.315	-116.651	
242.00	-22.267	-104.252	
243.00	-21.563	-114.930	
244.00	-21.196	-100.887	
245.00	-21.092	-97.962	
246.00	-21.308	-104.437	
247.00	-21.822	-96.283	
248.00	-22.582	-122.448	
249.00	-23.751	-102.562	
250.00	-25.468	-98.979	
251.00	-27.713	-64.980	
252.00	-30.639	-40.675	
253.00	-33.089	-4.958	
254.00	-32.057	33.843	
255.00	-29.007	58.625	
256.00	-26.474	79.008	
257.00	-24.543	79.483	
258.00	-23.109	79.829	
259.00	-22.126	76.856	
260.00	-21.404	96.623	
261.00	-21.006	91.767	
262.00	-20.831	100.698	
263.00	-20.882	98.195	
264.00	-21.087	118.697	
265.00	-21.491	124.498	
266.00	-22.099	125.869	
267.00	-22.785	144.990	
268.00	-23.515	143.720	
269.00	-24.194	165.873	
270.00	-24.640	170.587	
271.00	-24.726	-168.482	
272.00	-24.455	-161.714	
273.00	-23.878	-154.912	
274.00	-23.217	-140.414	
275.00	-22.535	-142.441	
276.00	-21.929	-127.062	
277.00	-21.430	-131.872	
278.00	-21.071	-115.222	
279.00	-20.798	-109.447	
280.00	-20.608	-118.052	
281.00	-20.588	-99.681	
282.00	-20.579	-115.207	
283.00	-20.706	-88.483	
284.00	-20.829	-102.073	
285.00	-21.055	-78.390	
286.00	-21.209	-88.392	
287.00	-21.436	-78.842	
288.00	-21.623	-59.105	
289.00	-21.726	-65.313	
290.00	-21.784	-57.439	
291.00	-21.730	-57.647	
292.00	-21.604	-46.156	
293.00	-21.468	-49.072	
294.00	-21.338	-50.160	
295.00	-21.107	-33.207	
296.00	-20.933	-53.377	
297.00	-20.709	-23.042	
298.00	-20.482	-39.072	
299.00	-20.325	-19.646	
300.00	-20.176	-37.557	
301.00	-20.002	-17.192	
302.00	-19.906	-47.602	
303.00	-19.749	-12.434	
304.00	-19.685	-32.234	
305.00	-19.666	-16.760	
306.00	-19.602	-11.386	
307.00	-19.666	-6.238	
308.00	-19.720	-13.992	
309.00	-19.786	-0.930	
310.00	-19.869	-1.736	
311.00	-20.007	-0.214	
312.00	-20.183	5.181	
313.00	-20.376	-23.874	
314.00	-20.581	25.177	
315.00	-20.819	-16.142	
316.00	-21.066	18.955	
317.00	-21.291	-13.243	
318.00	-21.490	-3.323	
319.00	-21.627	-9.015	
320.00	-21.681	-18.932	
321.00	-21.702	-10.751	
322.00	-21.621	-22.743	
323.00	-21.457	-20.365	
324.00	-21.292	-36.220	
325.00	-21.065	-31.138	
326.00	-20.877	-39.160	
327.00	-20.719	-39.409	
328.00	-20.641	-41.569	
329.00	-20.647	-46.144	
330.00	-20.745	-51.319	
331.00	-20.984	-56.557	
332.00	-21.334	-61.030	
333.00	-21.816	-62.931	
334.00	-22.469	-67.569	
335.00	-23.264	-77.231	
336.00	-24.090	-81.073	
337.00	-24.866	-86.718	
338.00	-25.394	-99.133	
339.00	-25.492	-105.737	
340.00	-25.099	-124.534	
341.00	-24.343	-130.002	
342.00	-23.468	-145.437	
343.00	-22.656	-146.016	
344.00	-21.959	-156.864	
345.00	-21.485	-158.536	
346.00	-21.168	-159.140	
347.00	-21.069	-165.503	
348.00	-21.211	-160.035	
349.00	-21.598	-166.731	
350.00	-22.285	-160.008	
351.00	-23.293	-169.214	
352.00	-24.696	-168.421	
353.00	-26.723	-175.112	
354.00	-29.415	172.776	
355.00	-32.970	153.207	
356.00	-34.655	103.569	
357.00	-31.743	71.990	
358.00	-28.373	53.199	
359.00	-26.146	51.048	
Frequency	2650.00	MHz	
Channel	test		
Scan Axis name	Azimuth  [deg]		
Scan Axis	Amplitude	Phase	
			
0.00	-24.777	-97.328	
1.00	-23.404	-138.050	
2.00	-22.535	-125.720	
3.00	-21.939	-145.215	
4.00	-21.689	-127.165	
5.00	-21.706	-138.636	
6.00	-22.029	-128.786	
7.00	-22.652	-143.436	
8.00	-23.621	-145.815	
9.00	-24.968	-128.483	
10.00	-26.889	-137.243	
11.00	-29.468	-113.637	
12.00	-32.247	-123.575	
13.00	-33.254	-66.614	
14.00	-30.881	-34.326	
15.00	-28.061	-11.618	
16.00	-25.785	8.059	
17.00	-24.102	-18.058	
18.00	-22.848	2.707	
19.00	-22.031	-18.308	
20.00	-21.448	4.379	
21.00	-21.132	-6.753	
22.00	-21.044	8.780	
23.00	-21.202	5.969	
24.00	-21.536	22.095	
25.00	-22.082	12.580	
26.00	-22.750	39.998	
27.00	-23.506	31.011	
28.00	-24.204	59.947	
29.00	-24.711	52.768	
30.00	-24.821	78.892	
31.00	-24.568	79.019	
32.00	-24.013	68.730	
33.00	-23.253	74.041	
34.00	-22.516	87.392	
35.00	-21.793	110.431	
36.00	-21.233	122.646	
37.00	-20.813	131.886	
38.00	-20.544	115.887	
39.00	-20.385	102.843	
40.00	-20.375	122.941	
41.00	-20.395	82.287	
42.00	-20.605	150.768	
43.00	-20.795	112.936	
44.00	-21.043	145.293	
45.00	-21.276	122.653	
46.00	-21.497	129.944	
47.00	-21.671	126.556	
48.00	-21.816	130.878	
49.00	-21.840	154.363	
50.00	-21.737	136.580	
51.00	-21.641	152.521	
52.00	-21.502	142.260	
53.00	-21.276	165.549	
54.00	-21.082	161.693	
55.00	-20.882	169.204	
56.00	-20.719	155.952	
57.00	-20.536	164.906	
58.00	-20.409	158.686	
59.00	-20.288	178.423	
60.00	-20.203	162.750	
61.00	-20.133	176.700	
62.00	-20.075	164.672	
63.00	-20.051	158.294	
64.00	-20.050	177.018	
65.00	-20.046	157.477	
66.00	-20.081	163.495	
67.00	-20.107	146.441	
68.00	-20.192	154.013	
69.00	-20.331	165.791	
70.00	-20.444	154.519	
71.00	-20.623	165.900	
72.00	-20.835	158.514	
73.00	-21.132	179.711	
74.00	-21.363	152.753	
75.00	-21.664	174.943	
76.00	-21.983	152.076	
77.00	-22.350	163.672	
78.00	-22.659	150.560	
79.00	-22.978	141.558	
80.00	-23.176	131.567	
81.00	-23.301	117.883	
82.00	-23.311	119.715	
83.00	-23.165	113.651	
84.00	-22.938	98.897	
85.00	-22.663	99.912	
86.00	-22.355	92.380	
87.00	-22.034	95.364	
88.00	-21.807	83.560	
89.00	-21.645	84.848	
90.00	-21.599	73.951	
91.00	-21.684	62.792	
92.00	-21.848	71.782	
93.00	-22.291	53.799	
94.00	-22.752	59.922	
95.00	-23.504	34.292	
96.00	-24.323	44.291	
97.00	-25.225	24.488	
98.00	-26.074	23.940	
99.00	-26.647	-6.436	
100.00	-26.688	-14.061	
101.00	-26.212	-36.010	
102.00	-25.344	-40.908	
103.00	-24.381	-49.796	
104.00	-23.472	-54.947	
105.00	-22.736	-68.628	
106.00	-22.234	-72.962	
107.00	-21.942	-70.504	
108.00	-21.914	-70.722	
109.00	-22.105	-81.212	
110.00	-22.592	-82.921	
111.00	-23.383	-89.206	
112.00	-24.569	-89.800	
113.00	-26.247	-92.724	
114.00	-28.464	-110.260	
115.00	-31.677	-110.905	
116.00	-34.809	-159.109	
117.00	-34.138	156.131	
118.00	-30.678	138.935	
119.00	-27.847	124.319	
120.00	-25.760	107.116	
121.00	-24.277	104.606	
122.00	-23.266	113.450	
123.00	-22.651	97.406	
124.00	-22.339	100.441	
125.00	-22.352	95.087	
126.00	-22.638	107.615	
127.00	-23.290	84.642	
128.00	-24.265	108.739	
129.00	-25.716	93.450	
130.00	-27.664	115.661	
131.00	-30.200	117.970	
132.00	-33.110	140.913	
133.00	-33.951	-179.289	
134.00	-31.477	-158.202	
135.00	-28.676	-128.746	
136.00	-26.520	-139.201	
137.00	-24.957	-122.630	
138.00	-23.805	-153.814	
139.00	-23.037	-128.801	
140.00	-22.564	-141.989	
141.00	-22.364	-126.398	
142.00	-22.424	-123.027	
143.00	-22.656	-124.933	
144.00	-23.094	-109.196	
145.00	-23.720	-112.161	
146.00	-24.428	-90.142	
147.00	-25.158	-89.766	
148.00	-25.733	-70.526	
149.00	-25.979	-64.254	
150.00	-25.752	-48.064	
151.00	-25.222	-39.479	
152.00	-24.447	-32.389	
153.00	-23.676	-23.678	
154.00	-22.981	-17.617	
155.00	-22.381	-11.913	
156.00	-21.879	4.090	
157.00	-21.585	-8.409	
158.00	-21.360	-0.833	
159.00	-21.272	-3.150	
160.00	-21.286	10.872	
161.00	-21.417	10.406	
162.00	-21.614	10.021	
163.00	-21.845	25.313	
164.00	-22.109	20.270	
165.00	-22.311	41.234	
166.00	-22.500	34.295	
167.00	-22.564	49.396	
168.00	-22.580	46.275	
169.00	-22.493	52.711	
170.00	-22.357	51.136	
171.00	-22.168	50.357	
172.00	-21.940	64.193	
173.00	-21.756	62.861	
174.00	-21.536	76.085	
175.00	-21.401	71.622	
176.00	-21.234	80.131	
177.00	-21.195	70.856	
178.00	-21.115	78.486	
179.00	-21.101	72.386	
180.00	-21.094	78.479	
181.00	-21.098	71.171	
182.00	-21.093	79.425	
183.00	-21.120	66.448	
184.00	-21.145	73.467	
185.00	-21.157	67.535	
186.00	-21.205	69.926	
187.00	-21.197	71.794	
188.00	-21.245	73.039	
189.00	-21.270	67.685	
190.00	-21.338	74.858	
191.00	-21.423	67.595	
192.00	-21.511	75.343	
193.00	-21.657	68.051	
194.00	-21.833	70.199	
195.00	-22.061	66.413	
196.00	-22.291	66.244	
197.00	-22.578	68.065	
198.00	-22.835	62.698	
199.00	-23.126	60.168	
200.00	-23.375	54.586	
201.00	-23.525	50.188	
202.00	-23.574	47.216	
203.00	-23.514	38.272	
204.00	-23.307	32.985	
205.00	-23.005	27.137	
206.00	-22.664	21.308	
207.00	-22.316	24.339	
208.00	-22.023	9.151	
209.00	-21.830	20.986	
210.00	-21.731	-4.904	
211.00	-21.730	22.716	
212.00	-21.911	-9.152	
213.00	-22.232	12.546	
214.00	-22.728	-20.247	
215.00	-23.352	-4.493	
216.00	-24.129	-9.053	
217.00	-25.038	-11.894	
218.00	-25.894	-32.359	
219.00	-26.486	-52.118	
220.00	-26.593	-61.338	
221.00	-26.116	-86.197	
222.00	-25.323	-86.525	
223.00	-24.392	-109.582	
224.00	-23.527	-114.618	
225.00	-22.862	-137.407	
226.00	-22.317	-126.813	
227.00	-22.042	-139.176	
228.00	-21.977	-127.911	
229.00	-22.168	-136.276	
230.00	-22.614	-138.573	
231.00	-23.431	-128.753	
232.00	-24.577	-148.914	
233.00	-26.218	-143.874	
234.00	-28.515	-147.901	
235.00	-31.597	-150.371	
236.00	-34.577	178.428	
237.00	-33.417	132.374	
238.00	-29.954	108.349	
239.00	-27.182	87.521	
240.00	-25.143	93.166	
241.00	-23.695	73.788	
242.00	-22.642	85.685	
243.00	-22.006	76.015	
244.00	-21.626	90.216	
245.00	-21.596	92.959	
246.00	-21.859	87.346	
247.00	-22.445	95.156	
248.00	-23.357	70.030	
249.00	-24.553	90.724	
250.00	-26.340	95.455	
251.00	-28.698	130.416	
252.00	-31.642	157.589	
253.00	-33.365	-163.114	
254.00	-31.631	-127.665	
255.00	-28.668	-107.016	
256.00	-26.383	-86.986	
257.00	-24.601	-87.910	
258.00	-23.280	-87.190	
259.00	-22.388	-90.340	
260.00	-21.829	-69.593	
261.00	-21.477	-74.914	
262.00	-21.397	-64.947	
263.00	-21.518	-67.562	
264.00	-21.850	-45.373	
265.00	-22.350	-39.518	
266.00	-22.966	-36.759	
267.00	-23.637	-16.225	
268.00	-24.319	-16.196	
269.00	-24.788	7.344	
270.00	-24.965	12.828	
271.00	-24.773	33.383	
272.00	-24.267	39.270	
273.00	-23.623	44.120	
274.00	-22.917	58.034	
275.00	-22.274	54.440	
276.00	-21.720	69.232	
277.00	-21.287	63.772	
278.00	-20.971	80.274	
279.00	-20.778	86.306	
280.00	-20.662	77.068	
281.00	-20.665	96.156	
282.00	-20.722	80.412	
283.00	-20.826	107.894	
284.00	-20.962	94.526	
285.00	-21.115	118.693	
286.00	-21.294	109.223	
287.00	-21.456	119.024	
288.00	-21.535	139.593	
289.00	-21.574	132.619	
290.00	-21.525	141.642	
291.00	-21.436	141.307	
292.00	-21.255	152.439	
293.00	-21.105	148.817	
294.00	-20.973	148.628	
295.00	-20.767	164.261	
296.00	-20.596	144.858	
297.00	-20.445	174.798	
298.00	-20.263	158.793	
299.00	-20.144	177.573	
300.00	-20.074	160.684	
301.00	-19.992	179.550	
302.00	-19.915	150.805	
303.00	-19.881	-174.949	
304.00	-19.835	165.667	
305.00	-19.790	-178.280	
306.00	-19.821	-173.628	
307.00	-19.883	-167.002	
308.00	-19.952	-176.581	
309.00	-20.028	-161.295	
310.00	-20.134	-163.666	
311.00	-20.246	-160.826	
312.00	-20.420	-156.489	
313.00	-20.608	176.026	
314.00	-20.807	-135.712	
315.00	-21.070	-176.423	
316.00	-21.250	-141.638	
317.00	-21.467	-173.496	
318.00	-21.679	-163.206	
319.00	-21.842	-169.092	
320.00	-21.977	-178.581	
321.00	-22.049	-171.048	
322.00	-22.074	177.479	
323.00	-21.993	178.757	
324.00	-21.862	162.761	
325.00	-21.704	166.237	
326.00	-21.484	158.337	
327.00	-21.375	156.926	
328.00	-21.264	154.718	
329.00	-21.227	148.769	
330.00	-21.291	143.726	
331.00	-21.477	137.415	
332.00	-21.797	133.384	
333.00	-22.247	131.547	
334.00	-22.820	126.469	
335.00	-23.557	117.953	
336.00	-24.357	113.563	
337.00	-25.152	109.755	
338.00	-25.786	96.943	
339.00	-25.952	91.792	
340.00	-25.713	71.250	
341.00	-25.082	65.963	
342.00	-24.260	49.365	
343.00	-23.428	48.097	
344.00	-22.698	36.816	
345.00	-22.155	34.668	
346.00	-21.832	34.254	
347.00	-21.674	27.424	
348.00	-21.779	33.020	
349.00	-22.125	26.277	
350.00	-22.801	33.147	
351.00	-23.781	24.292	
352.00	-25.200	25.263	
353.00	-27.234	19.454	
354.00	-30.087	8.196	
355.00	-34.110	-9.667	
356.00	-36.435	-64.323	
357.00	-33.060	-99.336	
358.00	-29.217	-118.295	
359.00	-26.846	-119.968	
Frequency	2675.00	MHz	
Channel	test		
Scan Axis name	Azimuth  [deg]		
Scan Axis	Amplitude	Phase	
			
0.00	-25.792	98.366	
1.00	-24.463	57.527	
2.00	-23.588	69.792	
3.00	-22.980	50.740	
4.00	-22.726	69.015	
5.00	-22.769	57.213	
6.00	-23.078	67.083	
7.00	-23.753	52.230	
8.00	-24.733	49.536	
9.00	-26.190	67.655	
10.00	-28.187	57.005	
11.00	-30.888	81.970	
12.00	-33.923	71.584	
13.00	-34.911	133.333	
14.00	-32.064	164.681	
15.00	-29.072	-172.854	
16.00	-26.788	-155.577	
17.00	-25.163	179.465	
18.00	-23.927	-161.393	
19.00	-23.144	178.682	
20.00	-22.557	-160.553	
21.00	-22.305	-170.397	
22.00	-22.276	-156.168	
23.00	-22.456	-158.514	
24.00	-22.832	-142.804	
25.00	-23.380	-152.767	
26.00	-24.142	-124.907	
27.00	-24.909	-134.421	
28.00	-25.683	-104.583	
29.00	-26.142	-112.267	
30.00	-26.304	-85.615	
31.00	-25.946	-86.188	
32.00	-25.278	-96.774	
33.00	-24.524	-91.582	
34.00	-23.819	-77.959	
35.00	-23.173	-54.434	
36.00	-22.630	-42.118	
37.00	-22.211	-33.191	
38.00	-21.929	-49.096	
39.00	-21.771	-62.929	
40.00	-21.745	-41.029	
41.00	-21.786	-82.808	
42.00	-21.993	-11.622	
43.00	-22.136	-51.815	
44.00	-22.382	-16.513	
45.00	-22.539	-40.837	
46.00	-22.700	-31.545	
47.00	-22.811	-36.309	
48.00	-22.868	-30.480	
49.00	-22.822	-7.896	
50.00	-22.765	-25.150	
51.00	-22.620	-10.238	
52.00	-22.466	-19.141	
53.00	-22.262	3.203	
54.00	-22.108	0.000	
55.00	-21.935	6.577	
56.00	-21.767	-6.496	
57.00	-21.664	2.871	
58.00	-21.542	-3.646	
59.00	-21.478	17.029	
60.00	-21.398	0.323	
61.00	-21.343	15.326	
62.00	-21.278	2.700	
63.00	-21.237	-3.510	
64.00	-21.195	15.809	
65.00	-21.144	-4.433	
66.00	-21.123	1.627	
67.00	-21.124	-15.740	
68.00	-21.145	-7.749	
69.00	-21.176	4.148	
70.00	-21.211	-7.554	
71.00	-21.312	3.999	
72.00	-21.463	-2.468	
73.00	-21.594	17.905	
74.00	-21.789	-7.970	
75.00	-22.026	13.343	
76.00	-22.328	-8.235	
77.00	-22.630	2.889	
78.00	-22.952	-9.089	
79.00	-23.298	-19.020	
80.00	-23.535	-27.841	
81.00	-23.729	-41.793	
82.00	-23.824	-39.702	
83.00	-23.796	-46.189	
84.00	-23.636	-61.483	
85.00	-23.422	-61.228	
86.00	-23.106	-68.934	
87.00	-22.817	-67.112	
88.00	-22.523	-78.988	
89.00	-22.318	-78.980	
90.00	-22.216	-89.772	
91.00	-22.204	-101.773	
92.00	-22.355	-92.655	
93.00	-22.609	-111.256	
94.00	-23.046	-104.778	
95.00	-23.606	-130.726	
96.00	-24.321	-120.080	
97.00	-25.070	-139.373	
98.00	-25.819	-138.477	
99.00	-26.378	-167.554	
100.00	-26.526	-173.686	
101.00	-26.212	164.762	
102.00	-25.512	160.624	
103.00	-24.685	150.492	
104.00	-23.864	145.238	
105.00	-23.187	130.272	
106.00	-22.704	126.188	
107.00	-22.415	127.678	
108.00	-22.367	127.453	
109.00	-22.563	115.867	
110.00	-23.011	113.888	
111.00	-23.794	106.806	
112.00	-24.965	105.655	
113.00	-26.569	101.186	
114.00	-28.688	82.254	
115.00	-31.428	79.663	
116.00	-33.557	32.545	
117.00	-32.786	-3.799	
118.00	-30.030	-18.375	
119.00	-27.580	-33.887	
120.00	-25.660	-52.108	
121.00	-24.269	-54.651	
122.00	-23.305	-45.572	
123.00	-22.722	-63.284	
124.00	-22.456	-59.185	
125.00	-22.466	-66.151	
126.00	-22.804	-52.985	
127.00	-23.475	-77.193	
128.00	-24.565	-51.900	
129.00	-26.024	-69.730	
130.00	-28.126	-45.973	
131.00	-30.971	-44.915	
132.00	-34.248	-19.575	
133.00	-34.925	25.243	
134.00	-31.843	46.239	
135.00	-28.883	74.341	
136.00	-26.635	62.717	
137.00	-25.065	78.592	
138.00	-23.874	47.284	
139.00	-23.159	71.769	
140.00	-22.675	58.779	
141.00	-22.479	74.041	
142.00	-22.532	77.114	
143.00	-22.799	75.365	
144.00	-23.269	90.882	
145.00	-23.923	88.420	
146.00	-24.641	110.188	
147.00	-25.367	111.210	
148.00	-25.886	130.302	
149.00	-26.111	136.851	
150.00	-25.857	152.361	
151.00	-25.297	161.195	
152.00	-24.532	167.863	
153.00	-23.743	176.146	
154.00	-23.032	-177.871	
155.00	-22.448	-172.618	
156.00	-21.994	-156.618	
157.00	-21.678	-169.699	
158.00	-21.505	-161.840	
159.00	-21.466	-164.584	
160.00	-21.507	-150.554	
161.00	-21.641	-151.387	
162.00	-21.852	-151.417	
163.00	-22.108	-136.452	
164.00	-22.347	-141.100	
165.00	-22.573	-120.467	
166.00	-22.707	-127.238	
167.00	-22.785	-112.391	
168.00	-22.729	-115.390	
169.00	-22.631	-109.212	
170.00	-22.438	-111.288	
171.00	-22.228	-111.772	
172.00	-21.997	-98.308	
173.00	-21.783	-99.248	
174.00	-21.582	-86.757	
175.00	-21.422	-90.700	
176.00	-21.316	-82.625	
177.00	-21.225	-91.535	
178.00	-21.185	-84.168	
179.00	-21.175	-89.775	
180.00	-21.197	-83.968	
181.00	-21.207	-90.804	
182.00	-21.265	-83.010	
183.00	-21.296	-95.606	
184.00	-21.376	-88.781	
185.00	-21.415	-94.156	
186.00	-21.453	-91.980	
187.00	-21.506	-90.291	
188.00	-21.547	-88.574	
189.00	-21.566	-94.286	
190.00	-21.624	-86.699	
191.00	-21.645	-94.543	
192.00	-21.703	-86.253	
193.00	-21.795	-93.716	
194.00	-21.900	-91.374	
195.00	-22.037	-94.905	
196.00	-22.211	-94.756	
197.00	-22.422	-92.629	
198.00	-22.666	-97.475	
199.00	-22.902	-99.726	
200.00	-23.155	-104.447	
201.00	-23.355	-108.507	
202.00	-23.469	-110.717	
203.00	-23.503	-119.778	
204.00	-23.409	-124.751	
205.00	-23.211	-131.056	
206.00	-22.957	-137.399	
207.00	-22.666	-135.061	
208.00	-22.402	-151.128	
209.00	-22.198	-139.831	
210.00	-22.078	-166.282	
211.00	-22.065	-139.291	
212.00	-22.172	-171.967	
213.00	-22.418	-150.329	
214.00	-22.806	176.387	
215.00	-23.339	-167.792	
216.00	-24.022	-171.910	
217.00	-24.858	-174.581	
218.00	-25.658	166.393	
219.00	-26.356	148.234	
220.00	-26.690	139.353	
221.00	-26.524	115.361	
222.00	-25.931	113.950	
223.00	-25.144	89.119	
224.00	-24.353	82.831	
225.00	-23.616	58.840	
226.00	-23.151	68.671	
227.00	-22.785	55.707	
228.00	-22.704	66.021	
229.00	-22.835	57.536	
230.00	-23.247	54.583	
231.00	-23.991	64.014	
232.00	-25.067	42.981	
233.00	-26.596	48.172	
234.00	-28.775	43.807	
235.00	-31.611	41.429	
236.00	-34.293	12.852	
237.00	-33.615	-29.982	
238.00	-30.559	-55.024	
239.00	-27.893	-77.326	
240.00	-25.879	-72.748	
241.00	-24.439	-91.961	
242.00	-23.426	-81.345	
243.00	-22.781	-90.879	
244.00	-22.459	-77.018	
245.00	-22.420	-74.856	
246.00	-22.723	-80.410	
247.00	-23.354	-73.202	
248.00	-24.271	-98.530	
249.00	-25.641	-78.346	
250.00	-27.691	-73.087	
251.00	-30.574	-37.249	
252.00	-34.072	-5.706	
253.00	-35.369	42.893	
254.00	-32.235	78.168	
255.00	-28.944	94.163	
256.00	-26.551	112.753	
257.00	-24.866	109.483	
258.00	-23.632	110.343	
259.00	-22.801	106.391	
260.00	-22.240	127.286	
261.00	-21.983	121.058	
262.00	-21.953	131.307	
263.00	-22.130	128.578	
264.00	-22.483	151.250	
265.00	-23.014	157.013	
266.00	-23.663	160.176	
267.00	-24.365	-178.537	
268.00	-24.974	-178.027	
269.00	-25.398	-154.243	
270.00	-25.454	-148.855	
271.00	-25.146	-128.581	
272.00	-24.623	-123.231	
273.00	-23.938	-119.326	
274.00	-23.296	-105.572	
275.00	-22.696	-109.998	
276.00	-22.216	-95.158	
277.00	-21.837	-100.729	
278.00	-21.572	-84.507	
279.00	-21.432	-78.415	
280.00	-21.380	-88.181	
281.00	-21.444	-68.439	
282.00	-21.536	-84.734	
283.00	-21.716	-56.813	
284.00	-21.884	-70.238	
285.00	-22.085	-45.922	
286.00	-22.273	-55.322	
287.00	-22.407	-45.361	
288.00	-22.485	-23.837	
289.00	-22.484	-32.591	
290.00	-22.417	-22.125	
291.00	-22.293	-23.069	
292.00	-22.081	-12.235	
293.00	-21.918	-16.746	
294.00	-21.708	-15.790	
295.00	-21.545	-1.055	
296.00	-21.310	-20.470	
297.00	-21.167	9.995	
298.00	-20.990	-6.432	
299.00	-20.913	12.485	
300.00	-20.786	-3.745	
301.00	-20.727	14.479	
302.00	-20.613	-13.382	
303.00	-20.594	20.410	
304.00	-20.511	1.637	
305.00	-20.568	18.670	
306.00	-20.517	22.410	
307.00	-20.594	30.822	
308.00	-20.658	19.185	
309.00	-20.746	36.981	
310.00	-20.822	32.843	
311.00	-20.931	37.611	
312.00	-21.127	40.307	
313.00	-21.278	14.361	
314.00	-21.561	61.773	
315.00	-21.735	21.682	
316.00	-22.035	55.528	
317.00	-22.231	24.258	
318.00	-22.451	33.795	
319.00	-22.632	27.887	
320.00	-22.767	18.460	
321.00	-22.834	25.197	
322.00	-22.786	14.152	
323.00	-22.705	14.712	
324.00	-22.546	-0.759	
325.00	-22.374	2.506	
326.00	-22.233	-4.694	
327.00	-22.090	-6.383	
328.00	-22.035	-8.434	
329.00	-22.001	-14.333	
330.00	-22.130	-19.203	
331.00	-22.319	-25.513	
332.00	-22.679	-29.685	
333.00	-23.200	-31.373	
334.00	-23.832	-37.163	
335.00	-24.579	-45.215	
336.00	-25.399	-50.464	
337.00	-26.189	-53.726	
338.00	-26.783	-67.534	
339.00	-27.003	-72.514	
340.00	-26.640	-92.893	
341.00	-25.957	-98.207	
342.00	-25.094	-114.206	
343.00	-24.281	-115.635	
344.00	-23.561	-126.332	
345.00	-23.035	-128.514	
346.00	-22.701	-128.738	
347.00	-22.576	-135.385	
348.00	-22.660	-129.551	
349.00	-23.023	-136.066	
350.00	-23.655	-129.407	
351.00	-24.623	-137.915	
352.00	-26.031	-137.083	
353.00	-28.024	-142.292	
354.00	-30.812	-152.809	
355.00	-34.867	-168.301	
356.00	-37.878	136.522	
357.00	-34.514	98.145	
358.00	-30.510	77.743	
359.00	-28.103	76.535	
Frequency	2690.00	MHz	
Channel	test		
Scan Axis name	Azimuth  [deg]		
Scan Axis	Amplitude	Phase	
			
0.00	-26.723	-140.126	
1.00	-25.303	179.493	
2.00	-24.335	-168.724	
3.00	-23.714	172.534	
4.00	-23.410	-169.570	
5.00	-23.407	178.819	
6.00	-23.726	-172.172	
7.00	-24.348	173.492	
8.00	-25.323	170.239	
9.00	-26.740	-171.209	
10.00	-28.787	176.924	
11.00	-31.451	-158.257	
12.00	-34.416	-169.554	
13.00	-35.869	-107.535	
14.00	-33.165	-75.008	
15.00	-30.118	-50.176	
16.00	-27.796	-33.931	
17.00	-26.075	-58.631	
18.00	-24.861	-40.150	
19.00	-24.018	-59.380	
20.00	-23.523	-39.291	
21.00	-23.240	-48.168	
22.00	-23.254	-34.134	
23.00	-23.473	-35.872	
24.00	-23.887	-19.581	
25.00	-24.508	-29.962	
26.00	-25.257	0.072	
27.00	-26.036	-10.187	
28.00	-26.687	21.393	
29.00	-27.102	13.645	
30.00	-27.079	40.659	
31.00	-26.672	39.327	
32.00	-25.997	28.445	
33.00	-25.229	32.987	
34.00	-24.483	46.458	
35.00	-23.852	69.773	
36.00	-23.362	81.875	
37.00	-22.979	90.330	
38.00	-22.744	74.746	
39.00	-22.602	60.181	
40.00	-22.618	82.801	
41.00	-22.659	40.158	
42.00	-22.873	113.380	
43.00	-23.039	70.974	
44.00	-23.256	108.754	
45.00	-23.417	82.261	
46.00	-23.547	93.408	
47.00	-23.606	86.996	
48.00	-23.635	94.678	
49.00	-23.561	115.874	
50.00	-23.491	99.647	
51.00	-23.314	112.967	
52.00	-23.142	105.350	
53.00	-22.885	126.879	
54.00	-22.737	124.441	
55.00	-22.530	129.821	
56.00	-22.366	117.245	
57.00	-22.238	126.662	
58.00	-22.141	120.086	
59.00	-22.007	140.825	
60.00	-21.932	123.904	
61.00	-21.870	139.148	
62.00	-21.822	126.187	
63.00	-21.784	119.978	
64.00	-21.703	139.481	
65.00	-21.694	118.953	
66.00	-21.684	125.157	
67.00	-21.669	107.287	
68.00	-21.671	115.627	
69.00	-21.672	127.081	
70.00	-21.753	115.550	
71.00	-21.819	126.349	
72.00	-21.958	120.596	
73.00	-22.092	139.436	
74.00	-22.294	114.469	
75.00	-22.507	134.325	
76.00	-22.778	113.580	
77.00	-23.047	123.454	
78.00	-23.347	112.198	
79.00	-23.666	101.180	
80.00	-23.873	93.279	
81.00	-24.046	78.721	
82.00	-24.104	81.386	
83.00	-24.031	74.717	
84.00	-23.878	59.880	
85.00	-23.630	59.892	
86.00	-23.360	53.066	
87.00	-23.078	54.091	
88.00	-22.822	43.150	
89.00	-22.619	42.490	
90.00	-22.533	32.030	
91.00	-22.531	20.138	
92.00	-22.713	29.310	
93.00	-22.986	10.376	
94.00	-23.415	17.292	
95.00	-24.016	-8.924	
96.00	-24.760	1.997	
97.00	-25.559	-17.811	
98.00	-26.348	-16.926	
99.00	-26.939	-46.593	
100.00	-27.066	-53.100	
101.00	-26.732	-75.185	
102.00	-25.990	-78.963	
103.00	-25.141	-89.862	
104.00	-24.270	-94.626	
105.00	-23.568	-110.230	
106.00	-23.043	-113.528	
107.00	-22.736	-112.518	
108.00	-22.677	-112.213	
109.00	-22.864	-124.298	
110.00	-23.315	-125.586	
111.00	-24.090	-132.527	
112.00	-25.254	-133.286	
113.00	-26.914	-137.507	
114.00	-29.164	-155.232	
115.00	-32.138	-157.305	
116.00	-34.962	154.099	
117.00	-34.189	112.195	
118.00	-30.906	97.265	
119.00	-28.213	81.351	
120.00	-26.157	63.461	
121.00	-24.716	61.310	
122.00	-23.727	70.887	
123.00	-23.121	51.989	
124.00	-22.842	57.855	
125.00	-22.852	49.466	
126.00	-23.202	63.911	
127.00	-23.859	38.268	
128.00	-24.994	65.800	
129.00	-26.487	45.758	
130.00	-28.664	71.749	
131.00	-31.653	72.481	
132.00	-34.901	101.283	
133.00	-34.993	146.590	
134.00	-31.733	165.501	
135.00	-28.780	-168.232	
136.00	-26.658	179.591	
137.00	-25.143	-165.494	
138.00	-24.057	163.784	
139.00	-23.309	-172.496	
140.00	-22.893	174.809	
141.00	-22.734	-170.300	
142.00	-22.819	-167.554	
143.00	-23.140	-169.068	
144.00	-23.644	-153.921	
145.00	-24.360	-155.885	
146.00	-25.146	-134.461	
147.00	-25.925	-132.391	
148.00	-26.495	-113.301	
149.00	-26.651	-105.375	
150.00	-26.356	-90.009	
151.00	-25.673	-80.868	
152.00	-24.833	-74.602	
153.00	-24.017	-66.775	
154.00	-23.292	-60.805	
155.00	-22.733	-56.231	
156.00	-22.292	-40.023	
157.00	-22.017	-54.014	
158.00	-21.887	-45.743	
159.00	-21.871	-48.833	
160.00	-21.972	-34.587	
161.00	-22.171	-35.578	
162.00	-22.407	-35.113	
163.00	-22.700	-20.200	
164.00	-22.975	-24.234	
165.00	-23.219	-3.536	
166.00	-23.354	-9.961	
167.00	-23.393	4.932	
168.00	-23.318	2.306	
169.00	-23.179	8.270	
170.00	-22.944	5.869	
171.00	-22.697	5.680	
172.00	-22.465	18.730	
173.00	-22.209	17.975	
174.00	-22.023	29.893	
175.00	-21.857	26.149	
176.00	-21.757	33.810	
177.00	-21.691	25.103	
178.00	-21.666	32.119	
179.00	-21.701	26.854	
180.00	-21.747	32.439	
181.00	-21.800	25.865	
182.00	-21.882	33.619	
183.00	-21.947	21.435	
184.00	-22.045	28.319	
185.00	-22.121	23.329	
186.00	-22.175	25.424	
187.00	-22.227	27.485	
188.00	-22.264	29.516	
189.00	-22.285	23.377	
190.00	-22.307	31.410	
191.00	-22.306	23.253	
192.00	-22.337	31.622	
193.00	-22.375	23.759	
194.00	-22.452	25.883	
195.00	-22.538	22.203	
196.00	-22.668	22.062	
197.00	-22.836	23.859	
198.00	-23.024	18.914	
199.00	-23.215	16.331	
200.00	-23.404	11.744	
201.00	-23.539	7.326	
202.00	-23.624	5.619	
203.00	-23.628	-3.520	
204.00	-23.527	-8.113	
205.00	-23.367	-14.239	
206.00	-23.163	-20.294	
207.00	-22.947	-17.856	
208.00	-22.728	-34.052	
209.00	-22.613	-23.036	
210.00	-22.515	-49.344	
211.00	-22.598	-22.784	
212.00	-22.735	-55.964	
213.00	-23.045	-34.471	
214.00	-23.405	-68.430	
215.00	-23.980	-52.963	
216.00	-24.648	-57.076	
217.00	-25.411	-60.746	
218.00	-26.092	-79.935	
219.00	-26.586	-97.679	
220.00	-26.782	-106.624	
221.00	-26.514	-128.358	
222.00	-25.968	-129.205	
223.00	-25.237	-152.810	
224.00	-24.542	-158.585	
225.00	-23.931	177.917	
226.00	-23.506	-172.072	
227.00	-23.260	175.124	
228.00	-23.248	-175.242	
229.00	-23.443	176.951	
230.00	-23.898	173.767	
231.00	-24.662	-176.813	
232.00	-25.813	161.823	
233.00	-27.386	167.439	
234.00	-29.535	163.254	
235.00	-32.412	160.927	
236.00	-35.057	132.843	
237.00	-34.549	89.317	
238.00	-31.429	64.825	
239.00	-28.824	42.233	
240.00	-26.838	46.377	
241.00	-25.430	27.517	
242.00	-24.425	37.434	
243.00	-23.828	28.351	
244.00	-23.524	42.671	
245.00	-23.562	44.220	
246.00	-23.910	39.225	
247.00	-24.605	46.074	
248.00	-25.629	20.621	
249.00	-27.119	41.346	
250.00	-29.339	48.220	
251.00	-32.313	87.681	
252.00	-35.392	125.708	
253.00	-35.001	172.269	
254.00	-31.776	-159.472	
255.00	-28.817	-146.843	
256.00	-26.704	-128.820	
257.00	-25.148	-133.124	
258.00	-24.040	-131.627	
259.00	-23.278	-136.134	
260.00	-22.821	-114.913	
261.00	-22.627	-121.761	
262.00	-22.664	-110.972	
263.00	-22.884	-114.048	
264.00	-23.345	-90.508	
265.00	-23.964	-85.137	
266.00	-24.671	-81.232	
267.00	-25.438	-58.939	
268.00	-26.075	-58.055	
269.00	-26.474	-32.940	
270.00	-26.433	-27.326	
271.00	-26.004	-6.713	
272.00	-25.404	-1.482	
273.00	-24.676	1.726	
274.00	-23.995	15.853	
275.00	-23.401	10.581	
276.00	-22.936	25.351	
277.00	-22.595	19.550	
278.00	-22.355	35.851	
279.00	-22.230	42.088	
280.00	-22.220	31.674	
281.00	-22.281	52.139	
282.00	-22.413	35.268	
283.00	-22.600	64.110	
284.00	-22.791	50.515	
285.00	-22.999	75.455	
286.00	-23.182	66.256	
287.00	-23.301	76.552	
288.00	-23.366	98.969	
289.00	-23.378	88.942	
290.00	-23.279	101.019	
291.00	-23.170	99.677	
292.00	-22.926	110.474	
293.00	-22.779	105.293	
294.00	-22.547	107.589	
295.00	-22.357	120.994	
296.00	-22.172	102.372	
297.00	-21.972	132.759	
298.00	-21.811	116.335	
299.00	-21.677	134.494	
300.00	-21.575	119.177	
301.00	-21.491	135.895	
302.00	-21.390	109.582	
303.00	-21.283	142.215	
304.00	-21.222	123.896	
305.00	-21.205	141.105	
306.00	-21.146	143.798	
307.00	-21.192	153.586	
308.00	-21.199	140.170	
309.00	-21.232	159.989	
310.00	-21.280	154.157	
311.00	-21.372	160.509	
312.00	-21.518	161.513	
313.00	-21.685	137.780	
314.00	-21.887	-176.320	
315.00	-22.121	144.874	
316.00	-22.358	177.657	
317.00	-22.604	147.657	
318.00	-22.857	156.706	
319.00	-23.077	150.898	
320.00	-23.247	141.924	
321.00	-23.358	147.751	
322.00	-23.376	137.264	
323.00	-23.297	136.688	
324.00	-23.165	121.890	
325.00	-22.988	123.966	
326.00	-22.828	117.460	
327.00	-22.654	115.278	
328.00	-22.563	113.291	
329.00	-22.509	107.482	
330.00	-22.611	103.173	
331.00	-22.785	96.874	
332.00	-23.115	93.108	
333.00	-23.627	91.942	
334.00	-24.231	86.212	
335.00	-24.998	79.635	
336.00	-25.913	74.205	
337.00	-26.836	72.531	
338.00	-27.563	57.998	
339.00	-27.941	54.066	
340.00	-27.694	32.180	
341.00	-27.053	26.585	
342.00	-26.140	9.411	
343.00	-25.256	7.559	
344.00	-24.446	-3.350	
345.00	-23.843	-5.865	
346.00	-23.432	-5.776	
347.00	-23.248	-12.579	
348.00	-23.289	-6.471	
349.00	-23.571	-12.969	
350.00	-24.138	-6.005	
351.00	-25.043	-14.171	
352.00	-26.361	-12.952	
353.00	-28.236	-17.241	
354.00	-30.923	-26.529	
355.00	-34.950	-37.865	
356.00	-39.222	-88.511	
357.00	-36.417	-136.159	
358.00	-31.944	-159.909	
359.00	-29.284	-161.832	
