Test Title:	Alpha Wireless Indoor Range						
Date:	14/12/2017						
Time:	15:30						
Operator Name:	FL						
Comment:	Axis 1 180.2
Axis 2 349.9						
Caib. File Name:	C:\Program Files\Midas 2.01d\Calibration Files\test sigma 180900.cal						
							
[Scan Axis] Name: 	Azimuth  [deg]Start: 	0.000000	Stop	359.000000	Increment	1.000000[Step Axis] Name: 	Start: 	0.000000	Stop	0.000000	Increment	0.000000[Tert] Name: 	None [Forth] Name: 	None  [ Freq.]  (List) 	MHz.	2496.000000	2500.000000	2525.000000	2550.000000	2575.000000	2600.000000	2625.000000	2650.000000	2675.000000	2690.000000
 [Switch]  	None [Channel]  	test			 [ Beam] 	None			
Database:			
First Question			
2nd			
3rd			
4th			
			
Frequency	2496.00	MHz	
Channel	test		
Scan Axis name	Azimuth  [deg]		
Scan Axis	Amplitude	Phase	
			
0.00	-24.354	-124.712	
1.00	-23.234	-113.463	
2.00	-22.477	-126.720	
3.00	-21.992	-129.451	
4.00	-21.808	-127.008	
5.00	-21.832	-123.929	
6.00	-22.128	-118.937	
7.00	-22.701	-121.400	
8.00	-23.541	-122.784	
9.00	-24.736	-115.862	
10.00	-26.280	-126.409	
11.00	-28.132	-111.538	
12.00	-30.114	-95.654	
13.00	-31.331	-55.341	
14.00	-30.509	-32.353	
15.00	-28.487	-3.594	
16.00	-26.491	-5.996	
17.00	-24.772	20.102	
18.00	-23.449	12.823	
19.00	-22.486	24.411	
20.00	-21.736	13.858	
21.00	-21.251	26.942	
22.00	-20.987	28.474	
23.00	-20.907	41.103	
24.00	-21.028	27.485	
25.00	-21.299	42.251	
26.00	-21.693	27.901	
27.00	-22.186	51.252	
28.00	-22.790	43.909	
29.00	-23.278	68.870	
30.00	-23.747	68.012	
31.00	-23.928	80.080	
32.00	-23.866	96.199	
33.00	-23.526	105.235	
34.00	-23.026	116.562	
35.00	-22.452	121.052	
36.00	-21.900	131.805	
37.00	-21.423	132.293	
38.00	-21.029	139.007	
39.00	-20.745	129.762	
40.00	-20.529	137.557	
41.00	-20.425	133.752	
42.00	-20.399	139.848	
43.00	-20.452	145.217	
44.00	-20.588	146.003	
45.00	-20.778	145.728	
46.00	-20.982	151.346	
47.00	-21.205	150.797	
48.00	-21.426	159.122	
49.00	-21.628	151.953	
50.00	-21.802	163.266	
51.00	-21.872	158.928	
52.00	-21.952	176.775	
53.00	-21.840	171.855	
54.00	-21.745	-172.562	
55.00	-21.548	-179.775	
56.00	-21.377	-170.662	
57.00	-21.123	-175.443	
58.00	-20.933	-165.482	
59.00	-20.701	-179.209	
60.00	-20.519	-170.118	
61.00	-20.380	-167.605	
62.00	-20.250	-171.197	
63.00	-20.172	-171.168	
64.00	-20.131	-171.295	
65.00	-20.158	-171.893	
66.00	-20.227	-176.556	
67.00	-20.351	-173.266	
68.00	-20.498	-172.526	
69.00	-20.698	177.123	
70.00	-20.952	-174.328	
71.00	-21.197	168.867	
72.00	-21.490	175.028	
73.00	-21.753	162.267	
74.00	-22.006	158.540	
75.00	-22.172	141.398	
76.00	-22.305	148.844	
77.00	-22.304	121.526	
78.00	-22.271	152.820	
79.00	-22.066	117.907	
80.00	-21.845	134.889	
81.00	-21.553	124.759	
82.00	-21.255	113.686	
83.00	-20.951	119.383	
84.00	-20.690	107.682	
85.00	-20.497	110.095	
86.00	-20.353	94.640	
87.00	-20.294	99.618	
88.00	-20.357	87.125	
89.00	-20.536	86.907	
90.00	-20.806	77.351	
91.00	-21.216	77.887	
92.00	-21.753	67.300	
93.00	-22.397	69.317	
94.00	-23.136	50.085	
95.00	-23.924	56.093	
96.00	-24.590	42.359	
97.00	-25.016	30.535	
98.00	-25.029	16.493	
99.00	-24.607	2.482	
100.00	-23.864	-12.282	
101.00	-23.042	-21.854	
102.00	-22.236	-31.091	
103.00	-21.480	-35.402	
104.00	-20.965	-42.616	
105.00	-20.599	-35.280	
106.00	-20.405	-55.289	
107.00	-20.437	-48.664	
108.00	-20.644	-61.757	
109.00	-21.106	-55.970	
110.00	-21.844	-62.293	
111.00	-22.872	-70.507	
112.00	-24.360	-68.024	
113.00	-26.352	-81.251	
114.00	-29.116	-90.581	
115.00	-32.873	-107.857	
116.00	-35.625	-148.599	
117.00	-32.804	168.896	
118.00	-28.995	142.540	
119.00	-26.335	132.331	
120.00	-24.396	130.974	
121.00	-23.036	123.913	
122.00	-22.058	130.589	
123.00	-21.417	113.325	
124.00	-21.115	125.977	
125.00	-21.056	122.005	
126.00	-21.289	116.939	
127.00	-21.769	116.180	
128.00	-22.599	118.212	
129.00	-23.712	112.859	
130.00	-25.320	123.518	
131.00	-27.246	112.111	
132.00	-29.720	145.809	
133.00	-31.567	153.816	
134.00	-31.311	-150.747	
135.00	-28.992	-138.813	
136.00	-26.785	-120.350	
137.00	-24.968	-116.354	
138.00	-23.630	-110.572	
139.00	-22.612	-105.166	
140.00	-21.927	-97.657	
141.00	-21.484	-97.081	
142.00	-21.315	-91.953	
143.00	-21.324	-108.313	
144.00	-21.549	-92.786	
145.00	-21.958	-99.576	
146.00	-22.509	-84.334	
147.00	-23.187	-94.225	
148.00	-23.958	-74.941	
149.00	-24.667	-73.275	
150.00	-25.179	-50.978	
151.00	-25.343	-44.235	
152.00	-25.172	-49.020	
153.00	-24.682	-32.013	
154.00	-24.057	-35.183	
155.00	-23.335	-17.931	
156.00	-22.760	-27.470	
157.00	-22.201	-14.054	
158.00	-21.798	-11.791	
159.00	-21.507	-14.736	
160.00	-21.339	5.629	
161.00	-21.257	-13.658	
162.00	-21.243	5.511	
163.00	-21.355	-0.266	
164.00	-21.527	14.270	
165.00	-21.746	9.693	
166.00	-21.970	22.715	
167.00	-22.200	20.531	
168.00	-22.371	21.098	
169.00	-22.488	34.249	
170.00	-22.564	38.974	
171.00	-22.536	42.141	
172.00	-22.436	46.735	
173.00	-22.231	44.253	
174.00	-22.003	51.000	
175.00	-21.720	60.006	
176.00	-21.462	52.728	
177.00	-21.165	69.777	
178.00	-20.915	54.439	
179.00	-20.669	75.361	
180.00	-20.439	59.177	
181.00	-20.288	72.348	
182.00	-20.123	58.957	
183.00	-20.016	77.347	
184.00	-19.954	62.225	
185.00	-19.917	75.175	
186.00	-19.927	64.895	
187.00	-19.995	76.331	
188.00	-20.103	70.197	
189.00	-20.257	74.676	
190.00	-20.439	71.927	
191.00	-20.685	73.255	
192.00	-20.938	68.588	
193.00	-21.252	59.970	
194.00	-21.535	60.895	
195.00	-21.886	45.686	
196.00	-22.144	50.158	
197.00	-22.361	40.059	
198.00	-22.508	51.336	
199.00	-22.561	40.038	
200.00	-22.499	44.442	
201.00	-22.356	38.059	
202.00	-22.122	42.505	
203.00	-21.849	29.170	
204.00	-21.524	26.283	
205.00	-21.230	22.562	
206.00	-21.002	17.423	
207.00	-20.849	17.953	
208.00	-20.800	12.754	
209.00	-20.868	18.879	
210.00	-21.049	13.187	
211.00	-21.323	4.877	
212.00	-21.782	11.095	
213.00	-22.348	-12.263	
214.00	-23.065	-0.311	
215.00	-23.810	-15.458	
216.00	-24.608	-11.137	
217.00	-25.216	-36.662	
218.00	-25.430	-33.823	
219.00	-25.179	-59.455	
220.00	-24.530	-52.730	
221.00	-23.715	-74.829	
222.00	-22.902	-66.304	
223.00	-22.186	-81.743	
224.00	-21.620	-75.988	
225.00	-21.266	-79.308	
226.00	-21.108	-81.938	
227.00	-21.186	-89.439	
228.00	-21.499	-88.602	
229.00	-22.070	-90.574	
230.00	-22.959	-91.804	
231.00	-24.236	-93.348	
232.00	-25.928	-95.097	
233.00	-28.452	-111.669	
234.00	-31.523	-123.823	
235.00	-34.160	-162.108	
236.00	-32.353	157.887	
237.00	-29.082	141.818	
238.00	-26.344	131.110	
239.00	-24.358	124.862	
240.00	-22.927	128.914	
241.00	-21.865	119.655	
242.00	-21.238	135.387	
243.00	-20.839	120.298	
244.00	-20.790	139.058	
245.00	-20.977	128.427	
246.00	-21.462	136.271	
247.00	-22.246	129.998	
248.00	-23.458	134.988	
249.00	-25.067	137.876	
250.00	-27.375	149.495	
251.00	-30.334	161.701	
252.00	-33.346	-157.111	
253.00	-32.565	-141.515	
254.00	-29.484	-81.614	
255.00	-26.736	-86.447	
256.00	-24.517	-45.749	
257.00	-23.038	-64.522	
258.00	-21.906	-55.949	
259.00	-21.136	-53.338	
260.00	-20.633	-45.238	
261.00	-20.390	-40.693	
262.00	-20.385	-40.395	
263.00	-20.577	-32.856	
264.00	-20.986	-32.579	
265.00	-21.574	-21.987	
266.00	-22.332	-16.750	
267.00	-23.164	-3.302	
268.00	-24.066	4.108	
269.00	-24.748	10.310	
270.00	-25.073	34.963	
271.00	-24.882	39.804	
272.00	-24.299	64.601	
273.00	-23.471	64.932	
274.00	-22.674	77.105	
275.00	-21.907	76.576	
276.00	-21.259	91.218	
277.00	-20.768	89.460	
278.00	-20.415	98.097	
279.00	-20.219	95.190	
280.00	-20.136	95.202	
281.00	-20.161	101.440	
282.00	-20.301	100.352	
283.00	-20.536	117.653	
284.00	-20.821	104.401	
285.00	-21.142	125.264	
286.00	-21.518	109.140	
287.00	-21.843	128.222	
288.00	-22.142	122.612	
289.00	-22.346	146.304	
290.00	-22.429	142.964	
291.00	-22.396	156.379	
292.00	-22.237	154.439	
293.00	-21.987	167.297	
294.00	-21.716	165.063	
295.00	-21.396	173.730	
296.00	-21.091	176.116	
297.00	-20.825	-178.827	
298.00	-20.611	-168.383	
299.00	-20.394	-172.546	
300.00	-20.204	-173.412	
301.00	-20.110	-168.371	
302.00	-19.999	-178.286	
303.00	-20.006	-160.631	
304.00	-20.000	-177.648	
305.00	-20.125	-156.939	
306.00	-20.224	-171.033	
307.00	-20.373	-160.255	
308.00	-20.513	-166.197	
309.00	-20.657	-172.287	
310.00	-20.893	-166.324	
311.00	-21.092	-173.537	
312.00	-21.278	-171.225	
313.00	-21.483	-170.630	
314.00	-21.621	-174.666	
315.00	-21.742	179.177	
316.00	-21.775	175.125	
317.00	-21.767	177.068	
318.00	-21.704	174.769	
319.00	-21.593	178.944	
320.00	-21.432	156.764	
321.00	-21.236	163.913	
322.00	-21.050	148.951	
323.00	-20.876	158.888	
324.00	-20.717	152.660	
325.00	-20.636	156.204	
326.00	-20.614	152.797	
327.00	-20.643	148.413	
328.00	-20.808	151.666	
329.00	-21.030	146.682	
330.00	-21.384	156.186	
331.00	-21.804	142.415	
332.00	-22.342	142.681	
333.00	-22.970	136.151	
334.00	-23.621	128.783	
335.00	-24.260	123.791	
336.00	-24.732	99.889	
337.00	-24.892	105.294	
338.00	-24.802	74.193	
339.00	-24.310	85.321	
340.00	-23.774	53.139	
341.00	-23.085	71.790	
342.00	-22.548	47.569	
343.00	-22.024	59.628	
344.00	-21.702	44.297	
345.00	-21.527	55.527	
346.00	-21.533	38.624	
347.00	-21.741	55.053	
348.00	-22.152	42.391	
349.00	-22.862	26.966	
350.00	-23.827	31.414	
351.00	-25.199	21.643	
352.00	-27.037	21.899	
353.00	-29.564	10.397	
354.00	-33.047	12.502	
355.00	-36.535	-27.875	
356.00	-34.940	-72.950	
357.00	-31.081	-83.836	
358.00	-28.055	-111.373	
359.00	-26.075	-113.309	
Frequency	2500.00	MHz	
Channel	test		
Scan Axis name	Azimuth  [deg]		
Scan Axis	Amplitude	Phase	
			
0.00	-23.976	122.712	
1.00	-22.901	133.839	
2.00	-22.156	121.155	
3.00	-21.678	117.801	
4.00	-21.487	120.708	
5.00	-21.540	122.845	
6.00	-21.845	128.066	
7.00	-22.380	125.109	
8.00	-23.235	123.539	
9.00	-24.395	130.748	
10.00	-25.922	119.224	
11.00	-27.748	134.693	
12.00	-29.871	149.271	
13.00	-31.360	-171.043	
14.00	-30.762	-146.427	
15.00	-28.691	-117.458	
16.00	-26.539	-119.370	
17.00	-24.844	-92.494	
18.00	-23.485	-100.041	
19.00	-22.487	-88.874	
20.00	-21.724	-99.122	
21.00	-21.253	-86.190	
22.00	-20.971	-84.949	
23.00	-20.875	-71.664	
24.00	-20.967	-85.926	
25.00	-21.244	-70.850	
26.00	-21.671	-85.029	
27.00	-22.164	-62.074	
28.00	-22.759	-68.948	
29.00	-23.270	-44.315	
30.00	-23.743	-44.955	
31.00	-23.891	-32.776	
32.00	-23.843	-16.566	
33.00	-23.450	-7.588	
34.00	-22.949	3.738	
35.00	-22.348	8.292	
36.00	-21.821	18.802	
37.00	-21.307	19.860	
38.00	-20.934	25.812	
39.00	-20.616	17.516	
40.00	-20.411	24.685	
41.00	-20.308	21.844	
42.00	-20.280	27.433	
43.00	-20.325	33.328	
44.00	-20.456	33.937	
45.00	-20.655	34.090	
46.00	-20.876	39.813	
47.00	-21.081	39.671	
48.00	-21.309	48.321	
49.00	-21.502	41.542	
50.00	-21.621	52.631	
51.00	-21.687	48.860	
52.00	-21.645	66.750	
53.00	-21.591	61.752	
54.00	-21.454	77.462	
55.00	-21.262	69.826	
56.00	-21.078	79.051	
57.00	-20.837	74.169	
58.00	-20.638	83.873	
59.00	-20.482	70.447	
60.00	-20.294	79.055	
61.00	-20.134	81.489	
62.00	-20.046	77.599	
63.00	-19.987	78.247	
64.00	-19.978	77.407	
65.00	-20.031	76.942	
66.00	-20.119	72.234	
67.00	-20.241	75.681	
68.00	-20.412	76.303	
69.00	-20.618	66.129	
70.00	-20.889	74.425	
71.00	-21.175	58.139	
72.00	-21.455	63.811	
73.00	-21.745	51.685	
74.00	-22.027	47.304	
75.00	-22.273	30.761	
76.00	-22.385	38.152	
77.00	-22.490	10.600	
78.00	-22.352	41.472	
79.00	-22.245	6.854	
80.00	-21.985	23.244	
81.00	-21.686	13.452	
82.00	-21.406	2.000	
83.00	-21.085	7.336	
84.00	-20.832	-4.353	
85.00	-20.596	-2.590	
86.00	-20.463	-17.481	
87.00	-20.394	-13.391	
88.00	-20.424	-25.342	
89.00	-20.584	-26.264	
90.00	-20.856	-35.531	
91.00	-21.244	-35.268	
92.00	-21.774	-45.880	
93.00	-22.415	-43.896	
94.00	-23.154	-62.987	
95.00	-23.906	-57.007	
96.00	-24.578	-70.840	
97.00	-24.983	-82.464	
98.00	-24.991	-96.658	
99.00	-24.584	-110.778	
100.00	-23.863	-125.859	
101.00	-23.026	-135.339	
102.00	-22.204	-144.814	
103.00	-21.460	-149.313	
104.00	-20.927	-156.551	
105.00	-20.579	-149.322	
106.00	-20.360	-169.160	
107.00	-20.362	-163.355	
108.00	-20.560	-175.814	
109.00	-20.997	-171.016	
110.00	-21.704	-176.759	
111.00	-22.730	173.901	
112.00	-24.128	176.479	
113.00	-26.022	162.367	
114.00	-28.556	152.155	
115.00	-31.878	135.654	
116.00	-34.172	98.983	
117.00	-32.033	60.917	
118.00	-28.738	33.404	
119.00	-26.184	22.036	
120.00	-24.284	20.412	
121.00	-22.925	12.113	
122.00	-21.968	19.392	
123.00	-21.344	0.765	
124.00	-21.034	14.224	
125.00	-21.002	8.965	
126.00	-21.214	5.049	
127.00	-21.722	3.130	
128.00	-22.518	5.757	
129.00	-23.719	-0.335	
130.00	-25.260	11.000	
131.00	-27.326	-0.940	
132.00	-29.555	33.211	
133.00	-31.528	41.539	
134.00	-31.023	96.002	
135.00	-28.849	107.628	
136.00	-26.642	126.070	
137.00	-24.836	129.793	
138.00	-23.450	136.083	
139.00	-22.485	140.841	
140.00	-21.801	148.754	
141.00	-21.377	149.122	
142.00	-21.199	154.323	
143.00	-21.181	137.618	
144.00	-21.432	153.176	
145.00	-21.831	146.540	
146.00	-22.419	161.465	
147.00	-23.085	151.696	
148.00	-23.902	171.086	
149.00	-24.605	172.427	
150.00	-25.164	-164.988	
151.00	-25.340	-158.262	
152.00	-25.168	-163.105	
153.00	-24.662	-146.163	
154.00	-24.021	-148.749	
155.00	-23.347	-131.895	
156.00	-22.719	-141.048	
157.00	-22.189	-127.835	
158.00	-21.823	-125.514	
159.00	-21.517	-128.602	
160.00	-21.384	-107.629	
161.00	-21.283	-127.553	
162.00	-21.347	-107.660	
163.00	-21.442	-113.916	
164.00	-21.637	-98.711	
165.00	-21.861	-103.646	
166.00	-22.114	-90.095	
167.00	-22.364	-92.667	
168.00	-22.516	-91.761	
169.00	-22.676	-78.490	
170.00	-22.707	-73.113	
171.00	-22.676	-70.595	
172.00	-22.540	-65.352	
173.00	-22.354	-68.184	
174.00	-22.095	-60.927	
175.00	-21.807	-52.393	
176.00	-21.530	-59.059	
177.00	-21.200	-42.469	
178.00	-20.960	-57.749	
179.00	-20.670	-36.554	
180.00	-20.497	-53.269	
181.00	-20.277	-39.710	
182.00	-20.156	-53.330	
183.00	-20.054	-34.687	
184.00	-20.013	-49.993	
185.00	-19.989	-36.932	
186.00	-20.005	-47.252	
187.00	-20.073	-35.802	
188.00	-20.180	-42.088	
189.00	-20.354	-37.710	
190.00	-20.548	-40.264	
191.00	-20.795	-39.250	
192.00	-21.067	-43.868	
193.00	-21.368	-52.831	
194.00	-21.685	-51.452	
195.00	-21.989	-67.224	
196.00	-22.290	-62.381	
197.00	-22.510	-72.593	
198.00	-22.672	-61.120	
199.00	-22.731	-72.886	
200.00	-22.673	-68.015	
201.00	-22.534	-75.001	
202.00	-22.282	-69.920	
203.00	-22.021	-83.768	
204.00	-21.708	-86.859	
205.00	-21.438	-90.449	
206.00	-21.211	-95.824	
207.00	-21.043	-94.861	
208.00	-21.004	-100.645	
209.00	-21.057	-94.279	
210.00	-21.233	-100.604	
211.00	-21.547	-108.569	
212.00	-22.023	-102.806	
213.00	-22.593	-126.178	
214.00	-23.361	-114.558	
215.00	-24.105	-130.287	
216.00	-24.919	-126.269	
217.00	-25.429	-152.776	
218.00	-25.625	-149.955	
219.00	-25.198	-175.972	
220.00	-24.525	-168.658	
221.00	-23.594	169.085	
222.00	-22.824	178.209	
223.00	-22.057	163.095	
224.00	-21.519	169.062	
225.00	-21.151	165.914	
226.00	-20.982	163.310	
227.00	-21.039	156.104	
228.00	-21.348	157.162	
229.00	-21.910	154.839	
230.00	-22.796	153.761	
231.00	-24.068	152.039	
232.00	-25.799	149.924	
233.00	-28.150	133.859	
234.00	-31.175	121.318	
235.00	-33.715	84.564	
236.00	-32.130	45.465	
237.00	-28.963	29.414	
238.00	-26.287	18.845	
239.00	-24.330	11.898	
240.00	-22.894	16.079	
241.00	-21.881	6.435	
242.00	-21.207	22.606	
243.00	-20.859	7.268	
244.00	-20.768	26.236	
245.00	-20.985	15.656	
246.00	-21.487	23.444	
247.00	-22.309	17.594	
248.00	-23.536	22.692	
249.00	-25.171	26.141	
250.00	-27.433	38.486	
251.00	-30.280	52.023	
252.00	-32.776	94.367	
253.00	-31.804	107.971	
254.00	-28.875	163.373	
255.00	-26.268	159.242	
256.00	-24.324	-161.068	
257.00	-22.816	-179.299	
258.00	-21.744	-171.030	
259.00	-21.008	-168.012	
260.00	-20.553	-160.022	
261.00	-20.354	-155.447	
262.00	-20.371	-154.918	
263.00	-20.598	-147.310	
264.00	-21.025	-146.787	
265.00	-21.648	-136.605	
266.00	-22.427	-130.561	
267.00	-23.308	-117.455	
268.00	-24.204	-109.090	
269.00	-24.861	-103.099	
270.00	-25.157	-77.627	
271.00	-24.923	-72.708	
272.00	-24.252	-47.964	
273.00	-23.423	-47.616	
274.00	-22.577	-36.090	
275.00	-21.837	-36.452	
276.00	-21.181	-22.016	
277.00	-20.704	-23.978	
278.00	-20.354	-14.736	
279.00	-20.164	-18.184	
280.00	-20.085	-18.041	
281.00	-20.130	-11.226	
282.00	-20.259	-12.581	
283.00	-20.506	5.309	
284.00	-20.821	-8.070	
285.00	-21.135	13.413	
286.00	-21.524	-3.305	
287.00	-21.819	17.017	
288.00	-22.082	10.825	
289.00	-22.239	35.163	
290.00	-22.261	31.737	
291.00	-22.205	45.578	
292.00	-22.013	43.299	
293.00	-21.739	56.282	
294.00	-21.413	53.737	
295.00	-21.100	62.279	
296.00	-20.793	64.752	
297.00	-20.527	69.871	
298.00	-20.278	79.882	
299.00	-20.084	76.148	
300.00	-19.919	74.785	
301.00	-19.811	80.196	
302.00	-19.738	70.586	
303.00	-19.721	87.747	
304.00	-19.759	71.576	
305.00	-19.834	91.454	
306.00	-19.987	78.335	
307.00	-20.109	87.999	
308.00	-20.282	82.834	
309.00	-20.472	76.642	
310.00	-20.668	82.443	
311.00	-20.898	75.608	
312.00	-21.091	78.317	
313.00	-21.283	78.398	
314.00	-21.459	74.909	
315.00	-21.578	68.454	
316.00	-21.638	64.422	
317.00	-21.642	66.923	
318.00	-21.588	63.725	
319.00	-21.465	68.203	
320.00	-21.302	45.883	
321.00	-21.124	53.017	
322.00	-20.964	38.079	
323.00	-20.763	47.907	
324.00	-20.634	41.723	
325.00	-20.520	44.687	
326.00	-20.513	41.919	
327.00	-20.564	36.662	
328.00	-20.726	40.590	
329.00	-20.949	34.794	
330.00	-21.298	44.964	
331.00	-21.784	30.385	
332.00	-22.331	31.271	
333.00	-22.990	24.266	
334.00	-23.633	16.727	
335.00	-24.293	11.441	
336.00	-24.765	-13.237	
337.00	-24.938	-7.298	
338.00	-24.794	-39.592	
339.00	-24.339	-27.776	
340.00	-23.722	-60.280	
341.00	-23.062	-41.724	
342.00	-22.466	-65.774	
343.00	-21.977	-53.829	
344.00	-21.643	-69.015	
345.00	-21.446	-57.868	
346.00	-21.477	-74.688	
347.00	-21.678	-58.153	
348.00	-22.129	-71.434	
349.00	-22.793	-86.631	
350.00	-23.781	-82.562	
351.00	-25.150	-92.231	
352.00	-26.975	-93.442	
353.00	-29.523	-105.186	
354.00	-32.877	-106.234	
355.00	-35.511	-146.147	
356.00	-33.770	173.312	
357.00	-30.259	164.549	
358.00	-27.492	136.505	
359.00	-25.609	135.364	
Frequency	2525.00	MHz	
Channel	test		
Scan Axis name	Azimuth  [deg]		
Scan Axis	Amplitude	Phase	
			
0.00	-24.415	-43.127	
1.00	-23.347	-32.014	
2.00	-22.578	-45.185	
3.00	-22.120	-49.046	
4.00	-21.947	-45.704	
5.00	-22.005	-44.431	
6.00	-22.341	-38.985	
7.00	-22.923	-42.985	
8.00	-23.821	-44.734	
9.00	-25.088	-37.910	
10.00	-26.741	-50.493	
11.00	-28.829	-34.807	
12.00	-31.263	-19.818	
13.00	-32.913	24.764	
14.00	-31.852	51.716	
15.00	-29.313	80.379	
16.00	-27.053	77.187	
17.00	-25.203	103.092	
18.00	-23.840	94.766	
19.00	-22.815	105.148	
20.00	-22.088	94.491	
21.00	-21.603	107.066	
22.00	-21.360	107.837	
23.00	-21.308	121.272	
24.00	-21.464	106.088	
25.00	-21.792	121.563	
26.00	-22.241	107.144	
27.00	-22.812	129.973	
28.00	-23.425	123.596	
29.00	-23.987	148.662	
30.00	-24.440	148.909	
31.00	-24.599	161.486	
32.00	-24.423	178.407	
33.00	-24.029	-172.836	
34.00	-23.431	-161.204	
35.00	-22.828	-156.788	
36.00	-22.211	-146.398	
37.00	-21.722	-145.109	
38.00	-21.316	-139.640	
39.00	-21.045	-147.498	
40.00	-20.843	-140.756	
41.00	-20.768	-142.634	
42.00	-20.743	-137.204	
43.00	-20.797	-130.542	
44.00	-20.950	-129.886	
45.00	-21.107	-128.981	
46.00	-21.268	-122.872	
47.00	-21.456	-122.385	
48.00	-21.623	-113.339	
49.00	-21.754	-119.927	
50.00	-21.827	-108.332	
51.00	-21.830	-112.206	
52.00	-21.754	-94.048	
53.00	-21.621	-99.447	
54.00	-21.486	-83.450	
55.00	-21.296	-91.893	
56.00	-21.084	-82.656	
57.00	-20.868	-87.860	
58.00	-20.699	-78.708	
59.00	-20.523	-92.136	
60.00	-20.401	-83.877	
61.00	-20.288	-81.149	
62.00	-20.209	-85.702	
63.00	-20.201	-84.507	
64.00	-20.203	-85.795	
65.00	-20.268	-85.935	
66.00	-20.345	-90.491	
67.00	-20.497	-86.916	
68.00	-20.649	-86.215	
69.00	-20.845	-96.150	
70.00	-21.093	-87.734	
71.00	-21.358	-103.405	
72.00	-21.641	-97.675	
73.00	-21.930	-108.890	
74.00	-22.229	-113.638	
75.00	-22.461	-129.384	
76.00	-22.619	-121.219	
77.00	-22.792	-148.924	
78.00	-22.776	-117.689	
79.00	-22.738	-152.344	
80.00	-22.541	-136.777	
81.00	-22.318	-146.523	
82.00	-22.036	-158.859	
83.00	-21.762	-154.084	
84.00	-21.510	-165.850	
85.00	-21.291	-165.215	
86.00	-21.141	179.860	
87.00	-21.051	-177.276	
88.00	-21.044	171.151	
89.00	-21.159	169.196	
90.00	-21.363	159.957	
91.00	-21.709	159.713	
92.00	-22.187	148.971	
93.00	-22.735	151.049	
94.00	-23.404	132.165	
95.00	-24.097	138.510	
96.00	-24.739	125.578	
97.00	-25.198	114.507	
98.00	-25.309	100.969	
99.00	-25.068	86.986	
100.00	-24.468	71.388	
101.00	-23.710	61.238	
102.00	-22.956	50.907	
103.00	-22.264	46.464	
104.00	-21.702	38.066	
105.00	-21.342	44.511	
106.00	-21.092	24.607	
107.00	-21.105	29.380	
108.00	-21.265	16.911	
109.00	-21.705	20.393	
110.00	-22.360	14.687	
111.00	-23.346	3.932	
112.00	-24.639	6.179	
113.00	-26.436	-8.811	
114.00	-28.673	-20.885	
115.00	-31.349	-37.072	
116.00	-32.967	-68.349	
117.00	-31.481	-100.271	
118.00	-28.856	-128.418	
119.00	-26.617	-140.864	
120.00	-24.808	-143.697	
121.00	-23.562	-153.344	
122.00	-22.609	-145.875	
123.00	-22.050	-166.413	
124.00	-21.746	-152.307	
125.00	-21.757	-159.592	
126.00	-22.011	-162.795	
127.00	-22.566	-166.385	
128.00	-23.460	-163.870	
129.00	-24.714	-171.370	
130.00	-26.466	-160.663	
131.00	-28.886	-174.062	
132.00	-31.827	-138.576	
133.00	-34.386	-124.902	
134.00	-33.339	-62.208	
135.00	-30.116	-51.580	
136.00	-27.580	-34.429	
137.00	-25.588	-32.813	
138.00	-24.217	-27.275	
139.00	-23.211	-23.606	
140.00	-22.543	-16.138	
141.00	-22.155	-16.482	
142.00	-22.007	-11.399	
143.00	-22.058	-28.778	
144.00	-22.368	-13.051	
145.00	-22.835	-19.575	
146.00	-23.503	-4.880	
147.00	-24.246	-14.347	
148.00	-25.144	5.998	
149.00	-25.897	7.998	
150.00	-26.472	32.217	
151.00	-26.527	39.606	
152.00	-26.163	35.291	
153.00	-25.567	51.988	
154.00	-24.836	49.260	
155.00	-24.115	65.445	
156.00	-23.491	56.391	
157.00	-22.971	68.876	
158.00	-22.598	71.331	
159.00	-22.363	67.920	
160.00	-22.234	89.013	
161.00	-22.215	68.564	
162.00	-22.278	89.014	
163.00	-22.432	82.803	
164.00	-22.634	98.110	
165.00	-22.869	93.225	
166.00	-23.114	107.340	
167.00	-23.332	104.296	
168.00	-23.507	106.050	
169.00	-23.541	119.107	
170.00	-23.524	124.898	
171.00	-23.397	126.537	
172.00	-23.187	131.594	
173.00	-22.936	128.363	
174.00	-22.622	135.575	
175.00	-22.316	143.284	
176.00	-22.010	136.609	
177.00	-21.702	152.795	
178.00	-21.449	137.422	
179.00	-21.194	158.457	
180.00	-20.976	141.588	
181.00	-20.819	155.231	
182.00	-20.670	141.520	
183.00	-20.588	160.262	
184.00	-20.549	145.056	
185.00	-20.526	158.238	
186.00	-20.581	147.999	
187.00	-20.633	159.557	
188.00	-20.740	153.463	
189.00	-20.884	157.544	
190.00	-21.075	155.765	
191.00	-21.295	156.299	
192.00	-21.557	152.161	
193.00	-21.836	143.185	
194.00	-22.146	145.092	
195.00	-22.443	129.482	
196.00	-22.736	134.786	
197.00	-22.974	124.852	
198.00	-23.176	136.787	
199.00	-23.282	125.179	
200.00	-23.290	130.377	
201.00	-23.172	122.804	
202.00	-23.005	128.219	
203.00	-22.731	113.723	
204.00	-22.483	110.491	
205.00	-22.189	106.597	
206.00	-21.936	101.021	
207.00	-21.821	101.723	
208.00	-21.715	95.499	
209.00	-21.825	101.908	
210.00	-21.994	95.091	
211.00	-22.257	87.891	
212.00	-22.698	93.309	
213.00	-23.286	70.531	
214.00	-23.996	82.437	
215.00	-24.807	67.125	
216.00	-25.656	71.801	
217.00	-26.329	45.404	
218.00	-26.685	48.116	
219.00	-26.386	20.951	
220.00	-25.722	27.578	
221.00	-24.823	4.288	
222.00	-23.929	12.759	
223.00	-23.107	-2.751	
224.00	-22.495	2.809	
225.00	-22.048	-0.409	
226.00	-21.851	-3.101	
227.00	-21.874	-10.648	
228.00	-22.147	-9.171	
229.00	-22.682	-11.895	
230.00	-23.527	-12.016	
231.00	-24.767	-13.797	
232.00	-26.491	-14.434	
233.00	-28.928	-29.877	
234.00	-32.218	-39.359	
235.00	-35.323	-77.191	
236.00	-33.962	-122.387	
237.00	-30.309	-139.522	
238.00	-27.418	-150.081	
239.00	-25.365	-157.225	
240.00	-23.830	-152.230	
241.00	-22.800	-161.710	
242.00	-22.045	-145.147	
243.00	-21.689	-160.674	
244.00	-21.561	-141.218	
245.00	-21.776	-151.846	
246.00	-22.251	-143.639	
247.00	-23.053	-149.353	
248.00	-24.209	-143.911	
249.00	-25.750	-140.255	
250.00	-27.932	-127.094	
251.00	-30.534	-114.798	
252.00	-32.842	-74.207	
253.00	-32.078	-63.529	
254.00	-29.593	-7.288	
255.00	-27.071	-9.806	
256.00	-25.127	30.229	
257.00	-23.664	12.613	
258.00	-22.609	20.937	
259.00	-21.882	25.387	
260.00	-21.381	33.201	
261.00	-21.166	38.145	
262.00	-21.179	38.805	
263.00	-21.368	46.618	
264.00	-21.767	47.683	
265.00	-22.346	57.892	
266.00	-23.067	64.808	
267.00	-23.829	77.006	
268.00	-24.631	86.011	
269.00	-25.214	90.976	
270.00	-25.466	115.336	
271.00	-25.294	119.711	
272.00	-24.752	143.438	
273.00	-24.010	144.067	
274.00	-23.265	155.408	
275.00	-22.601	155.640	
276.00	-22.015	170.536	
277.00	-21.552	168.625	
278.00	-21.229	178.676	
279.00	-21.059	175.140	
280.00	-20.969	175.666	
281.00	-20.998	-176.649	
282.00	-21.117	-178.081	
283.00	-21.350	-159.018	
284.00	-21.588	-172.918	
285.00	-21.879	-150.187	
286.00	-22.148	-167.605	
287.00	-22.397	-145.900	
288.00	-22.552	-153.119	
289.00	-22.629	-128.057	
290.00	-22.575	-132.484	
291.00	-22.438	-118.802	
292.00	-22.223	-121.786	
293.00	-21.937	-108.528	
294.00	-21.634	-111.925	
295.00	-21.347	-103.415	
296.00	-21.030	-101.315	
297.00	-20.770	-95.924	
298.00	-20.541	-86.523	
299.00	-20.339	-90.159	
300.00	-20.182	-91.764	
301.00	-20.085	-86.121	
302.00	-20.001	-95.504	
303.00	-19.990	-78.576	
304.00	-19.995	-94.206	
305.00	-20.065	-74.785	
306.00	-20.170	-86.775	
307.00	-20.276	-77.852	
308.00	-20.418	-82.299	
309.00	-20.584	-88.265	
310.00	-20.770	-82.354	
311.00	-20.961	-89.009	
312.00	-21.142	-85.698	
313.00	-21.325	-86.209	
314.00	-21.476	-88.995	
315.00	-21.596	-95.303	
316.00	-21.694	-99.144	
317.00	-21.708	-95.939	
318.00	-21.730	-99.713	
319.00	-21.636	-94.496	
320.00	-21.575	-117.490	
321.00	-21.401	-110.016	
322.00	-21.270	-125.510	
323.00	-21.126	-114.995	
324.00	-21.021	-121.427	
325.00	-20.958	-118.565	
326.00	-20.929	-121.370	
327.00	-21.032	-126.952	
328.00	-21.171	-122.332	
329.00	-21.439	-128.540	
330.00	-21.775	-117.293	
331.00	-22.269	-132.902	
332.00	-22.847	-131.140	
333.00	-23.508	-138.223	
334.00	-24.234	-145.348	
335.00	-24.954	-150.880	
336.00	-25.527	-175.660	
337.00	-25.770	-169.326	
338.00	-25.667	156.987	
339.00	-25.208	168.795	
340.00	-24.539	135.297	
341.00	-23.849	153.659	
342.00	-23.169	129.375	
343.00	-22.632	141.103	
344.00	-22.250	126.060	
345.00	-22.033	137.010	
346.00	-21.991	120.015	
347.00	-22.164	137.031	
348.00	-22.567	123.137	
349.00	-23.182	107.943	
350.00	-24.139	112.024	
351.00	-25.471	103.003	
352.00	-27.281	101.153	
353.00	-29.779	90.775	
354.00	-33.080	89.798	
355.00	-35.976	52.323	
356.00	-34.406	8.775	
357.00	-30.973	0.843	
358.00	-27.997	-29.459	
359.00	-26.133	-30.481	
Frequency	2550.00	MHz	
Channel	test		
Scan Axis name	Azimuth  [deg]		
Scan Axis	Amplitude	Phase	
			
0.00	-24.749	158.996	
1.00	-23.601	169.520	
2.00	-22.869	156.221	
3.00	-22.431	151.690	
4.00	-22.242	155.627	
5.00	-22.343	156.119	
6.00	-22.691	162.020	
7.00	-23.369	157.781	
8.00	-24.373	155.877	
9.00	-25.701	163.677	
10.00	-27.632	150.273	
11.00	-29.805	168.554	
12.00	-32.308	-173.214	
13.00	-33.159	-124.590	
14.00	-31.305	-99.913	
15.00	-28.626	-75.451	
16.00	-26.513	-80.214	
17.00	-24.791	-55.817	
18.00	-23.543	-64.937	
19.00	-22.623	-55.251	
20.00	-21.986	-65.956	
21.00	-21.563	-53.819	
22.00	-21.404	-53.289	
23.00	-21.421	-39.449	
24.00	-21.640	-55.313	
25.00	-22.016	-39.543	
26.00	-22.538	-53.495	
27.00	-23.149	-30.888	
28.00	-23.814	-36.369	
29.00	-24.411	-10.989	
30.00	-24.821	-10.070	
31.00	-24.887	3.190	
32.00	-24.658	20.019	
33.00	-24.120	28.592	
34.00	-23.508	39.645	
35.00	-22.860	43.827	
36.00	-22.282	53.651	
37.00	-21.795	54.790	
38.00	-21.404	59.528	
39.00	-21.149	52.208	
40.00	-20.975	58.464	
41.00	-20.935	57.393	
42.00	-20.946	62.293	
43.00	-21.046	69.577	
44.00	-21.208	70.369	
45.00	-21.352	71.620	
46.00	-21.557	78.027	
47.00	-21.736	79.082	
48.00	-21.874	88.335	
49.00	-21.926	81.809	
50.00	-21.967	93.813	
51.00	-21.903	89.633	
52.00	-21.810	108.163	
53.00	-21.636	102.181	
54.00	-21.466	118.431	
55.00	-21.236	109.297	
56.00	-21.029	118.677	
57.00	-20.821	113.045	
58.00	-20.655	121.750	
59.00	-20.453	108.390	
60.00	-20.333	116.443	
61.00	-20.227	119.219	
62.00	-20.167	114.291	
63.00	-20.139	115.522	
64.00	-20.149	113.933	
65.00	-20.185	114.098	
66.00	-20.262	109.580	
67.00	-20.367	113.196	
68.00	-20.531	114.158	
69.00	-20.708	104.275	
70.00	-20.941	112.564	
71.00	-21.152	97.236	
72.00	-21.446	102.860	
73.00	-21.696	92.211	
74.00	-21.976	86.922	
75.00	-22.193	71.707	
76.00	-22.383	80.207	
77.00	-22.519	52.428	
78.00	-22.587	83.856	
79.00	-22.523	49.530	
80.00	-22.376	64.226	
81.00	-22.156	55.281	
82.00	-21.887	42.205	
83.00	-21.608	47.270	
84.00	-21.328	35.102	
85.00	-21.123	35.128	
86.00	-20.918	20.734	
87.00	-20.826	22.699	
88.00	-20.804	11.680	
89.00	-20.875	9.049	
90.00	-21.072	0.336	
91.00	-21.367	-0.107	
92.00	-21.804	-10.655	
93.00	-22.384	-8.495	
94.00	-23.027	-26.776	
95.00	-23.757	-20.523	
96.00	-24.481	-33.030	
97.00	-24.978	-43.720	
98.00	-25.165	-57.607	
99.00	-25.002	-71.485	
100.00	-24.474	-87.471	
101.00	-23.763	-97.886	
102.00	-23.009	-108.860	
103.00	-22.344	-113.524	
104.00	-21.736	-121.808	
105.00	-21.332	-116.107	
106.00	-21.152	-135.309	
107.00	-21.112	-131.300	
108.00	-21.312	-142.973	
109.00	-21.721	-140.537	
110.00	-22.422	-145.325	
111.00	-23.463	-156.868	
112.00	-24.809	-154.292	
113.00	-26.713	-169.295	
114.00	-29.165	177.780	
115.00	-31.993	160.604	
116.00	-33.497	125.708	
117.00	-31.554	94.066	
118.00	-28.660	66.536	
119.00	-26.355	55.003	
120.00	-24.659	53.063	
121.00	-23.369	43.023	
122.00	-22.553	51.901	
123.00	-21.952	30.506	
124.00	-21.733	45.683	
125.00	-21.790	37.230	
126.00	-22.134	35.267	
127.00	-22.767	30.882	
128.00	-23.749	34.185	
129.00	-25.144	26.273	
130.00	-27.107	38.173	
131.00	-29.672	25.729	
132.00	-33.059	65.504	
133.00	-34.961	84.458	
134.00	-32.704	147.236	
135.00	-29.431	151.822	
136.00	-26.956	167.800	
137.00	-25.161	167.925	
138.00	-23.824	173.226	
139.00	-22.921	176.065	
140.00	-22.309	-176.036	
141.00	-21.977	-176.864	
142.00	-21.905	-171.490	
143.00	-22.055	170.772	
144.00	-22.384	-172.678	
145.00	-22.955	-179.020	
146.00	-23.630	-163.607	
147.00	-24.458	-172.692	
148.00	-25.305	-150.854	
149.00	-25.994	-148.257	
150.00	-26.334	-123.138	
151.00	-26.248	-115.778	
152.00	-25.798	-120.333	
153.00	-25.081	-104.610	
154.00	-24.344	-107.601	
155.00	-23.621	-92.501	
156.00	-23.073	-101.195	
157.00	-22.591	-89.270	
158.00	-22.272	-86.557	
159.00	-22.087	-89.892	
160.00	-21.997	-68.692	
161.00	-22.059	-89.210	
162.00	-22.158	-67.722	
163.00	-22.363	-74.125	
164.00	-22.582	-58.225	
165.00	-22.838	-62.874	
166.00	-23.085	-48.233	
167.00	-23.254	-51.533	
168.00	-23.402	-49.236	
169.00	-23.416	-36.706	
170.00	-23.372	-30.378	
171.00	-23.193	-29.775	
172.00	-22.943	-24.889	
173.00	-22.689	-28.834	
174.00	-22.379	-21.721	
175.00	-22.067	-14.701	
176.00	-21.755	-21.506	
177.00	-21.470	-5.975	
178.00	-21.177	-21.472	
179.00	-20.947	-0.663	
180.00	-20.716	-17.856	
181.00	-20.550	-4.265	
182.00	-20.390	-18.026	
183.00	-20.314	0.671	
184.00	-20.250	-14.520	
185.00	-20.250	-1.606	
186.00	-20.231	-11.552	
187.00	-20.288	-0.136	
188.00	-20.370	-5.977	
189.00	-20.515	-2.116	
190.00	-20.689	-3.462	
191.00	-20.869	-3.379	
192.00	-21.082	-7.178	
193.00	-21.324	-16.271	
194.00	-21.588	-14.156	
195.00	-21.848	-29.708	
196.00	-22.101	-24.284	
197.00	-22.317	-34.045	
198.00	-22.510	-21.913	
199.00	-22.599	-33.623	
200.00	-22.623	-27.764	
201.00	-22.530	-35.730	
202.00	-22.376	-29.756	
203.00	-22.157	-44.661	
204.00	-21.873	-48.117	
205.00	-21.627	-52.039	
206.00	-21.396	-57.619	
207.00	-21.214	-56.928	
208.00	-21.134	-63.563	
209.00	-21.175	-57.097	
210.00	-21.285	-64.671	
211.00	-21.542	-70.957	
212.00	-21.928	-66.168	
213.00	-22.503	-87.620	
214.00	-23.131	-76.172	
215.00	-23.929	-90.137	
216.00	-24.730	-85.028	
217.00	-25.551	-109.639	
218.00	-25.944	-106.127	
219.00	-26.040	-133.077	
220.00	-25.516	-126.316	
221.00	-24.856	-151.213	
222.00	-23.946	-143.311	
223.00	-23.209	-159.994	
224.00	-22.526	-154.834	
225.00	-22.065	-158.343	
226.00	-21.834	-161.699	
227.00	-21.842	-169.564	
228.00	-22.062	-167.920	
229.00	-22.578	-171.017	
230.00	-23.372	-170.861	
231.00	-24.559	-172.337	
232.00	-26.237	-172.928	
233.00	-28.618	172.170	
234.00	-31.919	164.550	
235.00	-35.695	130.351	
236.00	-35.023	80.823	
237.00	-31.131	59.277	
238.00	-27.978	48.627	
239.00	-25.740	40.654	
240.00	-24.195	46.082	
241.00	-23.058	36.034	
242.00	-22.377	53.133	
243.00	-21.955	37.107	
244.00	-21.886	56.998	
245.00	-22.062	46.058	
246.00	-22.573	54.104	
247.00	-23.376	48.465	
248.00	-24.620	53.528	
249.00	-26.271	57.037	
250.00	-28.645	70.408	
251.00	-31.568	83.799	
252.00	-33.934	129.499	
253.00	-32.739	141.189	
254.00	-29.635	-163.005	
255.00	-27.070	-166.158	
256.00	-25.020	-128.244	
257.00	-23.674	-145.844	
258.00	-22.625	-138.274	
259.00	-21.929	-133.836	
260.00	-21.473	-126.361	
261.00	-21.293	-121.509	
262.00	-21.314	-120.704	
263.00	-21.563	-113.214	
264.00	-22.034	-111.657	
265.00	-22.652	-101.694	
266.00	-23.459	-93.948	
267.00	-24.276	-82.126	
268.00	-25.123	-71.789	
269.00	-25.712	-66.406	
270.00	-25.845	-41.255	
271.00	-25.546	-36.268	
272.00	-24.887	-13.139	
273.00	-24.090	-12.331	
274.00	-23.304	-2.178	
275.00	-22.613	-1.866	
276.00	-22.030	12.466	
277.00	-21.604	10.052	
278.00	-21.299	20.211	
279.00	-21.153	16.194	
280.00	-21.100	16.299	
281.00	-21.173	24.251	
282.00	-21.332	22.156	
283.00	-21.587	41.657	
284.00	-21.868	27.321	
285.00	-22.188	50.674	
286.00	-22.479	32.637	
287.00	-22.746	55.387	
288.00	-22.912	47.765	
289.00	-23.006	73.714	
290.00	-22.944	69.003	
291.00	-22.802	83.294	
292.00	-22.568	80.208	
293.00	-22.288	93.729	
294.00	-21.977	89.962	
295.00	-21.684	98.898	
296.00	-21.350	100.906	
297.00	-21.096	106.488	
298.00	-20.851	115.586	
299.00	-20.642	112.233	
300.00	-20.509	109.896	
301.00	-20.383	115.721	
302.00	-20.330	106.345	
303.00	-20.267	123.170	
304.00	-20.278	107.636	
305.00	-20.350	126.740	
306.00	-20.438	115.169	
307.00	-20.562	123.153	
308.00	-20.709	119.265	
309.00	-20.890	112.824	
310.00	-21.118	118.559	
311.00	-21.297	111.682	
312.00	-21.512	115.669	
313.00	-21.712	114.551	
314.00	-21.878	111.838	
315.00	-22.036	104.798	
316.00	-22.135	100.730	
317.00	-22.185	104.344	
318.00	-22.174	99.442	
319.00	-22.087	105.104	
320.00	-21.911	81.185	
321.00	-21.790	88.738	
322.00	-21.561	72.886	
323.00	-21.415	84.084	
324.00	-21.261	77.502	
325.00	-21.178	80.459	
326.00	-21.099	77.692	
327.00	-21.133	71.941	
328.00	-21.250	77.482	
329.00	-21.435	70.888	
330.00	-21.787	82.996	
331.00	-22.177	66.843	
332.00	-22.729	69.645	
333.00	-23.346	62.510	
334.00	-24.038	56.156	
335.00	-24.729	51.080	
336.00	-25.293	26.730	
337.00	-25.562	33.790	
338.00	-25.503	0.144	
339.00	-25.080	12.277	
340.00	-24.463	-21.262	
341.00	-23.783	-3.469	
342.00	-23.115	-27.540	
343.00	-22.545	-16.469	
344.00	-22.137	-31.340	
345.00	-21.878	-21.090	
346.00	-21.837	-37.794	
347.00	-21.958	-21.222	
348.00	-22.330	-35.723	
349.00	-22.849	-50.505	
350.00	-23.774	-47.029	
351.00	-24.982	-55.393	
352.00	-26.703	-58.207	
353.00	-28.936	-67.236	
354.00	-32.022	-68.529	
355.00	-34.835	-100.447	
356.00	-34.283	-141.524	
357.00	-31.073	-153.225	
358.00	-28.328	174.552	
359.00	-26.436	172.804	
Frequency	2575.00	MHz	
Channel	test		
Scan Axis name	Azimuth  [deg]		
Scan Axis	Amplitude	Phase	
			
0.00	-25.543	-1.130	
1.00	-24.356	8.900	
2.00	-23.661	-4.445	
3.00	-23.203	-9.518	
4.00	-23.028	-4.993	
5.00	-23.130	-5.452	
6.00	-23.484	1.058	
7.00	-24.180	-3.783	
8.00	-25.189	-5.143	
9.00	-26.554	3.018	
10.00	-28.558	-10.188	
11.00	-30.752	9.552	
12.00	-33.038	28.632	
13.00	-33.439	75.192	
14.00	-31.616	98.018	
15.00	-29.086	120.578	
16.00	-27.035	116.112	
17.00	-25.501	140.300	
18.00	-24.261	131.396	
19.00	-23.425	140.568	
20.00	-22.809	130.217	
21.00	-22.467	142.354	
22.00	-22.342	142.589	
23.00	-22.438	156.847	
24.00	-22.660	140.698	
25.00	-23.149	156.816	
26.00	-23.676	143.293	
27.00	-24.388	165.875	
28.00	-25.092	161.468	
29.00	-25.716	-172.947	
30.00	-26.058	-171.189	
31.00	-26.066	-157.465	
32.00	-25.758	-140.140	
33.00	-25.129	-131.908	
34.00	-24.448	-120.720	
35.00	-23.770	-116.933	
36.00	-23.209	-107.530	
37.00	-22.756	-106.002	
38.00	-22.399	-102.024	
39.00	-22.178	-108.696	
40.00	-22.057	-103.027	
41.00	-22.055	-103.166	
42.00	-22.101	-98.567	
43.00	-22.258	-90.329	
44.00	-22.423	-89.613	
45.00	-22.623	-87.717	
46.00	-22.827	-80.824	
47.00	-23.006	-79.232	
48.00	-23.109	-69.790	
49.00	-23.137	-76.108	
50.00	-23.122	-63.725	
51.00	-23.028	-68.140	
52.00	-22.832	-49.111	
53.00	-22.653	-55.838	
54.00	-22.397	-39.277	
55.00	-22.222	-49.316	
56.00	-21.966	-40.102	
57.00	-21.782	-46.271	
58.00	-21.612	-37.994	
59.00	-21.502	-51.326	
60.00	-21.340	-43.795	
61.00	-21.254	-40.965	
62.00	-21.199	-46.457	
63.00	-21.172	-44.659	
64.00	-21.170	-47.011	
65.00	-21.221	-46.891	
66.00	-21.322	-51.253	
67.00	-21.396	-47.366	
68.00	-21.553	-46.429	
69.00	-21.738	-56.071	
70.00	-21.916	-47.728	
71.00	-22.200	-62.679	
72.00	-22.454	-57.155	
73.00	-22.756	-67.144	
74.00	-23.063	-73.099	
75.00	-23.341	-88.063	
76.00	-23.544	-79.201	
77.00	-23.717	-107.974	
78.00	-23.808	-76.039	
79.00	-23.785	-111.204	
80.00	-23.690	-97.161	
81.00	-23.410	-106.360	
82.00	-23.144	-120.439	
83.00	-22.773	-115.949	
84.00	-22.430	-128.242	
85.00	-22.097	-129.000	
86.00	-21.822	-143.144	
87.00	-21.641	-141.868	
88.00	-21.546	-151.949	
89.00	-21.567	-155.430	
90.00	-21.686	-163.378	
91.00	-21.933	-163.934	
92.00	-22.331	-174.133	
93.00	-22.862	-171.457	
94.00	-23.468	171.223	
95.00	-24.242	177.880	
96.00	-24.987	166.066	
97.00	-25.604	155.789	
98.00	-25.975	142.014	
99.00	-25.935	127.705	
100.00	-25.458	110.358	
101.00	-24.742	99.361	
102.00	-23.953	87.594	
103.00	-23.181	82.568	
104.00	-22.563	74.128	
105.00	-22.086	79.586	
106.00	-21.828	60.915	
107.00	-21.747	64.195	
108.00	-21.905	53.787	
109.00	-22.268	55.279	
110.00	-22.905	51.677	
111.00	-23.903	40.031	
112.00	-25.211	43.997	
113.00	-27.090	30.301	
114.00	-29.632	19.494	
115.00	-32.930	5.179	
116.00	-35.625	-31.617	
117.00	-33.616	-71.208	
118.00	-30.249	-101.348	
119.00	-27.546	-113.100	
120.00	-25.635	-114.163	
121.00	-24.252	-124.600	
122.00	-23.333	-114.272	
123.00	-22.674	-136.811	
124.00	-22.452	-120.054	
125.00	-22.452	-129.692	
126.00	-22.753	-130.280	
127.00	-23.347	-135.432	
128.00	-24.334	-131.123	
129.00	-25.665	-139.744	
130.00	-27.618	-127.401	
131.00	-30.096	-140.511	
132.00	-33.377	-99.366	
133.00	-35.308	-83.113	
134.00	-33.134	-19.189	
135.00	-30.032	-15.330	
136.00	-27.523	1.736	
137.00	-25.786	1.668	
138.00	-24.461	7.952	
139.00	-23.575	10.704	
140.00	-22.969	18.947	
141.00	-22.677	18.030	
142.00	-22.605	23.799	
143.00	-22.820	6.029	
144.00	-23.159	22.928	
145.00	-23.775	17.054	
146.00	-24.448	32.479	
147.00	-25.301	24.164	
148.00	-26.119	46.660	
149.00	-26.812	49.980	
150.00	-27.015	75.530	
151.00	-26.820	82.574	
152.00	-26.229	78.131	
153.00	-25.509	93.204	
154.00	-24.732	90.271	
155.00	-24.041	104.558	
156.00	-23.498	96.366	
157.00	-23.091	107.784	
158.00	-22.819	110.664	
159.00	-22.655	107.354	
160.00	-22.642	128.850	
161.00	-22.696	108.292	
162.00	-22.861	130.296	
163.00	-23.053	124.160	
164.00	-23.332	140.324	
165.00	-23.577	136.160	
166.00	-23.844	151.304	
167.00	-23.985	147.860	
168.00	-24.054	150.820	
169.00	-24.103	163.241	
170.00	-23.983	170.070	
171.00	-23.789	170.075	
172.00	-23.536	175.061	
173.00	-23.223	170.572	
174.00	-22.946	177.907	
175.00	-22.670	-175.677	
176.00	-22.366	177.813	
177.00	-22.123	-167.499	
178.00	-21.813	176.977	
179.00	-21.666	-162.346	
180.00	-21.441	179.912	
181.00	-21.330	-166.234	
182.00	-21.186	179.669	
183.00	-21.149	-161.672	
184.00	-21.070	-177.052	
185.00	-21.084	-164.134	
186.00	-21.069	-174.161	
187.00	-21.158	-162.702	
188.00	-21.206	-168.620	
189.00	-21.354	-165.068	
190.00	-21.488	-165.998	
191.00	-21.655	-166.026	
192.00	-21.818	-169.791	
193.00	-22.047	-178.913	
194.00	-22.284	-176.538	
195.00	-22.497	167.844	
196.00	-22.757	173.534	
197.00	-22.955	163.846	
198.00	-23.136	175.907	
199.00	-23.221	164.002	
200.00	-23.264	170.042	
201.00	-23.189	161.566	
202.00	-23.071	167.598	
203.00	-22.806	151.860	
204.00	-22.559	148.299	
205.00	-22.305	143.670	
206.00	-22.078	137.651	
207.00	-21.857	138.365	
208.00	-21.761	131.045	
209.00	-21.751	137.407	
210.00	-21.858	129.034	
211.00	-22.049	122.808	
212.00	-22.419	126.650	
213.00	-22.877	105.420	
214.00	-23.477	115.995	
215.00	-24.162	101.912	
216.00	-24.871	106.789	
217.00	-25.478	82.612	
218.00	-25.826	86.891	
219.00	-25.829	60.877	
220.00	-25.361	68.721	
221.00	-24.760	44.837	
222.00	-23.986	52.747	
223.00	-23.354	36.526	
224.00	-22.760	41.437	
225.00	-22.359	37.909	
226.00	-22.185	34.315	
227.00	-22.228	26.477	
228.00	-22.489	27.892	
229.00	-23.013	24.612	
230.00	-23.817	24.503	
231.00	-24.989	22.498	
232.00	-26.581	21.217	
233.00	-28.926	6.193	
234.00	-31.902	-2.565	
235.00	-35.333	-33.992	
236.00	-34.930	-79.232	
237.00	-31.704	-100.662	
238.00	-28.658	-111.953	
239.00	-26.509	-121.368	
240.00	-24.960	-115.914	
241.00	-23.854	-126.466	
242.00	-23.167	-109.240	
243.00	-22.778	-125.882	
244.00	-22.732	-105.575	
245.00	-22.960	-116.803	
246.00	-23.499	-108.876	
247.00	-24.385	-114.349	
248.00	-25.684	-109.121	
249.00	-27.451	-104.945	
250.00	-29.910	-89.935	
251.00	-32.982	-74.436	
252.00	-34.708	-24.162	
253.00	-32.941	-16.282	
254.00	-29.678	36.394	
255.00	-27.350	32.909	
256.00	-25.437	68.823	
257.00	-24.114	52.154	
258.00	-23.127	58.884	
259.00	-22.471	64.105	
260.00	-22.079	71.070	
261.00	-21.961	76.221	
262.00	-22.032	77.385	
263.00	-22.337	85.074	
264.00	-22.819	87.008	
265.00	-23.492	97.230	
266.00	-24.255	105.922	
267.00	-25.071	117.892	
268.00	-25.800	129.188	
269.00	-26.246	134.619	
270.00	-26.323	159.472	
271.00	-25.935	163.769	
272.00	-25.297	-173.916	
273.00	-24.554	-173.688	
274.00	-23.849	-164.244	
275.00	-23.224	-163.756	
276.00	-22.783	-149.482	
277.00	-22.427	-152.239	
278.00	-22.233	-141.138	
279.00	-22.128	-145.387	
280.00	-22.164	-145.109	
281.00	-22.295	-136.101	
282.00	-22.491	-138.022	
283.00	-22.803	-117.110	
284.00	-23.075	-131.576	
285.00	-23.408	-106.730	
286.00	-23.623	-124.974	
287.00	-23.821	-100.517	
288.00	-23.880	-108.608	
289.00	-23.852	-81.489	
290.00	-23.710	-86.920	
291.00	-23.462	-72.376	
292.00	-23.185	-76.287	
293.00	-22.829	-62.834	
294.00	-22.531	-67.521	
295.00	-22.193	-58.643	
296.00	-21.933	-56.887	
297.00	-21.679	-51.445	
298.00	-21.490	-42.519	
299.00	-21.343	-45.545	
300.00	-21.243	-48.349	
301.00	-21.160	-42.169	
302.00	-21.124	-51.264	
303.00	-21.109	-34.479	
304.00	-21.164	-49.286	
305.00	-21.227	-30.416	
306.00	-21.379	-41.132	
307.00	-21.493	-33.643	
308.00	-21.664	-36.743	
309.00	-21.832	-43.088	
310.00	-22.043	-37.052	
311.00	-22.275	-43.691	
312.00	-22.492	-38.939	
313.00	-22.722	-40.700	
314.00	-22.943	-42.876	
315.00	-23.129	-50.112	
316.00	-23.256	-54.737	
317.00	-23.318	-50.532	
318.00	-23.338	-56.888	
319.00	-23.253	-50.800	
320.00	-23.112	-75.723	
321.00	-22.956	-68.302	
322.00	-22.778	-84.949	
323.00	-22.526	-73.560	
324.00	-22.366	-80.608	
325.00	-22.210	-77.959	
326.00	-22.143	-80.618	
327.00	-22.122	-87.105	
328.00	-22.221	-80.836	
329.00	-22.400	-88.262	
330.00	-22.725	-75.291	
331.00	-23.114	-92.516	
332.00	-23.653	-89.045	
333.00	-24.288	-96.679	
334.00	-24.937	-103.146	
335.00	-25.645	-108.342	
336.00	-26.121	-133.452	
337.00	-26.494	-126.027	
338.00	-26.276	-160.690	
339.00	-25.954	-148.632	
340.00	-25.199	177.561	
341.00	-24.529	-165.140	
342.00	-23.769	171.243	
343.00	-23.175	-178.324	
344.00	-22.711	167.236	
345.00	-22.454	177.134	
346.00	-22.333	160.473	
347.00	-22.463	176.943	
348.00	-22.749	162.126	
349.00	-23.252	147.269	
350.00	-24.075	150.807	
351.00	-25.245	142.801	
352.00	-26.828	139.448	
353.00	-28.917	132.041	
354.00	-31.738	130.924	
355.00	-34.467	104.757	
356.00	-34.717	64.178	
357.00	-31.842	51.518	
358.00	-29.273	15.881	
359.00	-27.317	13.653	
Frequency	2600.00	MHz	
Channel	test		
Scan Axis name	Azimuth  [deg]		
Scan Axis	Amplitude	Phase	
			
0.00	-24.924	-162.130	
1.00	-23.818	-152.396	
2.00	-23.137	-165.383	
3.00	-22.723	-170.676	
4.00	-22.607	-165.408	
5.00	-22.729	-166.649	
6.00	-23.144	-159.816	
7.00	-23.871	-165.144	
8.00	-24.948	-166.706	
9.00	-26.401	-158.751	
10.00	-28.459	-172.468	
11.00	-30.833	-152.426	
12.00	-33.514	-133.170	
13.00	-34.283	-83.014	
14.00	-32.027	-58.366	
15.00	-29.346	-35.885	
16.00	-27.193	-41.357	
17.00	-25.629	-17.001	
18.00	-24.407	-26.638	
19.00	-23.581	-17.873	
20.00	-23.005	-28.490	
21.00	-22.718	-16.545	
22.00	-22.645	-16.795	
23.00	-22.799	-2.006	
24.00	-23.082	-19.151	
25.00	-23.624	-2.446	
26.00	-24.238	-16.272	
27.00	-25.008	6.527	
28.00	-25.746	2.958	
29.00	-26.372	29.157	
30.00	-26.657	31.621	
31.00	-26.546	45.668	
32.00	-26.052	63.384	
33.00	-25.342	70.905	
34.00	-24.572	81.668	
35.00	-23.860	85.044	
36.00	-23.251	94.084	
37.00	-22.786	95.551	
38.00	-22.424	98.570	
39.00	-22.190	92.738	
40.00	-22.044	97.616	
41.00	-22.012	98.298	
42.00	-22.044	102.594	
43.00	-22.147	111.376	
44.00	-22.271	112.089	
45.00	-22.423	114.762	
46.00	-22.537	121.626	
47.00	-22.648	123.494	
48.00	-22.670	133.028	
49.00	-22.707	127.173	
50.00	-22.586	139.183	
51.00	-22.491	135.111	
52.00	-22.264	153.997	
53.00	-22.115	147.100	
54.00	-21.888	163.688	
55.00	-21.718	153.371	
56.00	-21.543	162.896	
57.00	-21.378	156.939	
58.00	-21.226	164.926	
59.00	-21.180	152.159	
60.00	-21.083	159.485	
61.00	-21.031	162.083	
62.00	-21.008	156.420	
63.00	-21.017	158.474	
64.00	-21.036	155.680	
65.00	-21.105	156.082	
66.00	-21.181	151.507	
67.00	-21.271	155.059	
68.00	-21.392	155.732	
69.00	-21.547	146.334	
70.00	-21.727	154.023	
71.00	-21.933	139.764	
72.00	-22.163	144.691	
73.00	-22.438	135.293	
74.00	-22.691	128.784	
75.00	-22.960	114.774	
76.00	-23.161	123.941	
77.00	-23.402	95.944	
78.00	-23.500	127.416	
79.00	-23.608	93.446	
80.00	-23.574	106.832	
81.00	-23.446	98.080	
82.00	-23.280	83.597	
83.00	-23.015	87.364	
84.00	-22.777	74.916	
85.00	-22.519	72.632	
86.00	-22.296	58.559	
87.00	-22.134	57.993	
88.00	-22.026	47.960	
89.00	-22.020	43.258	
90.00	-22.108	34.869	
91.00	-22.323	33.768	
92.00	-22.636	22.946	
93.00	-23.085	25.161	
94.00	-23.605	7.192	
95.00	-24.264	13.917	
96.00	-24.884	2.221	
97.00	-25.381	-7.768	
98.00	-25.651	-20.921	
99.00	-25.607	-34.176	
100.00	-25.198	-50.796	
101.00	-24.585	-61.527	
102.00	-23.880	-73.371	
103.00	-23.159	-78.249	
104.00	-22.601	-87.629	
105.00	-22.160	-83.026	
106.00	-21.876	-101.547	
107.00	-21.818	-99.386	
108.00	-21.938	-109.639	
109.00	-22.284	-109.445	
110.00	-22.862	-112.783	
111.00	-23.784	-125.866	
112.00	-24.983	-122.239	
113.00	-26.706	-136.845	
114.00	-28.896	-148.781	
115.00	-31.568	-162.136	
116.00	-33.607	166.748	
117.00	-32.548	133.663	
118.00	-29.880	102.353	
119.00	-27.519	88.722	
120.00	-25.643	86.478	
121.00	-24.322	74.222	
122.00	-23.377	84.899	
123.00	-22.782	60.645	
124.00	-22.497	77.835	
125.00	-22.535	66.469	
126.00	-22.823	66.562	
127.00	-23.454	59.844	
128.00	-24.443	64.475	
129.00	-25.849	54.336	
130.00	-27.827	66.605	
131.00	-30.598	51.564	
132.00	-34.226	93.597	
133.00	-36.666	114.978	
134.00	-33.616	-178.685	
135.00	-30.159	-176.122	
136.00	-27.590	-159.779	
137.00	-25.760	-161.054	
138.00	-24.413	-154.901	
139.00	-23.506	-153.057	
140.00	-22.930	-144.817	
141.00	-22.627	-146.408	
142.00	-22.579	-140.646	
143.00	-22.763	-158.808	
144.00	-23.158	-141.987	
145.00	-23.767	-147.811	
146.00	-24.534	-132.955	
147.00	-25.403	-141.222	
148.00	-26.315	-118.191	
149.00	-26.982	-115.058	
150.00	-27.280	-88.823	
151.00	-27.044	-81.704	
152.00	-26.400	-86.024	
153.00	-25.623	-71.226	
154.00	-24.842	-73.931	
155.00	-24.166	-60.201	
156.00	-23.595	-68.035	
157.00	-23.207	-57.038	
158.00	-22.956	-53.752	
159.00	-22.825	-57.349	
160.00	-22.852	-35.109	
161.00	-22.916	-56.178	
162.00	-23.166	-33.271	
163.00	-23.383	-39.642	
164.00	-23.737	-22.681	
165.00	-24.006	-26.850	
166.00	-24.302	-10.868	
167.00	-24.457	-14.605	
168.00	-24.527	-11.018	
169.00	-24.526	1.572	
170.00	-24.404	9.313	
171.00	-24.170	8.638	
172.00	-23.915	13.672	
173.00	-23.599	8.733	
174.00	-23.296	16.413	
175.00	-23.012	22.238	
176.00	-22.722	16.011	
177.00	-22.464	30.487	
178.00	-22.233	15.004	
179.00	-22.022	35.941	
180.00	-21.866	17.719	
181.00	-21.708	32.179	
182.00	-21.605	17.860	
183.00	-21.520	37.066	
184.00	-21.466	21.785	
185.00	-21.457	35.066	
186.00	-21.474	25.241	
187.00	-21.523	37.267	
188.00	-21.593	31.656	
189.00	-21.694	35.370	
190.00	-21.840	35.164	
191.00	-21.989	34.803	
192.00	-22.166	31.537	
193.00	-22.385	21.985	
194.00	-22.618	24.864	
195.00	-22.847	8.804	
196.00	-23.108	15.010	
197.00	-23.320	5.084	
198.00	-23.503	17.439	
199.00	-23.598	5.031	
200.00	-23.616	11.183	
201.00	-23.552	1.780	
202.00	-23.402	8.307	
203.00	-23.129	-8.182	
204.00	-22.861	-12.284	
205.00	-22.559	-16.612	
206.00	-22.283	-22.931	
207.00	-22.076	-22.140	
208.00	-21.942	-29.840	
209.00	-21.928	-23.377	
210.00	-22.026	-31.927	
211.00	-22.233	-37.500	
212.00	-22.605	-34.015	
213.00	-23.064	-54.839	
214.00	-23.766	-43.982	
215.00	-24.445	-58.211	
216.00	-25.334	-52.937	
217.00	-26.003	-77.771	
218.00	-26.525	-73.895	
219.00	-26.483	-100.946	
220.00	-26.083	-93.895	
221.00	-25.344	-118.707	
222.00	-24.543	-111.126	
223.00	-23.744	-127.230	
224.00	-23.098	-122.613	
225.00	-22.627	-125.934	
226.00	-22.388	-129.388	
227.00	-22.346	-137.080	
228.00	-22.570	-135.185	
229.00	-23.033	-138.605	
230.00	-23.823	-137.869	
231.00	-24.955	-139.746	
232.00	-26.574	-140.456	
233.00	-28.852	-154.409	
234.00	-31.927	-160.834	
235.00	-35.738	169.048	
236.00	-35.929	121.414	
237.00	-32.305	96.040	
238.00	-29.083	84.897	
239.00	-26.798	75.005	
240.00	-25.152	81.136	
241.00	-24.007	70.662	
242.00	-23.234	88.433	
243.00	-22.843	71.950	
244.00	-22.723	92.677	
245.00	-22.920	81.876	
246.00	-23.412	90.175	
247.00	-24.256	85.393	
248.00	-25.474	91.342	
249.00	-27.051	96.130	
250.00	-29.204	112.461	
251.00	-31.574	127.294	
252.00	-32.821	171.157	
253.00	-31.700	175.174	
254.00	-29.155	-133.069	
255.00	-26.996	-134.575	
256.00	-25.286	-98.121	
257.00	-24.004	-113.790	
258.00	-23.095	-106.886	
259.00	-22.484	-100.505	
260.00	-22.127	-93.157	
261.00	-22.026	-87.311	
262.00	-22.111	-85.866	
263.00	-22.417	-77.614	
264.00	-22.891	-74.792	
265.00	-23.552	-64.350	
266.00	-24.316	-54.194	
267.00	-25.060	-42.536	
268.00	-25.678	-30.069	
269.00	-25.959	-25.375	
270.00	-25.915	-0.527	
271.00	-25.455	3.180	
272.00	-24.854	24.577	
273.00	-24.148	24.537	
274.00	-23.503	33.555	
275.00	-22.961	34.319	
276.00	-22.546	48.718	
277.00	-22.256	45.842	
278.00	-22.099	57.771	
279.00	-22.057	53.530	
280.00	-22.133	54.192	
281.00	-22.258	64.156	
282.00	-22.470	62.180	
283.00	-22.691	84.255	
284.00	-22.970	69.720	
285.00	-23.139	95.561	
286.00	-23.373	76.646	
287.00	-23.404	101.984	
288.00	-23.413	93.123	
289.00	-23.217	120.269	
290.00	-23.028	113.844	
291.00	-22.725	128.093	
292.00	-22.436	123.559	
293.00	-22.100	136.655	
294.00	-21.832	131.534	
295.00	-21.526	140.362	
296.00	-21.268	141.781	
297.00	-21.055	147.563	
298.00	-20.844	155.918	
299.00	-20.722	153.286	
300.00	-20.619	150.146	
301.00	-20.543	156.910	
302.00	-20.525	148.410	
303.00	-20.484	164.710	
304.00	-20.539	150.853	
305.00	-20.593	168.995	
306.00	-20.694	159.801	
307.00	-20.812	166.460	
308.00	-20.932	164.410	
309.00	-21.121	157.961	
310.00	-21.290	164.318	
311.00	-21.517	157.960	
312.00	-21.729	163.526	
313.00	-21.983	161.746	
314.00	-22.202	160.192	
315.00	-22.417	153.027	
316.00	-22.625	148.774	
317.00	-22.740	153.509	
318.00	-22.845	146.490	
319.00	-22.785	152.736	
320.00	-22.763	127.491	
321.00	-22.589	134.838	
322.00	-22.419	117.787	
323.00	-22.182	128.906	
324.00	-22.003	121.512	
325.00	-21.823	123.902	
326.00	-21.716	121.430	
327.00	-21.668	114.394	
328.00	-21.708	121.402	
329.00	-21.872	113.651	
330.00	-22.110	127.500	
331.00	-22.544	109.917	
332.00	-23.040	114.234	
333.00	-23.685	106.830	
334.00	-24.421	101.535	
335.00	-25.218	96.495	
336.00	-25.972	71.360	
337.00	-26.410	79.449	
338.00	-26.477	42.434	
339.00	-26.153	54.364	
340.00	-25.399	18.400	
341.00	-24.670	35.323	
342.00	-23.841	10.832	
343.00	-23.193	20.975	
344.00	-22.646	6.243	
345.00	-22.344	16.143	
346.00	-22.159	-0.933	
347.00	-22.291	16.037	
348.00	-22.558	0.481	
349.00	-23.064	-14.518	
350.00	-23.910	-11.391	
351.00	-25.069	-19.089	
352.00	-26.661	-23.459	
353.00	-28.857	-31.087	
354.00	-31.649	-34.451	
355.00	-34.219	-62.418	
356.00	-33.687	-102.775	
357.00	-30.906	-111.915	
358.00	-28.335	-146.113	
359.00	-26.538	-147.395	
Frequency	2625.00	MHz	
Channel	test		
Scan Axis name	Azimuth  [deg]		
Scan Axis	Amplitude	Phase	
			
0.00	-24.783	35.165	
1.00	-23.589	44.869	
2.00	-22.822	32.020	
3.00	-22.337	26.728	
4.00	-22.172	32.549	
5.00	-22.268	30.854	
6.00	-22.662	37.995	
7.00	-23.409	32.454	
8.00	-24.525	30.724	
9.00	-26.080	39.413	
10.00	-28.251	24.516	
11.00	-30.960	46.518	
12.00	-33.825	68.947	
13.00	-34.027	124.352	
14.00	-31.176	148.289	
15.00	-28.276	168.390	
16.00	-26.143	162.046	
17.00	-24.569	-174.392	
18.00	-23.385	175.590	
19.00	-22.602	-176.084	
20.00	-22.109	173.382	
21.00	-21.878	-174.743	
22.00	-21.877	-175.233	
23.00	-22.115	-159.885	
24.00	-22.497	-177.435	
25.00	-23.121	-160.198	
26.00	-23.865	-172.946	
27.00	-24.742	-149.877	
28.00	-25.530	-152.151	
29.00	-26.146	-124.995	
30.00	-26.307	-121.306	
31.00	-26.047	-106.636	
32.00	-25.384	-89.350	
33.00	-24.587	-82.335	
34.00	-23.802	-72.426	
35.00	-23.101	-69.767	
36.00	-22.520	-61.978	
37.00	-22.088	-60.628	
38.00	-21.808	-58.918	
39.00	-21.642	-64.508	
40.00	-21.563	-60.815	
41.00	-21.627	-59.404	
42.00	-21.713	-56.272	
43.00	-21.882	-47.431	
44.00	-22.087	-47.127	
45.00	-22.291	-44.427	
46.00	-22.476	-37.715	
47.00	-22.570	-35.533	
48.00	-22.642	-26.256	
49.00	-22.621	-31.951	
50.00	-22.485	-19.832	
51.00	-22.315	-24.012	
52.00	-22.070	-5.074	
53.00	-21.821	-12.217	
54.00	-21.556	4.780	
55.00	-21.313	-6.082	
56.00	-21.073	3.658	
57.00	-20.893	-2.365	
58.00	-20.702	5.306	
59.00	-20.544	-7.378	
60.00	-20.424	-0.275	
61.00	-20.357	2.802	
62.00	-20.336	-3.332	
63.00	-20.318	-0.481	
64.00	-20.344	-3.627	
65.00	-20.404	-2.808	
66.00	-20.489	-7.150	
67.00	-20.623	-3.200	
68.00	-20.757	-2.405	
69.00	-20.943	-11.554	
70.00	-21.179	-3.743	
71.00	-21.437	-17.632	
72.00	-21.694	-12.896	
73.00	-22.014	-21.611	
74.00	-22.340	-28.723	
75.00	-22.639	-42.421	
76.00	-22.910	-33.154	
77.00	-23.166	-61.066	
78.00	-23.349	-29.965	
79.00	-23.452	-63.652	
80.00	-23.429	-51.258	
81.00	-23.306	-59.553	
82.00	-23.092	-74.177	
83.00	-22.846	-70.574	
84.00	-22.524	-82.432	
85.00	-22.300	-85.292	
86.00	-22.074	-98.038	
87.00	-21.927	-99.309	
88.00	-21.846	-108.166	
89.00	-21.890	-113.200	
90.00	-22.051	-120.723	
91.00	-22.323	-121.670	
92.00	-22.753	-132.236	
93.00	-23.340	-129.985	
94.00	-24.037	-147.494	
95.00	-24.859	-141.310	
96.00	-25.684	-154.037	
97.00	-26.404	-165.194	
98.00	-26.757	179.115	
99.00	-26.666	163.795	
100.00	-26.024	145.048	
101.00	-25.156	133.383	
102.00	-24.210	121.408	
103.00	-23.373	117.362	
104.00	-22.669	108.364	
105.00	-22.142	113.390	
106.00	-21.828	95.864	
107.00	-21.742	97.694	
108.00	-21.873	88.812	
109.00	-22.226	88.653	
110.00	-22.881	86.676	
111.00	-23.869	73.369	
112.00	-25.256	78.126	
113.00	-27.176	64.443	
114.00	-29.810	52.671	
115.00	-33.364	37.544	
116.00	-35.716	-4.560	
117.00	-33.164	-42.389	
118.00	-29.685	-70.465	
119.00	-27.071	-81.359	
120.00	-25.164	-81.260	
121.00	-23.842	-92.954	
122.00	-22.920	-80.386	
123.00	-22.342	-105.056	
124.00	-22.100	-86.290	
125.00	-22.171	-98.503	
126.00	-22.512	-96.681	
127.00	-23.178	-103.995	
128.00	-24.243	-98.102	
129.00	-25.707	-108.056	
130.00	-27.799	-93.968	
131.00	-30.610	-106.463	
132.00	-33.906	-59.093	
133.00	-34.790	-38.739	
134.00	-31.842	19.809	
135.00	-28.790	19.193	
136.00	-26.515	35.817	
137.00	-24.885	33.948	
138.00	-23.695	40.867	
139.00	-22.889	42.501	
140.00	-22.395	51.399	
141.00	-22.169	49.721	
142.00	-22.199	55.996	
143.00	-22.438	37.801	
144.00	-22.891	55.274	
145.00	-23.557	49.957	
146.00	-24.363	65.608	
147.00	-25.229	58.276	
148.00	-26.091	82.673	
149.00	-26.588	86.606	
150.00	-26.684	113.686	
151.00	-26.267	120.054	
152.00	-25.572	114.781	
153.00	-24.746	128.723	
154.00	-23.990	125.848	
155.00	-23.329	138.950	
156.00	-22.830	131.380	
157.00	-22.490	142.050	
158.00	-22.280	145.732	
159.00	-22.222	142.048	
160.00	-22.279	165.014	
161.00	-22.406	143.833	
162.00	-22.663	167.955	
163.00	-22.917	161.962	
164.00	-23.237	179.721	
165.00	-23.512	176.186	
166.00	-23.766	-166.898	
167.00	-23.870	-170.576	
168.00	-23.864	-166.045	
169.00	-23.797	-153.748	
170.00	-23.619	-145.338	
171.00	-23.364	-146.742	
172.00	-23.082	-141.711	
173.00	-22.771	-147.107	
174.00	-22.471	-139.470	
175.00	-22.185	-134.382	
176.00	-21.913	-140.405	
177.00	-21.653	-126.796	
178.00	-21.405	-142.249	
179.00	-21.235	-121.815	
180.00	-21.028	-140.354	
181.00	-20.889	-126.183	
182.00	-20.734	-140.614	
183.00	-20.646	-121.871	
184.00	-20.528	-137.086	
185.00	-20.464	-124.023	
186.00	-20.413	-133.694	
187.00	-20.399	-121.989	
188.00	-20.387	-127.399	
189.00	-20.402	-124.154	
190.00	-20.455	-123.704	
191.00	-20.517	-124.549	
192.00	-20.641	-127.375	
193.00	-20.782	-136.922	
194.00	-20.950	-133.696	
195.00	-21.155	-149.491	
196.00	-21.403	-142.997	
197.00	-21.585	-152.491	
198.00	-21.790	-139.778	
199.00	-21.926	-152.146	
200.00	-22.036	-145.475	
201.00	-22.028	-155.619	
202.00	-21.949	-148.798	
203.00	-21.742	-166.001	
204.00	-21.507	-170.472	
205.00	-21.262	-175.482	
206.00	-20.980	177.846	
207.00	-20.786	178.588	
208.00	-20.606	170.360	
209.00	-20.567	176.858	
210.00	-20.593	167.570	
211.00	-20.730	162.378	
212.00	-21.008	165.348	
213.00	-21.413	145.366	
214.00	-21.921	156.205	
215.00	-22.581	143.160	
216.00	-23.308	149.521	
217.00	-24.016	126.120	
218.00	-24.606	132.010	
219.00	-24.827	105.692	
220.00	-24.700	113.534	
221.00	-24.195	87.757	
222.00	-23.530	94.319	
223.00	-22.794	76.883	
224.00	-22.175	80.432	
225.00	-21.683	76.228	
226.00	-21.398	71.823	
227.00	-21.311	63.229	
228.00	-21.434	64.862	
229.00	-21.841	60.527	
230.00	-22.485	60.842	
231.00	-23.483	58.169	
232.00	-24.825	56.833	
233.00	-26.733	42.622	
234.00	-29.243	37.326	
235.00	-32.307	13.271	
236.00	-33.597	-24.123	
237.00	-31.328	-52.791	
238.00	-28.408	-68.483	
239.00	-26.114	-81.431	
240.00	-24.419	-76.935	
241.00	-23.221	-88.929	
242.00	-22.400	-72.128	
243.00	-21.951	-89.661	
244.00	-21.796	-69.898	
245.00	-21.961	-81.593	
246.00	-22.431	-74.582	
247.00	-23.255	-80.424	
248.00	-24.478	-76.404	
249.00	-26.179	-73.914	
250.00	-28.605	-60.375	
251.00	-31.939	-49.852	
252.00	-34.948	-0.489	
253.00	-33.589	14.980	
254.00	-30.045	71.362	
255.00	-27.267	69.794	
256.00	-25.180	104.717	
257.00	-23.781	88.247	
258.00	-22.730	93.786	
259.00	-22.051	99.947	
260.00	-21.643	106.205	
261.00	-21.540	111.429	
262.00	-21.646	112.293	
263.00	-21.982	119.646	
264.00	-22.528	122.203	
265.00	-23.253	131.764	
266.00	-24.092	142.418	
267.00	-24.956	153.067	
268.00	-25.738	166.557	
269.00	-26.151	171.691	
270.00	-26.123	-162.533	
271.00	-25.618	-157.711	
272.00	-24.914	-136.015	
273.00	-24.111	-135.434	
274.00	-23.420	-127.130	
275.00	-22.829	-125.921	
276.00	-22.373	-112.030	
277.00	-22.063	-115.375	
278.00	-21.941	-103.115	
279.00	-21.892	-107.999	
280.00	-21.969	-107.146	
281.00	-22.141	-96.826	
282.00	-22.354	-99.373	
283.00	-22.647	-76.653	
284.00	-22.907	-91.225	
285.00	-23.158	-64.679	
286.00	-23.291	-83.750	
287.00	-23.342	-57.659	
288.00	-23.269	-66.775	
289.00	-23.090	-39.550	
290.00	-22.853	-46.312	
291.00	-22.566	-32.077	
292.00	-22.253	-37.173	
293.00	-21.936	-23.974	
294.00	-21.656	-29.668	
295.00	-21.403	-21.057	
296.00	-21.209	-19.849	
297.00	-21.028	-13.909	
298.00	-20.883	-5.938	
299.00	-20.777	-8.290	
300.00	-20.677	-12.064	
301.00	-20.635	-5.043	
302.00	-20.629	-13.225	
303.00	-20.593	2.903	
304.00	-20.627	-10.121	
305.00	-20.631	7.605	
306.00	-20.696	-0.440	
307.00	-20.723	5.610	
308.00	-20.796	4.479	
309.00	-20.851	-1.837	
310.00	-20.943	4.952	
311.00	-21.074	-1.177	
312.00	-21.207	5.630	
313.00	-21.379	3.435	
314.00	-21.526	2.512	
315.00	-21.694	-4.627	
316.00	-21.859	-8.724	
317.00	-21.982	-3.344	
318.00	-22.103	-11.234	
319.00	-22.090	-4.793	
320.00	-22.072	-30.536	
321.00	-21.937	-23.771	
322.00	-21.789	-41.681	
323.00	-21.549	-30.931	
324.00	-21.381	-39.203	
325.00	-21.181	-37.361	
326.00	-21.043	-40.387	
327.00	-20.969	-48.332	
328.00	-20.991	-41.009	
329.00	-21.113	-49.705	
330.00	-21.329	-35.261	
331.00	-21.703	-53.777	
332.00	-22.191	-48.638	
333.00	-22.830	-56.068	
334.00	-23.556	-60.367	
335.00	-24.396	-64.914	
336.00	-25.221	-89.342	
337.00	-25.849	-80.394	
338.00	-26.119	-117.202	
339.00	-25.926	-105.553	
340.00	-25.346	-142.370	
341.00	-24.580	-126.288	
342.00	-23.760	-151.050	
343.00	-23.034	-141.559	
344.00	-22.463	-156.227	
345.00	-22.105	-146.361	
346.00	-21.885	-163.219	
347.00	-21.915	-145.783	
348.00	-22.141	-161.520	
349.00	-22.610	-175.885	
350.00	-23.384	-172.388	
351.00	-24.475	-178.708	
352.00	-26.022	177.319	
353.00	-28.136	172.792	
354.00	-31.032	172.019	
355.00	-34.296	149.066	
356.00	-34.994	102.548	
357.00	-31.870	88.658	
358.00	-28.777	50.568	
359.00	-26.761	49.274	
Frequency	2650.00	MHz	
Channel	test		
Scan Axis name	Azimuth  [deg]		
Scan Axis	Amplitude	Phase	
			
0.00	-25.258	-128.739	
1.00	-23.982	-119.990	
2.00	-23.163	-133.300	
3.00	-22.626	-139.498	
4.00	-22.442	-133.190	
5.00	-22.516	-135.919	
6.00	-22.915	-128.594	
7.00	-23.635	-135.042	
8.00	-24.790	-137.026	
9.00	-26.335	-128.512	
10.00	-28.634	-144.193	
11.00	-31.405	-121.790	
12.00	-34.565	-97.613	
13.00	-34.474	-39.026	
14.00	-31.222	-15.842	
15.00	-28.266	2.571	
16.00	-26.103	-4.298	
17.00	-24.520	18.942	
18.00	-23.383	8.755	
19.00	-22.619	16.287	
20.00	-22.120	5.987	
21.00	-21.919	17.989	
22.00	-21.943	17.052	
23.00	-22.203	33.114	
24.00	-22.626	15.038	
25.00	-23.311	32.808	
26.00	-24.076	20.574	
27.00	-24.961	44.059	
28.00	-25.740	43.204	
29.00	-26.205	70.683	
30.00	-26.252	74.741	
31.00	-25.817	88.996	
32.00	-25.097	106.061	
33.00	-24.286	111.984	
34.00	-23.505	121.626	
35.00	-22.859	123.969	
36.00	-22.343	131.121	
37.00	-21.983	132.698	
38.00	-21.770	133.643	
39.00	-21.678	128.997	
40.00	-21.695	132.155	
41.00	-21.822	134.455	
42.00	-22.007	137.569	
43.00	-22.254	147.338	
44.00	-22.526	148.109	
45.00	-22.767	151.819	
46.00	-22.955	159.280	
47.00	-23.043	162.324	
48.00	-23.045	171.917	
49.00	-22.941	166.680	
50.00	-22.762	178.886	
51.00	-22.501	174.561	
52.00	-22.213	-166.341	
53.00	-21.937	-174.065	
54.00	-21.648	-157.040	
55.00	-21.406	-168.923	
56.00	-21.175	-159.464	
57.00	-20.998	-165.917	
58.00	-20.848	-159.135	
59.00	-20.696	-171.554	
60.00	-20.594	-164.875	
61.00	-20.529	-162.029	
62.00	-20.498	-168.696	
63.00	-20.473	-165.623	
64.00	-20.483	-169.314	
65.00	-20.517	-168.349	
66.00	-20.587	-172.670	
67.00	-20.655	-168.651	
68.00	-20.743	-167.687	
69.00	-20.889	-176.419	
70.00	-21.004	-168.865	
71.00	-21.220	177.987	
72.00	-21.394	-177.341	
73.00	-21.613	174.861	
74.00	-21.842	167.534	
75.00	-22.091	155.009	
76.00	-22.334	164.935	
77.00	-22.554	137.666	
78.00	-22.750	169.246	
79.00	-22.875	136.909	
80.00	-22.945	148.988	
81.00	-22.901	141.693	
82.00	-22.788	126.645	
83.00	-22.598	130.085	
84.00	-22.386	118.085	
85.00	-22.178	114.050	
86.00	-21.956	101.399	
87.00	-21.798	98.619	
88.00	-21.692	90.234	
89.00	-21.699	83.891	
90.00	-21.761	76.438	
91.00	-21.953	74.964	
92.00	-22.277	64.402	
93.00	-22.741	66.729	
94.00	-23.291	50.052	
95.00	-24.012	56.753	
96.00	-24.768	45.979	
97.00	-25.474	36.370	
98.00	-26.024	22.747	
99.00	-26.196	8.934	
100.00	-25.972	-10.080	
101.00	-25.383	-22.219	
102.00	-24.641	-36.011	
103.00	-23.884	-41.709	
104.00	-23.176	-51.627	
105.00	-22.647	-48.213	
106.00	-22.277	-66.043	
107.00	-22.136	-65.683	
108.00	-22.163	-74.480	
109.00	-22.478	-76.074	
110.00	-22.990	-77.698	
111.00	-23.859	-92.349	
112.00	-25.037	-87.669	
113.00	-26.668	-101.662	
114.00	-28.866	-113.179	
115.00	-31.736	-123.505	
116.00	-34.354	-154.745	
117.00	-33.713	168.460	
118.00	-30.851	133.744	
119.00	-28.220	118.827	
120.00	-26.281	117.163	
121.00	-24.832	103.020	
122.00	-23.881	115.954	
123.00	-23.196	89.327	
124.00	-22.957	108.610	
125.00	-22.975	94.499	
126.00	-23.290	96.973	
127.00	-23.919	88.112	
128.00	-24.995	93.728	
129.00	-26.462	82.440	
130.00	-28.651	95.621	
131.00	-31.612	80.406	
132.00	-35.823	127.039	
133.00	-37.445	154.573	
134.00	-33.481	-141.207	
135.00	-30.017	-143.245	
136.00	-27.561	-127.384	
137.00	-25.812	-130.378	
138.00	-24.600	-123.819	
139.00	-23.762	-123.089	
140.00	-23.243	-114.037	
141.00	-23.026	-116.385	
142.00	-23.060	-110.116	
143.00	-23.352	-128.703	
144.00	-23.812	-110.933	
145.00	-24.529	-116.129	
146.00	-25.357	-100.083	
147.00	-26.269	-107.071	
148.00	-27.068	-81.616	
149.00	-27.510	-77.041	
150.00	-27.407	-49.556	
151.00	-26.824	-43.725	
152.00	-25.957	-49.023	
153.00	-25.116	-36.417	
154.00	-24.337	-39.374	
155.00	-23.676	-27.411	
156.00	-23.193	-34.694	
157.00	-22.877	-24.628	
158.00	-22.724	-20.846	
159.00	-22.691	-24.627	
160.00	-22.815	-1.424	
161.00	-22.990	-22.724	
162.00	-23.283	2.010	
163.00	-23.579	-3.778	
164.00	-23.939	14.654	
165.00	-24.193	11.345	
166.00	-24.425	29.174	
167.00	-24.494	25.192	
168.00	-24.458	30.594	
169.00	-24.330	42.435	
170.00	-24.152	51.294	
171.00	-23.886	49.096	
172.00	-23.626	53.907	
173.00	-23.361	48.108	
174.00	-23.121	55.528	
175.00	-22.893	59.939	
176.00	-22.693	53.980	
177.00	-22.512	66.722	
178.00	-22.326	50.982	
179.00	-22.191	71.008	
180.00	-22.026	51.979	
181.00	-21.923	65.854	
182.00	-21.804	51.283	
183.00	-21.679	69.646	
184.00	-21.575	54.270	
185.00	-21.476	67.018	
186.00	-21.401	57.582	
187.00	-21.351	69.034	
188.00	-21.297	63.908	
189.00	-21.281	67.073	
190.00	-21.272	68.036	
191.00	-21.305	66.906	
192.00	-21.370	64.650	
193.00	-21.478	55.104	
194.00	-21.593	58.789	
195.00	-21.776	43.233	
196.00	-21.989	50.032	
197.00	-22.227	40.948	
198.00	-22.441	53.777	
199.00	-22.640	41.395	
200.00	-22.786	48.474	
201.00	-22.830	37.782	
202.00	-22.793	44.697	
203.00	-22.615	26.922	
204.00	-22.366	21.782	
205.00	-22.081	16.552	
206.00	-21.793	9.525	
207.00	-21.527	10.116	
208.00	-21.300	1.234	
209.00	-21.206	8.128	
210.00	-21.159	-1.759	
211.00	-21.241	-5.900	
212.00	-21.469	-3.569	
213.00	-21.825	-22.206	
214.00	-22.333	-11.485	
215.00	-22.962	-23.796	
216.00	-23.670	-17.170	
217.00	-24.440	-39.656	
218.00	-25.065	-33.256	
219.00	-25.479	-59.162	
220.00	-25.460	-51.348	
221.00	-25.105	-77.695	
222.00	-24.463	-71.569	
223.00	-23.758	-89.592	
224.00	-23.104	-86.545	
225.00	-22.588	-91.036	
226.00	-22.266	-95.897	
227.00	-22.152	-104.899	
228.00	-22.259	-103.045	
229.00	-22.636	-108.140	
230.00	-23.310	-107.330	
231.00	-24.328	-110.328	
232.00	-25.742	-111.572	
233.00	-27.702	-126.445	
234.00	-30.324	-132.767	
235.00	-33.278	-158.554	
236.00	-34.101	163.085	
237.00	-31.670	136.140	
238.00	-28.735	122.334	
239.00	-26.517	109.157	
240.00	-24.868	114.620	
241.00	-23.711	102.661	
242.00	-22.966	119.929	
243.00	-22.547	102.189	
244.00	-22.480	122.562	
245.00	-22.697	110.794	
246.00	-23.243	117.896	
247.00	-24.151	112.433	
248.00	-25.512	116.829	
249.00	-27.392	120.365	
250.00	-30.120	135.904	
251.00	-33.561	151.129	
252.00	-35.524	-152.261	
253.00	-32.887	-142.677	
254.00	-29.496	-92.345	
255.00	-26.973	-94.492	
256.00	-25.143	-61.883	
257.00	-23.881	-78.011	
258.00	-22.980	-73.169	
259.00	-22.457	-66.386	
260.00	-22.177	-60.224	
261.00	-22.169	-54.781	
262.00	-22.372	-53.795	
263.00	-22.841	-46.035	
264.00	-23.502	-42.675	
265.00	-24.368	-32.520	
266.00	-25.377	-19.957	
267.00	-26.284	-8.284	
268.00	-26.961	8.074	
269.00	-27.103	14.494	
270.00	-26.741	40.633	
271.00	-25.976	45.278	
272.00	-25.114	65.371	
273.00	-24.279	65.033	
274.00	-23.580	71.964	
275.00	-23.025	73.020	
276.00	-22.642	86.315	
277.00	-22.401	82.632	
278.00	-22.332	95.242	
279.00	-22.335	90.286	
280.00	-22.503	90.977	
281.00	-22.711	102.201	
282.00	-22.954	99.764	
283.00	-23.233	123.619	
284.00	-23.477	108.824	
285.00	-23.631	136.561	
286.00	-23.705	117.127	
287.00	-23.637	144.237	
288.00	-23.486	134.561	
289.00	-23.224	162.266	
290.00	-22.939	154.514	
291.00	-22.613	169.001	
292.00	-22.313	163.171	
293.00	-22.006	176.426	
294.00	-21.758	170.087	
295.00	-21.537	178.956	
296.00	-21.376	179.780	
297.00	-21.249	-174.008	
298.00	-21.134	-166.373	
299.00	-21.058	-168.432	
300.00	-21.025	-172.463	
301.00	-20.975	-165.310	
302.00	-20.996	-173.352	
303.00	-20.981	-157.402	
304.00	-21.005	-169.912	
305.00	-21.017	-152.929	
306.00	-21.046	-160.143	
307.00	-21.077	-155.167	
308.00	-21.088	-155.883	
309.00	-21.189	-162.770	
310.00	-21.221	-156.113	
311.00	-21.285	-162.466	
312.00	-21.371	-155.528	
313.00	-21.500	-158.408	
314.00	-21.598	-159.032	
315.00	-21.786	-166.699	
316.00	-21.890	-170.768	
317.00	-22.023	-164.686	
318.00	-22.106	-173.261	
319.00	-22.132	-166.252	
320.00	-22.172	167.562	
321.00	-22.083	174.712	
322.00	-21.962	156.183	
323.00	-21.801	167.165	
324.00	-21.640	158.240	
325.00	-21.491	160.230	
326.00	-21.363	157.218	
327.00	-21.298	148.594	
328.00	-21.288	156.377	
329.00	-21.374	146.968	
330.00	-21.569	162.058	
331.00	-21.861	142.860	
332.00	-22.284	148.668	
333.00	-22.818	141.120	
334.00	-23.467	137.904	
335.00	-24.198	134.088	
336.00	-25.030	110.897	
337.00	-25.686	121.541	
338.00	-26.153	85.348	
339.00	-26.181	97.718	
340.00	-25.815	60.260	
341.00	-25.207	75.282	
342.00	-24.449	49.656	
343.00	-23.694	57.800	
344.00	-23.098	42.526	
345.00	-22.652	51.334	
346.00	-22.361	33.934	
347.00	-22.293	50.941	
348.00	-22.454	34.192	
349.00	-22.761	19.467	
350.00	-23.451	22.318	
351.00	-24.397	16.315	
352.00	-25.785	11.101	
353.00	-27.666	7.343	
354.00	-30.187	6.458	
355.00	-33.262	-11.077	
356.00	-34.517	-52.548	
357.00	-32.358	-69.015	
358.00	-29.357	-110.153	
359.00	-27.315	-112.948	
Frequency	2675.00	MHz	
Channel	test		
Scan Axis name	Azimuth  [deg]		
Scan Axis	Amplitude	Phase	
			
0.00	-25.789	68.577	
1.00	-24.575	76.336	
2.00	-23.775	62.463	
3.00	-23.277	55.450	
4.00	-23.091	62.087	
5.00	-23.206	57.958	
6.00	-23.627	65.223	
7.00	-24.373	57.542	
8.00	-25.539	54.589	
9.00	-27.227	62.514	
10.00	-29.608	44.208	
11.00	-32.892	65.290	
12.00	-37.356	89.444	
13.00	-37.342	161.148	
14.00	-32.881	-173.214	
15.00	-29.455	-157.354	
16.00	-27.144	-165.421	
17.00	-25.504	-143.377	
18.00	-24.317	-154.383	
19.00	-23.560	-147.734	
20.00	-23.075	-158.202	
21.00	-22.893	-146.521	
22.00	-22.969	-148.015	
23.00	-23.262	-131.772	
24.00	-23.748	-150.519	
25.00	-24.499	-132.410	
26.00	-25.331	-144.193	
27.00	-26.332	-120.753	
28.00	-27.134	-119.860	
29.00	-27.595	-92.159	
30.00	-27.521	-86.829	
31.00	-26.947	-72.222	
32.00	-26.124	-55.363	
33.00	-25.192	-49.974	
34.00	-24.439	-40.442	
35.00	-23.774	-38.370	
36.00	-23.303	-31.651	
37.00	-22.957	-29.794	
38.00	-22.796	-29.578	
39.00	-22.732	-33.223	
40.00	-22.766	-30.501	
41.00	-22.942	-26.756	
42.00	-23.152	-23.823	
43.00	-23.422	-13.004	
44.00	-23.652	-11.957	
45.00	-23.835	-7.331	
46.00	-23.931	0.509	
47.00	-23.933	4.042	
48.00	-23.815	13.425	
49.00	-23.621	8.222	
50.00	-23.375	20.100	
51.00	-23.088	15.395	
52.00	-22.780	34.220	
53.00	-22.509	25.789	
54.00	-22.255	42.854	
55.00	-22.034	30.248	
56.00	-21.868	39.831	
57.00	-21.706	33.005	
58.00	-21.613	39.530	
59.00	-21.528	27.455	
60.00	-21.492	33.838	
61.00	-21.469	36.933	
62.00	-21.492	29.893	
63.00	-21.508	33.447	
64.00	-21.558	29.255	
65.00	-21.596	30.318	
66.00	-21.680	26.085	
67.00	-21.739	30.113	
68.00	-21.824	30.778	
69.00	-21.935	22.060	
70.00	-22.068	29.170	
71.00	-22.202	16.254	
72.00	-22.372	20.260	
73.00	-22.549	12.735	
74.00	-22.733	4.384	
75.00	-22.926	-7.953	
76.00	-23.134	1.722	
77.00	-23.278	-25.487	
78.00	-23.491	5.549	
79.00	-23.554	-26.285	
80.00	-23.619	-15.186	
81.00	-23.567	-21.986	
82.00	-23.431	-37.405	
83.00	-23.251	-34.282	
84.00	-22.996	-46.126	
85.00	-22.771	-50.994	
86.00	-22.522	-63.006	
87.00	-22.347	-66.809	
88.00	-22.195	-74.556	
89.00	-22.150	-81.854	
90.00	-22.175	-88.804	
91.00	-22.332	-90.529	
92.00	-22.579	-101.162	
93.00	-22.978	-99.095	
94.00	-23.438	-115.196	
95.00	-24.062	-108.560	
96.00	-24.716	-118.926	
97.00	-25.345	-127.527	
98.00	-25.875	-140.269	
99.00	-26.116	-152.751	
100.00	-25.995	-170.830	
101.00	-25.600	177.242	
102.00	-25.002	163.379	
103.00	-24.299	157.619	
104.00	-23.679	147.081	
105.00	-23.207	149.607	
106.00	-22.863	132.072	
107.00	-22.724	131.155	
108.00	-22.774	123.071	
109.00	-23.050	120.324	
110.00	-23.563	119.305	
111.00	-24.416	103.487	
112.00	-25.537	108.133	
113.00	-27.120	93.714	
114.00	-29.206	81.606	
115.00	-31.775	71.845	
116.00	-34.128	42.519	
117.00	-33.872	9.125	
118.00	-31.330	-25.830	
119.00	-28.897	-42.046	
120.00	-26.965	-43.802	
121.00	-25.566	-59.177	
122.00	-24.637	-45.727	
123.00	-24.010	-73.558	
124.00	-23.782	-53.733	
125.00	-23.840	-69.261	
126.00	-24.199	-65.743	
127.00	-24.900	-75.661	
128.00	-26.010	-69.356	
129.00	-27.575	-81.436	
130.00	-29.863	-67.698	
131.00	-33.064	-81.978	
132.00	-37.289	-31.325	
133.00	-37.978	-1.970	
134.00	-33.888	59.233	
135.00	-30.540	54.388	
136.00	-28.167	70.053	
137.00	-26.537	66.291	
138.00	-25.362	73.373	
139.00	-24.603	73.711	
140.00	-24.144	83.123	
141.00	-23.987	80.500	
142.00	-24.096	87.095	
143.00	-24.458	68.337	
144.00	-25.015	86.763	
145.00	-25.829	82.573	
146.00	-26.696	99.359	
147.00	-27.611	93.930	
148.00	-28.282	121.278	
149.00	-28.459	126.792	
150.00	-28.001	154.732	
151.00	-27.209	159.309	
152.00	-26.294	152.711	
153.00	-25.363	164.409	
154.00	-24.593	160.963	
155.00	-23.970	171.898	
156.00	-23.535	164.783	
157.00	-23.247	174.372	
158.00	-23.102	178.707	
159.00	-23.106	174.538	
160.00	-23.210	-161.630	
161.00	-23.427	177.164	
162.00	-23.672	-157.299	
163.00	-23.960	-162.759	
164.00	-24.238	-143.780	
165.00	-24.448	-146.813	
166.00	-24.587	-128.669	
167.00	-24.619	-132.940	
168.00	-24.528	-127.390	
169.00	-24.364	-116.156	
170.00	-24.168	-106.733	
171.00	-23.936	-109.555	
172.00	-23.712	-104.722	
173.00	-23.514	-110.809	
174.00	-23.345	-103.046	
175.00	-23.217	-99.065	
176.00	-23.115	-104.425	
177.00	-23.034	-92.068	
178.00	-22.965	-107.361	
179.00	-22.944	-87.505	
180.00	-22.905	-106.590	
181.00	-22.866	-92.682	
182.00	-22.812	-107.308	
183.00	-22.770	-89.230	
184.00	-22.693	-104.674	
185.00	-22.609	-92.247	
186.00	-22.520	-101.673	
187.00	-22.442	-90.478	
188.00	-22.337	-95.828	
189.00	-22.259	-93.168	
190.00	-22.184	-91.819	
191.00	-22.139	-93.427	
192.00	-22.111	-95.686	
193.00	-22.154	-105.411	
194.00	-22.223	-101.485	
195.00	-22.334	-117.009	
196.00	-22.485	-109.919	
197.00	-22.684	-118.568	
198.00	-22.880	-105.173	
199.00	-23.092	-117.305	
200.00	-23.273	-109.432	
201.00	-23.410	-120.345	
202.00	-23.458	-112.842	
203.00	-23.396	-131.195	
204.00	-23.226	-136.784	
205.00	-22.992	-142.696	
206.00	-22.722	-150.252	
207.00	-22.409	-149.793	
208.00	-22.169	-159.431	
209.00	-21.976	-152.506	
210.00	-21.895	-162.989	
211.00	-21.932	-166.974	
212.00	-22.102	-165.324	
213.00	-22.370	176.972	
214.00	-22.795	-172.552	
215.00	-23.376	175.870	
216.00	-24.078	-177.360	
217.00	-24.846	161.456	
218.00	-25.645	168.583	
219.00	-26.159	142.612	
220.00	-26.380	150.273	
221.00	-26.097	122.617	
222.00	-25.531	127.641	
223.00	-24.754	108.791	
224.00	-24.024	110.728	
225.00	-23.426	105.958	
226.00	-23.018	100.563	
227.00	-22.818	91.590	
228.00	-22.826	93.503	
229.00	-23.125	88.396	
230.00	-23.711	89.347	
231.00	-24.622	86.571	
232.00	-25.940	85.313	
233.00	-27.802	71.431	
234.00	-30.344	66.591	
235.00	-33.537	44.414	
236.00	-35.328	5.869	
237.00	-33.085	-26.109	
238.00	-29.972	-42.156	
239.00	-27.450	-56.351	
240.00	-25.681	-50.872	
241.00	-24.410	-63.092	
242.00	-23.616	-46.123	
243.00	-23.111	-63.846	
244.00	-23.002	-43.773	
245.00	-23.158	-55.580	
246.00	-23.663	-49.103	
247.00	-24.522	-54.470	
248.00	-25.827	-50.711	
249.00	-27.631	-47.967	
250.00	-30.304	-34.152	
251.00	-33.950	-22.662	
252.00	-37.129	33.859	
253.00	-34.819	49.272	
254.00	-30.897	103.069	
255.00	-28.202	102.319	
256.00	-26.141	134.370	
257.00	-24.817	118.570	
258.00	-23.894	122.869	
259.00	-23.320	129.993	
260.00	-23.031	136.019	
261.00	-23.035	141.577	
262.00	-23.294	142.870	
263.00	-23.769	150.808	
264.00	-24.474	154.947	
265.00	-25.359	165.444	
266.00	-26.346	179.732	
267.00	-27.183	-168.122	
268.00	-27.700	-150.047	
269.00	-27.616	-143.520	
270.00	-26.995	-118.077	
271.00	-26.144	-113.957	
272.00	-25.207	-95.214	
273.00	-24.402	-95.578	
274.00	-23.712	-89.853	
275.00	-23.204	-88.571	
276.00	-22.871	-75.661	
277.00	-22.679	-79.795	
278.00	-22.627	-66.922	
279.00	-22.694	-72.148	
280.00	-22.863	-71.322	
281.00	-23.101	-59.634	
282.00	-23.370	-62.269	
283.00	-23.678	-38.118	
284.00	-23.895	-52.748	
285.00	-24.072	-24.740	
286.00	-24.090	-44.641	
287.00	-24.053	-16.937	
288.00	-23.871	-27.202	
289.00	-23.619	0.706	
290.00	-23.320	-7.459	
291.00	-23.017	7.137	
292.00	-22.701	0.620	
293.00	-22.438	14.057	
294.00	-22.194	7.282	
295.00	-21.980	16.358	
296.00	-21.830	16.999	
297.00	-21.710	23.514	
298.00	-21.606	30.813	
299.00	-21.529	29.347	
300.00	-21.492	24.616	
301.00	-21.452	32.228	
302.00	-21.453	24.553	
303.00	-21.446	40.204	
304.00	-21.425	28.293	
305.00	-21.457	44.960	
306.00	-21.491	38.640	
307.00	-21.480	42.661	
308.00	-21.522	42.615	
309.00	-21.549	35.281	
310.00	-21.613	42.040	
311.00	-21.662	35.385	
312.00	-21.787	43.099	
313.00	-21.926	39.800	
314.00	-22.053	39.496	
315.00	-22.186	31.166	
316.00	-22.343	27.267	
317.00	-22.475	33.920	
318.00	-22.601	24.364	
319.00	-22.645	31.909	
320.00	-22.626	5.354	
321.00	-22.594	12.781	
322.00	-22.455	-5.763	
323.00	-22.344	4.875	
324.00	-22.173	-4.183	
325.00	-22.028	-2.507	
326.00	-21.880	-5.354	
327.00	-21.799	-14.581	
328.00	-21.812	-6.384	
329.00	-21.852	-16.464	
330.00	-22.016	-0.857	
331.00	-22.274	-20.917	
332.00	-22.658	-14.929	
333.00	-23.165	-23.007	
334.00	-23.769	-26.236	
335.00	-24.460	-30.221	
336.00	-25.152	-53.727	
337.00	-25.776	-42.562	
338.00	-26.135	-78.577	
339.00	-26.160	-65.792	
340.00	-25.777	-102.284	
341.00	-25.228	-87.653	
342.00	-24.508	-112.333	
343.00	-23.834	-104.781	
344.00	-23.233	-119.728	
345.00	-22.824	-111.529	
346.00	-22.555	-128.557	
347.00	-22.522	-112.053	
348.00	-22.668	-129.292	
349.00	-23.063	-143.822	
350.00	-23.716	-141.612	
351.00	-24.678	-147.243	
352.00	-26.008	-153.382	
353.00	-27.811	-156.755	
354.00	-30.164	-158.824	
355.00	-32.875	-175.429	
356.00	-34.181	145.442	
357.00	-32.261	131.836	
358.00	-29.737	88.223	
359.00	-27.792	84.949	
Frequency	2690.00	MHz	
Channel	test		
Scan Axis name	Azimuth  [deg]		
Scan Axis	Amplitude	Phase	
			
0.00	-26.389	-171.661	
1.00	-25.197	-164.133	
2.00	-24.402	-177.884	
3.00	-23.941	174.711	
4.00	-23.805	-177.974	
5.00	-23.965	177.101	
6.00	-24.455	-175.227	
7.00	-25.310	176.566	
8.00	-26.611	173.586	
9.00	-28.467	-178.326	
10.00	-31.194	162.576	
11.00	-35.164	-174.116	
12.00	-40.460	-138.365	
13.00	-37.653	-62.329	
14.00	-32.717	-44.477	
15.00	-29.413	-32.843	
16.00	-27.250	-41.847	
17.00	-25.729	-20.780	
18.00	-24.651	-32.011	
19.00	-23.965	-26.104	
20.00	-23.561	-36.215	
21.00	-23.451	-24.658	
22.00	-23.584	-26.592	
23.00	-23.949	-9.979	
24.00	-24.533	-28.562	
25.00	-25.330	-10.298	
26.00	-26.250	-20.607	
27.00	-27.185	3.106	
28.00	-27.917	5.689	
29.00	-28.179	33.444	
30.00	-27.863	39.057	
31.00	-27.140	52.919	
32.00	-26.231	68.865	
33.00	-25.285	73.423	
34.00	-24.571	82.330	
35.00	-23.921	84.175	
36.00	-23.489	90.336	
37.00	-23.205	92.520	
38.00	-23.063	91.894	
39.00	-23.046	89.038	
40.00	-23.134	91.110	
41.00	-23.330	95.876	
42.00	-23.558	98.412	
43.00	-23.856	109.740	
44.00	-24.106	110.729	
45.00	-24.293	115.649	
46.00	-24.392	123.392	
47.00	-24.375	127.162	
48.00	-24.276	136.317	
49.00	-24.085	131.081	
50.00	-23.826	142.643	
51.00	-23.561	137.889	
52.00	-23.301	156.517	
53.00	-23.030	147.751	
54.00	-22.828	164.942	
55.00	-22.648	151.824	
56.00	-22.478	161.533	
57.00	-22.350	154.643	
58.00	-22.258	160.673	
59.00	-22.199	149.164	
60.00	-22.144	155.162	
61.00	-22.124	158.310	
62.00	-22.106	151.063	
63.00	-22.113	155.143	
64.00	-22.137	150.679	
65.00	-22.159	152.015	
66.00	-22.199	147.990	
67.00	-22.247	152.081	
68.00	-22.315	152.784	
69.00	-22.395	144.390	
70.00	-22.524	151.057	
71.00	-22.647	138.843	
72.00	-22.803	142.290	
73.00	-22.969	135.459	
74.00	-23.192	126.377	
75.00	-23.396	114.462	
76.00	-23.633	124.058	
77.00	-23.813	96.896	
78.00	-24.081	127.250	
79.00	-24.150	96.134	
80.00	-24.244	105.867	
81.00	-24.209	99.392	
82.00	-24.069	83.590	
83.00	-23.882	86.265	
84.00	-23.630	74.788	
85.00	-23.394	68.858	
86.00	-23.135	57.814	
87.00	-22.936	52.946	
88.00	-22.770	46.180	
89.00	-22.694	38.261	
90.00	-22.732	31.796	
91.00	-22.859	30.094	
92.00	-23.117	19.621	
93.00	-23.515	21.685	
94.00	-24.003	6.333	
95.00	-24.604	12.818	
96.00	-25.263	2.657	
97.00	-25.945	-5.669	
98.00	-26.536	-18.488	
99.00	-26.862	-30.884	
100.00	-26.825	-49.516	
101.00	-26.451	-61.709	
102.00	-25.828	-76.167	
103.00	-25.160	-82.069	
104.00	-24.508	-92.858	
105.00	-23.991	-91.010	
106.00	-23.649	-108.010	
107.00	-23.471	-109.912	
108.00	-23.496	-117.223	
109.00	-23.755	-120.862	
110.00	-24.243	-121.093	
111.00	-25.070	-137.886	
112.00	-26.194	-133.193	
113.00	-27.769	-147.723	
114.00	-29.822	-160.640	
115.00	-32.390	-170.353	
116.00	-34.597	159.853	
117.00	-34.201	128.145	
118.00	-31.752	93.736	
119.00	-29.400	77.560	
120.00	-27.558	76.192	
121.00	-26.147	59.967	
122.00	-25.296	74.047	
123.00	-24.652	45.549	
124.00	-24.469	65.967	
125.00	-24.529	49.171	
126.00	-24.921	53.746	
127.00	-25.614	42.637	
128.00	-26.772	49.342	
129.00	-28.355	36.665	
130.00	-30.774	49.908	
131.00	-33.992	35.237	
132.00	-38.961	85.827	
133.00	-39.455	119.842	
134.00	-34.906	-177.008	
135.00	-31.418	175.630	
136.00	-29.017	-168.671	
137.00	-27.411	-173.300	
138.00	-26.260	-166.249	
139.00	-25.545	-166.325	
140.00	-25.096	-156.725	
141.00	-24.989	-159.845	
142.00	-25.135	-153.228	
143.00	-25.548	-172.435	
144.00	-26.146	-153.721	
145.00	-26.996	-157.605	
146.00	-27.874	-140.603	
147.00	-28.812	-145.992	
148.00	-29.401	-117.497	
149.00	-29.430	-111.571	
150.00	-28.773	-83.979	
151.00	-27.910	-80.541	
152.00	-26.977	-87.696	
153.00	-26.032	-76.940	
154.00	-25.308	-80.354	
155.00	-24.712	-70.456	
156.00	-24.313	-76.952	
157.00	-24.035	-68.180	
158.00	-23.947	-63.475	
159.00	-23.955	-68.048	
160.00	-24.086	-43.929	
161.00	-24.334	-65.372	
162.00	-24.584	-39.242	
163.00	-24.894	-44.457	
164.00	-25.122	-25.278	
165.00	-25.338	-27.781	
166.00	-25.394	-9.405	
167.00	-25.365	-13.856	
168.00	-25.220	-7.633	
169.00	-25.002	3.209	
170.00	-24.750	13.105	
171.00	-24.493	9.740	
172.00	-24.261	14.796	
173.00	-24.023	8.692	
174.00	-23.865	16.610	
175.00	-23.734	20.258	
176.00	-23.624	15.811	
177.00	-23.567	27.563	
178.00	-23.505	13.017	
179.00	-23.516	32.585	
180.00	-23.462	13.741	
181.00	-23.447	27.684	
182.00	-23.379	13.306	
183.00	-23.360	31.133	
184.00	-23.270	15.888	
185.00	-23.190	27.921	
186.00	-23.082	18.738	
187.00	-22.965	29.417	
188.00	-22.835	23.950	
189.00	-22.722	26.057	
190.00	-22.613	27.636	
191.00	-22.527	25.295	
192.00	-22.473	23.110	
193.00	-22.481	12.920	
194.00	-22.511	16.902	
195.00	-22.620	1.209	
196.00	-22.741	8.176	
197.00	-22.907	-0.254	
198.00	-23.098	13.038	
199.00	-23.293	0.984	
200.00	-23.475	9.332	
201.00	-23.615	-1.727	
202.00	-23.679	6.185	
203.00	-23.671	-12.151	
204.00	-23.540	-17.716	
205.00	-23.337	-23.630	
206.00	-23.118	-31.235	
207.00	-22.842	-30.646	
208.00	-22.625	-40.666	
209.00	-22.450	-33.865	
210.00	-22.382	-44.778	
211.00	-22.394	-48.386	
212.00	-22.539	-47.603	
213.00	-22.816	-64.448	
214.00	-23.196	-54.575	
215.00	-23.748	-65.895	
216.00	-24.413	-58.945	
217.00	-25.171	-80.093	
218.00	-25.873	-72.527	
219.00	-26.435	-98.013	
220.00	-26.652	-89.323	
221.00	-26.506	-116.735	
222.00	-26.020	-111.645	
223.00	-25.381	-130.763	
224.00	-24.682	-129.105	
225.00	-24.106	-134.328	
226.00	-23.713	-140.168	
227.00	-23.533	-149.621	
228.00	-23.557	-147.734	
229.00	-23.833	-153.570	
230.00	-24.398	-152.579	
231.00	-25.299	-155.868	
232.00	-26.575	-157.251	
233.00	-28.424	-171.556	
234.00	-30.867	-176.435	
235.00	-33.859	161.005	
236.00	-35.480	124.231	
237.00	-33.430	93.742	
238.00	-30.483	78.095	
239.00	-28.075	63.015	
240.00	-26.381	68.276	
241.00	-25.110	55.868	
242.00	-24.371	72.601	
243.00	-23.880	54.649	
244.00	-23.817	74.434	
245.00	-23.998	62.591	
246.00	-24.562	68.437	
247.00	-25.496	62.842	
248.00	-26.919	66.198	
249.00	-28.917	68.273	
250.00	-31.982	81.959	
251.00	-36.532	93.506	
252.00	-40.212	164.747	
253.00	-35.745	-178.825	
254.00	-31.406	-130.044	
255.00	-28.653	-132.226	
256.00	-26.640	-102.483	
257.00	-25.370	-118.345	
258.00	-24.467	-115.319	
259.00	-23.958	-107.641	
260.00	-23.697	-102.469	
261.00	-23.732	-97.095	
262.00	-24.009	-95.940	
263.00	-24.532	-88.155	
264.00	-25.242	-83.794	
265.00	-26.182	-73.436	
266.00	-27.158	-58.238	
267.00	-27.963	-46.513	
268.00	-28.425	-27.639	
269.00	-28.270	-21.581	
270.00	-27.607	3.518	
271.00	-26.730	7.707	
272.00	-25.795	25.597	
273.00	-24.979	25.695	
274.00	-24.317	30.780	
275.00	-23.824	32.583	
276.00	-23.501	45.275	
277.00	-23.317	41.044	
278.00	-23.279	54.389	
279.00	-23.351	49.102	
280.00	-23.518	50.067	
281.00	-23.782	62.223	
282.00	-24.019	59.161	
283.00	-24.368	83.946	
284.00	-24.549	69.010	
285.00	-24.757	97.543	
286.00	-24.735	77.131	
287.00	-24.706	105.426	
288.00	-24.525	94.778	
289.00	-24.319	123.091	
290.00	-24.041	114.666	
291.00	-23.749	129.834	
292.00	-23.485	122.897	
293.00	-23.231	136.561	
294.00	-23.024	129.523	
295.00	-22.853	138.817	
296.00	-22.705	139.421	
297.00	-22.609	146.180	
298.00	-22.525	152.936	
299.00	-22.469	151.841	
300.00	-22.424	146.672	
301.00	-22.392	154.393	
302.00	-22.380	146.802	
303.00	-22.358	161.697	
304.00	-22.362	150.423	
305.00	-22.330	165.973	
306.00	-22.331	160.775	
307.00	-22.303	163.481	
308.00	-22.294	163.863	
309.00	-22.265	156.300	
310.00	-22.304	162.877	
311.00	-22.349	156.118	
312.00	-22.439	164.371	
313.00	-22.533	160.582	
314.00	-22.637	160.771	
315.00	-22.760	152.254	
316.00	-22.933	148.256	
317.00	-23.075	155.856	
318.00	-23.215	145.638	
319.00	-23.295	153.683	
320.00	-23.288	126.819	
321.00	-23.278	134.004	
322.00	-23.139	115.396	
323.00	-23.020	125.890	
324.00	-22.823	116.514	
325.00	-22.625	118.026	
326.00	-22.465	115.326	
327.00	-22.337	105.477	
328.00	-22.291	114.188	
329.00	-22.295	103.642	
330.00	-22.460	119.774	
331.00	-22.662	99.230	
332.00	-23.016	105.743	
333.00	-23.500	97.613	
334.00	-24.095	95.046	
335.00	-24.787	91.437	
336.00	-25.492	68.356	
337.00	-26.196	79.971	
338.00	-26.614	43.890	
339.00	-26.770	56.709	
340.00	-26.461	20.057	
341.00	-25.933	33.376	
342.00	-25.209	8.833	
343.00	-24.514	15.603	
344.00	-23.907	0.871	
345.00	-23.428	8.696	
346.00	-23.164	-8.196	
347.00	-23.082	8.336	
348.00	-23.224	-9.308	
349.00	-23.601	-23.554	
350.00	-24.256	-21.611	
351.00	-25.217	-26.437	
352.00	-26.598	-33.627	
353.00	-28.413	-35.573	
354.00	-30.813	-38.587	
355.00	-33.587	-54.425	
356.00	-34.922	-95.682	
357.00	-32.977	-108.623	
358.00	-30.265	-153.271	
359.00	-28.343	-156.067	
