Test Title:	Alpha Wireless Indoor Range						
Date:	14/12/2017						
Time:	15:23						
Operator Name:	FL						
Comment:	Axis 1 180.2
Axis 2 349.9						
Caib. File Name:	C:\Program Files\Midas 2.01d\Calibration Files\test sigma 180900.cal						
							
[Scan Axis] Name: 	Azimuth  [deg]Start: 	0.000000	Stop	359.000000	Increment	1.000000[Step Axis] Name: 	Start: 	0.000000	Stop	0.000000	Increment	0.000000[Tert] Name: 	None [Forth] Name: 	None  [ Freq.]  (List) 	MHz.	2496.000000	2500.000000	2525.000000	2550.000000	2575.000000	2600.000000	2625.000000	2650.000000	2675.000000	2690.000000
 [Switch]  	None [Channel]  	test			 [ Beam] 	None			
Database:			
First Question			
2nd			
3rd			
4th			
			
Frequency	2496.00	MHz	
Channel	test		
Scan Axis name	Azimuth  [deg]		
Scan Axis	Amplitude	Phase	
			
0.00	-36.256	-160.286	
1.00	-35.288	-160.474	
2.00	-34.544	-174.000	
3.00	-34.155	-154.052	
4.00	-33.860	-173.426	
5.00	-33.810	-168.061	
6.00	-33.922	165.173	
7.00	-34.270	163.421	
8.00	-34.789	145.485	
9.00	-35.323	141.420	
10.00	-36.177	130.941	
11.00	-36.937	121.864	
12.00	-37.661	104.207	
13.00	-38.404	100.897	
14.00	-38.831	77.032	
15.00	-38.854	55.828	
16.00	-38.829	43.744	
17.00	-38.700	21.649	
18.00	-38.529	12.574	
19.00	-38.187	-7.561	
20.00	-38.080	-6.391	
21.00	-38.006	-14.827	
22.00	-38.068	-29.754	
23.00	-38.380	-39.072	
24.00	-38.485	-53.369	
25.00	-38.747	-58.111	
26.00	-38.940	-88.196	
27.00	-38.592	-79.468	
28.00	-38.599	-104.131	
29.00	-38.141	-103.060	
30.00	-37.809	-118.384	
31.00	-37.532	-123.746	
32.00	-37.043	-127.604	
33.00	-37.093	-145.788	
34.00	-37.050	-135.831	
35.00	-37.422	-166.113	
36.00	-38.083	-156.323	
37.00	-38.935	-169.033	
38.00	-40.201	-151.787	
39.00	-42.207	-164.671	
40.00	-45.161	-169.513	
41.00	-49.859	-139.763	
42.00	-54.596	-84.735	
43.00	-47.668	-26.413	
44.00	-43.327	-24.326	
45.00	-40.347	-20.471	
46.00	-38.114	-17.662	
47.00	-36.735	-21.890	
48.00	-35.511	-33.959	
49.00	-34.790	-24.986	
50.00	-34.166	-37.070	
51.00	-33.847	-41.968	
52.00	-33.772	-43.478	
53.00	-33.892	-38.882	
54.00	-34.299	-49.434	
55.00	-34.959	-36.977	
56.00	-35.859	-37.342	
57.00	-37.012	-33.188	
58.00	-38.408	-24.406	
59.00	-40.165	-24.955	
60.00	-42.085	-18.951	
61.00	-44.612	-13.076	
62.00	-46.808	-12.354	
63.00	-50.101	2.054	
64.00	-51.959	5.298	
65.00	-54.882	25.060	
66.00	-55.136	-2.463	
67.00	-57.756	-15.584	
68.00	-53.737	-61.740	
69.00	-48.914	-58.562	
70.00	-45.494	-77.917	
71.00	-42.513	-71.968	
72.00	-40.330	-76.636	
73.00	-38.283	-74.787	
74.00	-36.777	-70.343	
75.00	-35.702	-79.799	
76.00	-34.810	-71.863	
77.00	-34.266	-77.311	
78.00	-33.856	-79.109	
79.00	-33.818	-75.449	
80.00	-33.919	-75.527	
81.00	-34.454	-74.490	
82.00	-34.996	-83.144	
83.00	-36.092	-69.500	
84.00	-37.356	-78.126	
85.00	-39.306	-64.234	
86.00	-42.037	-69.706	
87.00	-46.182	-57.985	
88.00	-54.549	-38.418	
89.00	-54.048	70.255	
90.00	-46.362	87.149	
91.00	-42.744	90.986	
92.00	-40.190	110.990	
93.00	-38.505	106.929	
94.00	-37.378	121.965	
95.00	-36.865	98.159	
96.00	-36.437	112.424	
97.00	-36.511	104.220	
98.00	-36.764	114.701	
99.00	-37.460	107.611	
100.00	-38.464	114.476	
101.00	-39.705	121.693	
102.00	-41.996	123.535	
103.00	-44.473	135.705	
104.00	-46.721	171.816	
105.00	-46.723	-147.999	
106.00	-44.405	-131.567	
107.00	-41.601	-105.810	
108.00	-39.854	-96.299	
109.00	-38.257	-90.764	
110.00	-37.194	-89.767	
111.00	-36.475	-85.754	
112.00	-36.229	-82.128	
113.00	-36.073	-78.941	
114.00	-36.563	-78.531	
115.00	-37.164	-77.927	
116.00	-37.946	-68.414	
117.00	-39.016	-98.550	
118.00	-41.233	-73.448	
119.00	-44.673	-115.437	
120.00	-49.250	-65.537	
121.00	-68.200	-34.683	
122.00	-53.086	73.927	
123.00	-45.079	89.765	
124.00	-42.007	75.552	
125.00	-39.571	77.055	
126.00	-38.052	64.214	
127.00	-36.730	65.768	
128.00	-35.963	56.256	
129.00	-35.826	63.498	
130.00	-35.490	54.547	
131.00	-35.971	67.948	
132.00	-36.196	62.618	
133.00	-37.050	66.772	
134.00	-38.131	54.166	
135.00	-39.528	52.868	
136.00	-41.417	64.602	
137.00	-44.360	63.491	
138.00	-49.255	53.322	
139.00	-57.555	79.965	
140.00	-53.049	171.478	
141.00	-47.070	-161.654	
142.00	-43.635	-147.684	
143.00	-41.555	-167.855	
144.00	-39.875	-156.919	
145.00	-39.306	-169.633	
146.00	-38.659	-149.510	
147.00	-38.062	-176.291	
148.00	-38.516	-152.446	
149.00	-38.795	-168.440	
150.00	-39.850	-146.962	
151.00	-41.030	-141.616	
152.00	-42.482	-162.273	
153.00	-44.232	-144.670	
154.00	-46.291	-130.813	
155.00	-47.740	-104.618	
156.00	-47.872	-69.575	
157.00	-46.180	-60.594	
158.00	-43.911	-34.901	
159.00	-42.124	-53.361	
160.00	-41.013	-22.391	
161.00	-40.192	-38.416	
162.00	-39.684	-13.942	
163.00	-39.436	-30.081	
164.00	-39.344	-16.882	
165.00	-39.319	-25.638	
166.00	-39.694	-32.874	
167.00	-39.917	-34.273	
168.00	-40.477	-47.188	
169.00	-40.981	-27.966	
170.00	-41.452	-44.324	
171.00	-42.000	-20.303	
172.00	-42.224	-40.511	
173.00	-42.435	-23.433	
174.00	-42.435	-41.164	
175.00	-42.207	-20.362	
176.00	-41.324	-35.906	
177.00	-40.621	-22.739	
178.00	-39.836	-36.255	
179.00	-39.051	-35.667	
180.00	-38.250	-35.844	
181.00	-37.541	-36.427	
182.00	-37.010	-36.141	
183.00	-36.514	-50.962	
184.00	-36.221	-48.857	
185.00	-35.939	-42.588	
186.00	-35.865	-37.891	
187.00	-35.895	-31.054	
188.00	-36.163	-36.446	
189.00	-36.496	-35.319	
190.00	-36.915	-39.667	
191.00	-37.449	-39.727	
192.00	-38.125	-25.951	
193.00	-38.733	-32.634	
194.00	-39.411	-18.879	
195.00	-40.126	-21.457	
196.00	-40.786	-20.414	
197.00	-41.082	-24.947	
198.00	-41.196	-28.211	
199.00	-41.061	-32.055	
200.00	-40.525	-40.799	
201.00	-39.588	-38.017	
202.00	-38.555	-43.588	
203.00	-37.550	-46.201	
204.00	-36.478	-49.791	
205.00	-35.617	-47.205	
206.00	-34.882	-50.082	
207.00	-34.307	-48.003	
208.00	-33.836	-49.259	
209.00	-33.736	-46.696	
210.00	-33.651	-51.669	
211.00	-33.904	-52.280	
212.00	-34.326	-51.543	
213.00	-34.999	-54.477	
214.00	-35.925	-56.992	
215.00	-37.081	-52.808	
216.00	-38.563	-65.003	
217.00	-40.091	-72.877	
218.00	-41.542	-88.917	
219.00	-42.105	-111.026	
220.00	-41.313	-125.558	
221.00	-39.909	-144.244	
222.00	-38.536	-147.261	
223.00	-37.289	-156.966	
224.00	-36.288	-159.176	
225.00	-35.535	-162.549	
226.00	-35.176	-166.101	
227.00	-34.996	-162.914	
228.00	-34.932	-158.119	
229.00	-35.190	-162.940	
230.00	-35.688	-154.863	
231.00	-36.473	-157.539	
232.00	-37.530	-150.252	
233.00	-39.186	-156.928	
234.00	-41.211	-157.253	
235.00	-44.429	-150.545	
236.00	-48.826	179.517	
237.00	-52.192	138.424	
238.00	-47.379	91.470	
239.00	-43.269	81.555	
240.00	-40.235	72.880	
241.00	-38.242	81.931	
242.00	-36.726	76.586	
243.00	-35.640	86.028	
244.00	-34.802	81.675	
245.00	-34.224	79.087	
246.00	-34.050	79.311	
247.00	-33.933	79.410	
248.00	-34.127	80.978	
249.00	-34.624	85.667	
250.00	-35.333	82.482	
251.00	-36.428	87.018	
252.00	-37.840	86.901	
253.00	-39.996	84.618	
254.00	-43.501	96.988	
255.00	-48.701	97.667	
256.00	-61.892	174.642	
257.00	-49.051	-111.752	
258.00	-43.293	-101.705	
259.00	-40.046	-102.871	
260.00	-37.882	-94.969	
261.00	-36.341	-95.261	
262.00	-35.333	-87.109	
263.00	-34.609	-89.671	
264.00	-34.165	-84.362	
265.00	-34.053	-90.904	
266.00	-34.207	-86.843	
267.00	-34.528	-88.198	
268.00	-35.061	-84.518	
269.00	-35.894	-82.829	
270.00	-37.071	-80.332	
271.00	-38.382	-74.797	
272.00	-40.032	-68.849	
273.00	-41.805	-54.094	
274.00	-43.210	-38.368	
275.00	-43.492	-20.604	
276.00	-42.959	1.367	
277.00	-41.224	11.570	
278.00	-40.011	22.548	
279.00	-38.689	22.980	
280.00	-37.547	25.161	
281.00	-36.673	27.456	
282.00	-35.917	18.194	
283.00	-35.373	25.469	
284.00	-34.858	19.493	
285.00	-34.593	25.707	
286.00	-34.241	19.942	
287.00	-34.078	23.217	
288.00	-33.977	21.560	
289.00	-33.944	27.400	
290.00	-34.024	23.994	
291.00	-34.248	29.468	
292.00	-34.442	30.256	
293.00	-34.765	41.977	
294.00	-35.000	42.005	
295.00	-35.222	49.847	
296.00	-35.323	65.523	
297.00	-35.331	63.389	
298.00	-35.288	81.286	
299.00	-35.002	79.433	
300.00	-34.866	97.437	
301.00	-34.668	92.127	
302.00	-34.539	110.251	
303.00	-34.623	100.495	
304.00	-34.736	115.716	
305.00	-35.064	107.143	
306.00	-35.533	121.285	
307.00	-36.184	107.613	
308.00	-37.109	118.988	
309.00	-38.171	107.129	
310.00	-39.464	107.722	
311.00	-40.692	93.621	
312.00	-41.567	88.642	
313.00	-41.683	63.574	
314.00	-41.132	55.615	
315.00	-40.340	40.836	
316.00	-39.417	44.154	
317.00	-38.444	33.914	
318.00	-37.893	39.326	
319.00	-37.286	36.125	
320.00	-37.072	46.440	
321.00	-36.871	46.658	
322.00	-36.904	61.054	
323.00	-36.834	61.990	
324.00	-36.933	72.397	
325.00	-37.100	77.532	
326.00	-37.233	89.853	
327.00	-37.331	88.095	
328.00	-37.627	98.093	
329.00	-38.023	102.867	
330.00	-38.479	111.922	
331.00	-39.389	118.324	
332.00	-40.398	113.027	
333.00	-42.022	127.250	
334.00	-44.256	117.235	
335.00	-47.797	122.202	
336.00	-52.352	85.095	
337.00	-51.583	36.085	
338.00	-46.386	3.347	
339.00	-42.377	-2.235	
340.00	-39.647	-2.341	
341.00	-37.728	-4.556	
342.00	-36.278	-2.215	
343.00	-35.209	-2.270	
344.00	-34.383	-5.285	
345.00	-33.912	-5.975	
346.00	-33.631	-6.090	
347.00	-33.591	-4.283	
348.00	-33.792	-11.443	
349.00	-34.235	-8.338	
350.00	-35.007	-29.929	
351.00	-35.927	-27.915	
352.00	-37.204	-44.315	
353.00	-38.660	-44.103	
354.00	-40.454	-67.104	
355.00	-41.344	-76.261	
356.00	-41.435	-105.167	
357.00	-40.162	-147.961	
358.00	-38.707	-148.595	
359.00	-37.412	-157.207	
Frequency	2500.00	MHz	
Channel	test		
Scan Axis name	Azimuth  [deg]		
Scan Axis	Amplitude	Phase	
			
0.00	-35.627	81.437	
1.00	-34.782	81.292	
2.00	-34.169	68.885	
3.00	-33.951	88.785	
4.00	-33.691	69.692	
5.00	-33.850	75.118	
6.00	-33.973	49.086	
7.00	-34.502	47.056	
8.00	-35.013	28.814	
9.00	-35.740	24.431	
10.00	-36.540	11.741	
11.00	-37.361	2.436	
12.00	-37.942	-17.440	
13.00	-38.488	-21.433	
14.00	-38.523	-46.384	
15.00	-38.125	-65.480	
16.00	-37.805	-76.179	
17.00	-37.448	-95.737	
18.00	-37.306	-103.603	
19.00	-37.355	-121.784	
20.00	-37.236	-118.540	
21.00	-37.415	-124.390	
22.00	-37.893	-140.427	
23.00	-38.338	-148.675	
24.00	-38.972	-165.662	
25.00	-39.492	-168.303	
26.00	-39.864	158.520	
27.00	-39.920	166.450	
28.00	-39.586	137.792	
29.00	-38.974	137.529	
30.00	-38.306	118.870	
31.00	-37.520	113.743	
32.00	-36.833	109.879	
33.00	-36.480	91.793	
34.00	-36.384	101.176	
35.00	-36.402	72.229	
36.00	-36.613	81.429	
37.00	-37.237	70.366	
38.00	-38.404	84.928	
39.00	-39.789	73.118	
40.00	-41.913	65.764	
41.00	-45.263	83.068	
42.00	-50.833	96.298	
43.00	-53.812	-175.496	
44.00	-47.388	-151.175	
45.00	-42.973	-139.209	
46.00	-40.220	-134.843	
47.00	-38.044	-137.746	
48.00	-36.702	-150.445	
49.00	-35.654	-140.426	
50.00	-35.076	-154.784	
51.00	-34.637	-159.217	
52.00	-34.687	-161.011	
53.00	-34.825	-156.978	
54.00	-35.215	-168.342	
55.00	-35.856	-155.030	
56.00	-36.926	-154.581	
57.00	-38.110	-150.587	
58.00	-39.801	-139.506	
59.00	-41.916	-139.253	
60.00	-44.611	-134.589	
61.00	-48.013	-123.715	
62.00	-52.757	-116.781	
63.00	-57.307	-74.270	
64.00	-57.669	-39.726	
65.00	-56.757	-7.925	
66.00	-56.760	1.924	
67.00	-61.043	46.972	
68.00	-56.883	93.012	
69.00	-52.077	149.676	
70.00	-47.481	141.045	
71.00	-43.878	156.830	
72.00	-41.332	156.678	
73.00	-39.249	161.551	
74.00	-37.668	168.643	
75.00	-36.454	159.514	
76.00	-35.555	168.572	
77.00	-34.850	163.307	
78.00	-34.453	161.504	
79.00	-34.408	165.686	
80.00	-34.591	166.032	
81.00	-35.015	167.326	
82.00	-35.732	158.161	
83.00	-36.962	172.075	
84.00	-38.377	162.262	
85.00	-40.982	176.869	
86.00	-44.553	167.841	
87.00	-51.522	179.362	
88.00	-62.635	-43.924	
89.00	-48.315	-12.211	
90.00	-43.361	-15.759	
91.00	-40.387	-16.567	
92.00	-38.292	-2.034	
93.00	-36.918	-5.838	
94.00	-35.946	6.745	
95.00	-35.574	-15.478	
96.00	-35.365	-2.860	
97.00	-35.422	-10.944	
98.00	-35.581	-2.192	
99.00	-36.340	-8.086	
100.00	-37.273	-3.171	
101.00	-38.580	3.292	
102.00	-40.549	0.224	
103.00	-42.987	8.520	
104.00	-45.959	32.623	
105.00	-48.095	74.319	
106.00	-47.125	99.890	
107.00	-44.018	136.074	
108.00	-41.646	148.563	
109.00	-39.691	153.885	
110.00	-38.640	155.640	
111.00	-37.586	161.396	
112.00	-37.234	164.817	
113.00	-37.160	168.890	
114.00	-37.409	167.027	
115.00	-38.188	167.682	
116.00	-38.648	178.288	
117.00	-40.258	143.583	
118.00	-42.628	173.523	
119.00	-46.498	129.882	
120.00	-52.048	-171.852	
121.00	-60.486	-52.360	
122.00	-50.140	-32.732	
123.00	-44.112	-26.840	
124.00	-41.464	-41.018	
125.00	-39.331	-41.612	
126.00	-37.743	-52.614	
127.00	-36.853	-49.342	
128.00	-36.480	-60.117	
129.00	-36.144	-52.482	
130.00	-36.014	-62.260	
131.00	-36.012	-46.208	
132.00	-36.415	-52.839	
133.00	-37.542	-48.439	
134.00	-38.651	-62.613	
135.00	-40.107	-64.198	
136.00	-42.023	-54.225	
137.00	-45.387	-53.321	
138.00	-51.298	-57.080	
139.00	-57.284	24.427	
140.00	-50.862	65.607	
141.00	-45.732	80.860	
142.00	-42.759	87.729	
143.00	-40.250	72.230	
144.00	-39.879	81.261	
145.00	-38.844	68.649	
146.00	-38.505	87.759	
147.00	-37.480	59.408	
148.00	-38.602	82.236	
149.00	-38.631	67.044	
150.00	-40.231	85.580	
151.00	-41.310	88.967	
152.00	-43.100	70.053	
153.00	-45.713	84.946	
154.00	-50.093	108.602	
155.00	-51.783	138.849	
156.00	-49.697	-169.355	
157.00	-46.703	-162.749	
158.00	-44.253	-138.236	
159.00	-42.253	-157.224	
160.00	-40.657	-130.361	
161.00	-40.055	-146.861	
162.00	-39.543	-124.003	
163.00	-39.250	-140.669	
164.00	-39.563	-128.455	
165.00	-39.614	-137.610	
166.00	-40.057	-144.145	
167.00	-40.586	-150.036	
168.00	-41.183	-163.418	
169.00	-42.331	-145.411	
170.00	-43.030	-163.803	
171.00	-44.115	-138.292	
172.00	-44.752	-161.087	
173.00	-45.822	-142.070	
174.00	-45.202	-165.530	
175.00	-45.513	-140.241	
176.00	-44.448	-160.239	
177.00	-43.576	-139.562	
178.00	-42.467	-157.016	
179.00	-41.489	-155.583	
180.00	-40.262	-154.519	
181.00	-39.320	-154.739	
182.00	-38.572	-153.085	
183.00	-37.668	-169.246	
184.00	-37.358	-167.457	
185.00	-37.008	-159.357	
186.00	-36.760	-154.117	
187.00	-36.828	-145.857	
188.00	-36.910	-152.611	
189.00	-37.189	-151.339	
190.00	-37.547	-157.560	
191.00	-37.991	-157.501	
192.00	-38.658	-142.819	
193.00	-39.351	-150.885	
194.00	-40.252	-136.784	
195.00	-40.863	-140.977	
196.00	-41.581	-140.624	
197.00	-42.069	-145.562	
198.00	-42.032	-150.342	
199.00	-41.880	-153.981	
200.00	-40.934	-164.686	
201.00	-40.104	-159.393	
202.00	-39.075	-166.156	
203.00	-37.940	-167.561	
204.00	-37.004	-171.024	
205.00	-36.122	-166.912	
206.00	-35.427	-169.454	
207.00	-35.023	-166.104	
208.00	-34.708	-167.314	
209.00	-34.605	-164.478	
210.00	-34.633	-169.319	
211.00	-35.017	-168.783	
212.00	-35.562	-168.552	
213.00	-36.387	-171.491	
214.00	-37.512	-174.634	
215.00	-38.921	-170.492	
216.00	-40.706	177.225	
217.00	-42.801	165.343	
218.00	-44.386	141.931	
219.00	-44.086	115.994	
220.00	-42.347	101.511	
221.00	-40.415	85.789	
222.00	-38.862	86.086	
223.00	-37.491	78.201	
224.00	-36.738	77.570	
225.00	-36.010	75.879	
226.00	-35.683	72.648	
227.00	-35.625	77.600	
228.00	-35.705	82.325	
229.00	-35.904	78.604	
230.00	-36.620	87.581	
231.00	-37.505	86.562	
232.00	-38.741	93.557	
233.00	-40.459	90.783	
234.00	-42.642	90.541	
235.00	-46.875	99.845	
236.00	-52.903	73.266	
237.00	-56.660	-13.842	
238.00	-48.166	-42.719	
239.00	-43.730	-45.183	
240.00	-40.732	-49.724	
241.00	-38.776	-38.572	
242.00	-37.223	-43.093	
243.00	-36.124	-31.459	
244.00	-35.286	-34.806	
245.00	-34.828	-36.508	
246.00	-34.563	-35.678	
247.00	-34.509	-34.473	
248.00	-34.745	-32.473	
249.00	-35.134	-26.432	
250.00	-35.797	-28.581	
251.00	-36.796	-22.430	
252.00	-38.347	-21.206	
253.00	-40.365	-20.590	
254.00	-43.291	-4.278	
255.00	-47.427	10.672	
256.00	-50.764	62.722	
257.00	-47.024	107.973	
258.00	-42.981	126.021	
259.00	-40.005	130.831	
260.00	-37.980	141.285	
261.00	-36.515	142.200	
262.00	-35.582	151.890	
263.00	-34.934	148.856	
264.00	-34.542	155.973	
265.00	-34.479	148.950	
266.00	-34.560	153.553	
267.00	-34.873	153.323	
268.00	-35.577	157.308	
269.00	-36.434	159.192	
270.00	-37.641	161.630	
271.00	-39.147	167.545	
272.00	-40.977	173.732	
273.00	-42.586	-169.442	
274.00	-44.623	-150.136	
275.00	-44.571	-128.975	
276.00	-43.360	-107.449	
277.00	-41.561	-98.679	
278.00	-40.116	-89.380	
279.00	-38.825	-90.778	
280.00	-37.697	-88.763	
281.00	-36.872	-86.808	
282.00	-36.128	-97.343	
283.00	-35.661	-89.125	
284.00	-35.190	-95.896	
285.00	-34.810	-88.761	
286.00	-34.576	-96.207	
287.00	-34.406	-91.860	
288.00	-34.302	-94.072	
289.00	-34.406	-87.075	
290.00	-34.501	-91.282	
291.00	-34.606	-84.645	
292.00	-34.930	-83.702	
293.00	-35.168	-70.767	
294.00	-35.376	-71.076	
295.00	-35.547	-62.210	
296.00	-35.493	-47.199	
297.00	-35.517	-48.939	
298.00	-35.180	-31.723	
299.00	-34.970	-32.687	
300.00	-34.665	-16.269	
301.00	-34.474	-20.987	
302.00	-34.335	-4.085	
303.00	-34.283	-13.008	
304.00	-34.383	0.810	
305.00	-34.719	-7.143	
306.00	-35.210	5.685	
307.00	-35.892	-7.492	
308.00	-36.775	1.908	
309.00	-37.880	-9.526	
310.00	-39.074	-10.380	
311.00	-40.122	-25.118	
312.00	-41.052	-29.992	
313.00	-40.986	-53.338	
314.00	-40.440	-60.394	
315.00	-39.608	-75.185	
316.00	-38.757	-71.000	
317.00	-37.946	-81.056	
318.00	-37.308	-74.564	
319.00	-36.997	-78.374	
320.00	-36.739	-67.605	
321.00	-36.541	-68.097	
322.00	-36.473	-53.324	
323.00	-36.594	-51.517	
324.00	-36.694	-41.279	
325.00	-36.849	-36.491	
326.00	-37.022	-24.660	
327.00	-37.295	-25.412	
328.00	-37.538	-14.854	
329.00	-37.822	-10.026	
330.00	-38.483	0.317	
331.00	-39.127	6.955	
332.00	-40.250	3.818	
333.00	-41.864	17.791	
334.00	-44.174	8.898	
335.00	-48.240	14.438	
336.00	-54.488	-18.961	
337.00	-53.103	-92.804	
338.00	-46.841	-119.954	
339.00	-42.676	-122.809	
340.00	-39.939	-121.797	
341.00	-37.959	-123.277	
342.00	-36.507	-119.877	
343.00	-35.434	-119.662	
344.00	-34.625	-122.341	
345.00	-34.250	-122.399	
346.00	-34.020	-122.469	
347.00	-34.062	-120.912	
348.00	-34.348	-128.437	
349.00	-34.933	-124.625	
350.00	-35.810	-146.962	
351.00	-36.905	-144.941	
352.00	-38.336	-163.147	
353.00	-39.966	-164.089	
354.00	-41.694	169.181	
355.00	-42.239	153.457	
356.00	-41.515	127.789	
357.00	-39.685	88.039	
358.00	-37.999	90.135	
359.00	-36.680	83.435	
Frequency	2525.00	MHz	
Channel	test		
Scan Axis name	Azimuth  [deg]		
Scan Axis	Amplitude	Phase	
			
0.00	-38.282	-108.818	
1.00	-36.881	-103.659	
2.00	-35.764	-111.909	
3.00	-35.348	-86.669	
4.00	-34.962	-103.358	
5.00	-35.089	-93.787	
6.00	-35.099	-117.913	
7.00	-35.956	-114.934	
8.00	-36.609	-131.918	
9.00	-37.989	-129.979	
10.00	-39.694	-140.387	
11.00	-42.259	-148.947	
12.00	-44.860	-176.527	
13.00	-47.186	161.328	
14.00	-45.196	114.740	
15.00	-42.321	89.747	
16.00	-39.847	80.385	
17.00	-38.224	64.670	
18.00	-37.089	61.176	
19.00	-36.297	47.566	
20.00	-35.630	55.162	
21.00	-35.402	54.190	
22.00	-35.531	43.903	
23.00	-35.709	42.783	
24.00	-36.431	34.239	
25.00	-36.931	37.543	
26.00	-38.328	14.348	
27.00	-39.499	26.066	
28.00	-41.219	2.531	
29.00	-42.589	-2.887	
30.00	-43.644	-30.823	
31.00	-43.296	-47.449	
32.00	-42.395	-63.552	
33.00	-41.696	-90.585	
34.00	-40.519	-84.796	
35.00	-40.271	-119.534	
36.00	-39.788	-112.115	
37.00	-40.141	-128.421	
38.00	-40.392	-116.019	
39.00	-41.298	-135.664	
40.00	-42.586	-154.901	
41.00	-44.056	-151.154	
42.00	-45.931	-174.793	
43.00	-47.748	169.952	
44.00	-46.058	126.107	
45.00	-44.116	107.919	
46.00	-42.126	96.024	
47.00	-40.472	83.681	
48.00	-39.252	67.237	
49.00	-38.543	72.413	
50.00	-38.134	56.965	
51.00	-38.039	52.291	
52.00	-38.520	50.111	
53.00	-38.998	53.104	
54.00	-40.336	44.333	
55.00	-41.807	57.335	
56.00	-44.153	63.244	
57.00	-47.134	76.461	
58.00	-51.234	115.185	
59.00	-50.768	158.591	
60.00	-47.286	-173.733	
61.00	-44.060	-161.994	
62.00	-41.903	-165.794	
63.00	-40.666	-160.812	
64.00	-39.933	-163.832	
65.00	-39.862	-149.805	
66.00	-39.538	-177.123	
67.00	-40.566	-152.872	
68.00	-41.294	-173.233	
69.00	-43.474	-150.704	
70.00	-46.085	-164.188	
71.00	-51.242	-152.798	
72.00	-62.885	-109.876	
73.00	-54.192	3.516	
74.00	-47.179	13.113	
75.00	-44.160	7.226	
76.00	-41.866	16.328	
77.00	-40.581	13.984	
78.00	-39.567	12.790	
79.00	-39.110	19.956	
80.00	-39.005	22.434	
81.00	-39.336	28.051	
82.00	-39.819	24.692	
83.00	-40.464	44.782	
84.00	-41.179	46.706	
85.00	-41.676	71.809	
86.00	-41.804	77.381	
87.00	-41.430	99.031	
88.00	-40.535	107.978	
89.00	-39.551	122.601	
90.00	-38.646	125.150	
91.00	-37.935	127.933	
92.00	-37.570	145.486	
93.00	-37.095	143.714	
94.00	-37.129	157.637	
95.00	-37.106	135.374	
96.00	-37.816	146.879	
97.00	-38.530	140.140	
98.00	-39.978	144.579	
99.00	-41.656	138.148	
100.00	-44.286	135.250	
101.00	-48.705	129.870	
102.00	-55.945	98.077	
103.00	-54.269	-2.126	
104.00	-47.052	-15.321	
105.00	-43.368	-21.775	
106.00	-41.085	-29.729	
107.00	-39.208	-19.705	
108.00	-37.955	-16.304	
109.00	-37.102	-17.998	
110.00	-36.626	-21.172	
111.00	-36.411	-19.271	
112.00	-36.227	-20.266	
113.00	-36.432	-19.152	
114.00	-36.954	-22.159	
115.00	-37.695	-25.221	
116.00	-38.807	-18.067	
117.00	-40.304	-54.206	
118.00	-42.794	-38.961	
119.00	-45.719	-92.841	
120.00	-49.755	-75.946	
121.00	-50.574	-133.956	
122.00	-46.714	179.325	
123.00	-43.906	177.742	
124.00	-41.590	143.809	
125.00	-39.291	142.711	
126.00	-37.878	126.924	
127.00	-36.971	125.259	
128.00	-36.363	112.525	
129.00	-36.032	117.283	
130.00	-35.696	105.948	
131.00	-35.879	119.344	
132.00	-36.011	110.351	
133.00	-36.492	114.246	
134.00	-37.434	97.237	
135.00	-38.576	96.264	
136.00	-40.279	102.724	
137.00	-42.255	99.892	
138.00	-46.084	76.373	
139.00	-52.564	72.085	
140.00	-64.076	-105.206	
141.00	-52.158	-98.359	
142.00	-45.698	-100.274	
143.00	-42.479	-122.619	
144.00	-39.680	-105.425	
145.00	-39.047	-130.071	
146.00	-38.193	-109.360	
147.00	-37.979	-142.830	
148.00	-37.860	-116.034	
149.00	-38.151	-132.938	
150.00	-38.711	-114.660	
151.00	-39.660	-115.496	
152.00	-41.057	-139.911	
153.00	-43.524	-133.755	
154.00	-47.730	-139.993	
155.00	-53.068	-155.256	
156.00	-71.023	74.822	
157.00	-52.988	35.900	
158.00	-47.134	47.891	
159.00	-44.575	27.558	
160.00	-41.989	47.721	
161.00	-40.816	29.121	
162.00	-40.084	45.755	
163.00	-39.598	30.683	
164.00	-39.287	38.401	
165.00	-39.427	28.104	
166.00	-39.845	17.945	
167.00	-40.205	12.218	
168.00	-40.974	-3.009	
169.00	-41.230	10.702	
170.00	-42.255	-9.087	
171.00	-42.430	12.535	
172.00	-43.473	-10.056	
173.00	-43.656	6.896	
174.00	-44.450	-12.387	
175.00	-44.053	14.061	
176.00	-44.304	-0.587	
177.00	-43.386	21.840	
178.00	-42.991	10.789	
179.00	-41.965	17.316	
180.00	-40.923	20.376	
181.00	-39.938	24.455	
182.00	-39.178	25.491	
183.00	-38.474	13.364	
184.00	-38.009	14.627	
185.00	-37.558	24.430	
186.00	-37.230	27.508	
187.00	-37.070	36.509	
188.00	-37.085	30.556	
189.00	-37.301	30.799	
190.00	-37.860	26.088	
191.00	-38.111	24.636	
192.00	-38.584	37.382	
193.00	-39.285	28.297	
194.00	-39.749	39.472	
195.00	-40.254	35.280	
196.00	-40.722	34.048	
197.00	-41.123	29.122	
198.00	-41.426	24.857	
199.00	-41.160	22.190	
200.00	-40.900	11.960	
201.00	-40.217	16.292	
202.00	-39.589	9.455	
203.00	-38.924	8.235	
204.00	-38.494	4.475	
205.00	-37.882	7.036	
206.00	-37.515	5.319	
207.00	-37.303	7.213	
208.00	-37.400	7.115	
209.00	-37.507	9.010	
210.00	-38.066	4.277	
211.00	-38.818	4.377	
212.00	-39.916	3.406	
213.00	-41.306	2.080	
214.00	-43.335	-1.942	
215.00	-46.087	-3.314	
216.00	-48.960	-26.131	
217.00	-51.010	-61.159	
218.00	-49.577	-91.724	
219.00	-46.316	-112.272	
220.00	-44.188	-114.095	
221.00	-42.445	-121.794	
222.00	-41.418	-115.931	
223.00	-40.584	-120.381	
224.00	-40.039	-117.795	
225.00	-39.742	-117.136	
226.00	-39.836	-118.056	
227.00	-39.978	-109.297	
228.00	-40.335	-102.849	
229.00	-40.732	-101.903	
230.00	-41.692	-89.399	
231.00	-42.500	-85.803	
232.00	-43.596	-74.656	
233.00	-44.935	-72.544	
234.00	-46.779	-64.590	
235.00	-49.085	-40.649	
236.00	-52.796	-41.352	
237.00	-58.533	7.838	
238.00	-58.033	82.087	
239.00	-51.752	114.715	
240.00	-47.646	121.802	
241.00	-44.940	138.265	
242.00	-42.668	136.996	
243.00	-41.126	150.933	
244.00	-39.901	148.506	
245.00	-38.886	146.843	
246.00	-38.132	147.625	
247.00	-37.663	148.380	
248.00	-37.547	150.370	
249.00	-37.524	155.214	
250.00	-37.770	152.157	
251.00	-38.408	156.288	
252.00	-39.186	154.245	
253.00	-40.276	150.608	
254.00	-42.255	160.861	
255.00	-44.679	155.827	
256.00	-48.816	157.917	
257.00	-57.518	173.194	
258.00	-58.157	-49.526	
259.00	-49.021	-41.360	
260.00	-44.554	-31.230	
261.00	-41.786	-32.563	
262.00	-39.962	-23.034	
263.00	-38.771	-27.971	
264.00	-37.881	-21.367	
265.00	-37.296	-30.479	
266.00	-37.061	-27.044	
267.00	-37.043	-30.403	
268.00	-37.274	-27.295	
269.00	-37.777	-28.325	
270.00	-38.665	-28.269	
271.00	-39.782	-26.308	
272.00	-41.358	-24.995	
273.00	-42.990	-16.417	
274.00	-45.520	-8.209	
275.00	-48.051	7.028	
276.00	-48.953	41.532	
277.00	-47.308	61.509	
278.00	-44.843	79.094	
279.00	-42.541	81.428	
280.00	-40.572	85.437	
281.00	-39.056	86.523	
282.00	-37.886	76.871	
283.00	-36.750	84.304	
284.00	-35.776	78.156	
285.00	-34.955	84.477	
286.00	-34.331	77.884	
287.00	-33.806	82.015	
288.00	-33.459	79.395	
289.00	-33.273	85.937	
290.00	-33.181	81.379	
291.00	-33.236	87.476	
292.00	-33.412	86.661	
293.00	-33.693	97.711	
294.00	-33.974	95.963	
295.00	-34.434	103.603	
296.00	-34.795	116.730	
297.00	-35.164	115.019	
298.00	-35.403	133.022	
299.00	-35.599	132.804	
300.00	-35.601	151.517	
301.00	-35.560	148.398	
302.00	-35.545	167.360	
303.00	-35.524	159.841	
304.00	-35.714	175.171	
305.00	-36.085	166.992	
306.00	-36.653	-179.446	
307.00	-37.404	165.998	
308.00	-38.309	175.038	
309.00	-39.456	160.976	
310.00	-40.526	156.340	
311.00	-41.136	137.385	
312.00	-41.059	129.428	
313.00	-40.086	104.608	
314.00	-38.872	101.102	
315.00	-37.660	87.666	
316.00	-36.704	93.157	
317.00	-35.934	83.633	
318.00	-35.375	90.119	
319.00	-35.104	86.898	
320.00	-35.032	96.673	
321.00	-35.189	95.873	
322.00	-35.549	108.550	
323.00	-36.112	109.588	
324.00	-36.831	120.397	
325.00	-37.726	126.042	
326.00	-38.836	140.006	
327.00	-39.731	144.982	
328.00	-40.733	161.981	
329.00	-41.386	174.427	
330.00	-41.845	-167.750	
331.00	-42.458	-152.647	
332.00	-42.881	-146.117	
333.00	-43.623	-121.769	
334.00	-44.653	-118.252	
335.00	-46.125	-87.762	
336.00	-47.702	-71.229	
337.00	-47.651	-26.135	
338.00	-46.063	-6.761	
339.00	-43.688	19.834	
340.00	-41.198	33.874	
341.00	-39.464	42.882	
342.00	-37.876	51.093	
343.00	-36.701	57.242	
344.00	-35.766	58.247	
345.00	-35.184	61.872	
346.00	-34.764	64.649	
347.00	-34.658	69.750	
348.00	-34.837	65.967	
349.00	-35.237	73.623	
350.00	-36.136	55.741	
351.00	-37.165	63.622	
352.00	-38.859	53.522	
353.00	-40.951	64.384	
354.00	-44.574	53.250	
355.00	-50.429	52.492	
356.00	-57.986	-39.039	
357.00	-47.309	-121.470	
358.00	-43.080	-107.493	
359.00	-40.195	-108.642	
Frequency	2550.00	MHz	
Channel	test		
Scan Axis name	Azimuth  [deg]		
Scan Axis	Amplitude	Phase	
			
0.00	-43.045	105.029	
1.00	-40.112	102.455	
2.00	-38.212	90.520	
3.00	-36.568	111.629	
4.00	-35.743	94.570	
5.00	-35.045	101.767	
6.00	-34.843	77.869	
7.00	-34.702	79.804	
8.00	-35.045	64.088	
9.00	-35.400	67.442	
10.00	-36.152	58.916	
11.00	-37.245	58.850	
12.00	-38.679	44.205	
13.00	-40.747	50.049	
14.00	-43.126	26.376	
15.00	-46.315	0.537	
16.00	-47.534	-34.892	
17.00	-46.047	-79.935	
18.00	-43.542	-99.379	
19.00	-41.604	-121.825	
20.00	-39.741	-118.147	
21.00	-38.607	-119.801	
22.00	-37.845	-134.521	
23.00	-37.179	-136.142	
24.00	-37.082	-146.411	
25.00	-36.928	-143.623	
26.00	-37.373	-167.352	
27.00	-37.526	-150.916	
28.00	-38.142	-172.033	
29.00	-38.533	-165.554	
30.00	-39.343	176.700	
31.00	-40.007	172.920	
32.00	-40.668	163.304	
33.00	-41.413	140.581	
34.00	-41.646	146.311	
35.00	-43.045	109.573	
36.00	-43.998	111.163	
37.00	-46.034	88.968	
38.00	-47.916	94.177	
39.00	-50.750	53.215	
40.00	-51.734	-7.617	
41.00	-49.188	-25.754	
42.00	-45.418	-52.700	
43.00	-42.749	-51.902	
44.00	-40.309	-70.207	
45.00	-38.564	-74.192	
46.00	-37.402	-75.830	
47.00	-36.390	-82.863	
48.00	-35.636	-97.410	
49.00	-35.290	-89.031	
50.00	-35.011	-103.759	
51.00	-35.015	-106.427	
52.00	-35.393	-107.668	
53.00	-35.956	-102.250	
54.00	-36.761	-109.128	
55.00	-37.915	-92.128	
56.00	-39.298	-85.025	
57.00	-40.661	-71.218	
58.00	-41.925	-46.382	
59.00	-41.616	-30.899	
60.00	-40.827	-17.561	
61.00	-39.815	-4.841	
62.00	-38.852	-6.545	
63.00	-38.309	-0.274	
64.00	-37.876	-3.288	
65.00	-37.961	8.269	
66.00	-37.809	-19.701	
67.00	-38.697	-2.140	
68.00	-39.404	-28.396	
69.00	-40.639	-19.685	
70.00	-41.473	-48.947	
71.00	-41.773	-60.839	
72.00	-41.216	-83.500	
73.00	-39.883	-97.205	
74.00	-38.392	-104.874	
75.00	-36.985	-121.214	
76.00	-35.928	-119.239	
77.00	-35.044	-126.588	
78.00	-34.326	-132.820	
79.00	-33.923	-129.003	
80.00	-33.785	-131.437	
81.00	-33.886	-129.758	
82.00	-34.102	-138.894	
83.00	-34.556	-125.254	
84.00	-35.035	-132.949	
85.00	-36.031	-118.012	
86.00	-36.951	-124.613	
87.00	-38.290	-113.957	
88.00	-39.695	-112.961	
89.00	-41.464	-101.350	
90.00	-43.517	-95.929	
91.00	-45.503	-85.610	
92.00	-47.780	-49.939	
93.00	-49.242	-30.216	
94.00	-49.666	12.146	
95.00	-48.679	2.453	
96.00	-47.696	31.287	
97.00	-47.098	34.725	
98.00	-46.527	56.143	
99.00	-46.289	62.288	
100.00	-45.327	77.004	
101.00	-44.930	96.161	
102.00	-44.486	94.350	
103.00	-43.833	107.050	
104.00	-42.865	125.246	
105.00	-42.426	135.927	
106.00	-41.579	136.527	
107.00	-40.963	153.920	
108.00	-40.495	162.099	
109.00	-40.257	168.742	
110.00	-40.065	169.484	
111.00	-40.402	176.315	
112.00	-40.594	179.248	
113.00	-41.101	-175.984	
114.00	-41.804	-174.023	
115.00	-42.930	-170.943	
116.00	-45.210	-163.482	
117.00	-49.195	-179.382	
118.00	-53.253	-160.002	
119.00	-65.059	-59.827	
120.00	-58.112	-4.161	
121.00	-49.170	-20.618	
122.00	-46.180	-14.804	
123.00	-44.560	-7.764	
124.00	-41.434	-27.153	
125.00	-40.613	-23.915	
126.00	-39.649	-37.704	
127.00	-39.265	-35.143	
128.00	-38.747	-45.418	
129.00	-38.769	-40.282	
130.00	-38.959	-50.425	
131.00	-39.321	-35.330	
132.00	-39.791	-44.813	
133.00	-40.601	-39.940	
134.00	-41.820	-57.821	
135.00	-43.130	-57.043	
136.00	-45.559	-50.635	
137.00	-49.074	-52.969	
138.00	-54.864	-81.013	
139.00	-74.163	-60.147	
140.00	-54.244	82.916	
141.00	-48.380	92.847	
142.00	-45.819	97.281	
143.00	-42.792	72.363	
144.00	-42.529	94.420	
145.00	-40.513	68.532	
146.00	-40.116	88.809	
147.00	-39.664	56.007	
148.00	-39.907	82.710	
149.00	-40.169	66.224	
150.00	-41.090	84.279	
151.00	-42.611	83.584	
152.00	-44.243	63.023	
153.00	-47.336	67.468	
154.00	-50.472	80.187	
155.00	-58.238	88.952	
156.00	-58.881	-155.541	
157.00	-50.618	-147.275	
158.00	-46.306	-124.219	
159.00	-44.196	-143.063	
160.00	-42.562	-117.840	
161.00	-41.532	-133.868	
162.00	-41.047	-116.051	
163.00	-40.719	-130.323	
164.00	-40.581	-122.038	
165.00	-40.799	-132.498	
166.00	-41.545	-139.260	
167.00	-42.599	-145.158	
168.00	-43.632	-158.382	
169.00	-44.620	-144.494	
170.00	-45.848	-162.711	
171.00	-46.581	-145.515	
172.00	-48.385	-163.970	
173.00	-48.014	-151.979	
174.00	-49.572	-165.175	
175.00	-48.312	-142.027	
176.00	-48.884	-149.896	
177.00	-47.354	-127.362	
178.00	-46.631	-138.023	
179.00	-45.266	-131.709	
180.00	-43.876	-128.489	
181.00	-42.875	-124.483	
182.00	-41.667	-126.252	
183.00	-41.142	-138.731	
184.00	-40.436	-137.823	
185.00	-40.091	-126.550	
186.00	-39.731	-124.429	
187.00	-39.620	-115.008	
188.00	-39.789	-121.490	
189.00	-40.030	-120.837	
190.00	-40.657	-125.710	
191.00	-41.089	-127.551	
192.00	-41.612	-114.321	
193.00	-42.248	-124.584	
194.00	-42.854	-114.871	
195.00	-43.339	-121.919	
196.00	-44.195	-126.878	
197.00	-44.264	-134.773	
198.00	-44.071	-143.321	
199.00	-43.291	-146.806	
200.00	-42.413	-157.461	
201.00	-41.375	-152.625	
202.00	-40.552	-158.288	
203.00	-39.836	-158.688	
204.00	-39.225	-160.572	
205.00	-38.811	-156.706	
206.00	-38.563	-158.782	
207.00	-38.549	-155.840	
208.00	-38.787	-155.390	
209.00	-39.170	-151.513	
210.00	-40.055	-156.553	
211.00	-41.007	-155.120	
212.00	-42.411	-156.002	
213.00	-44.134	-156.451	
214.00	-47.005	-164.474	
215.00	-50.708	-169.676	
216.00	-54.471	162.858	
217.00	-53.787	119.850	
218.00	-50.534	93.406	
219.00	-47.732	85.334	
220.00	-45.479	89.846	
221.00	-44.197	85.113	
222.00	-43.060	94.095	
223.00	-42.500	93.869	
224.00	-42.011	98.423	
225.00	-41.766	103.697	
226.00	-41.603	104.942	
227.00	-41.253	117.405	
228.00	-41.237	125.957	
229.00	-41.254	127.186	
230.00	-41.268	140.218	
231.00	-41.901	143.075	
232.00	-42.461	152.040	
233.00	-43.891	152.259	
234.00	-45.317	153.799	
235.00	-47.540	170.143	
236.00	-51.447	160.523	
237.00	-60.694	154.649	
238.00	-58.830	5.281	
239.00	-49.892	9.926	
240.00	-45.581	0.327	
241.00	-42.655	14.149	
242.00	-40.688	6.482	
243.00	-39.198	20.361	
244.00	-38.154	13.312	
245.00	-37.383	10.912	
246.00	-36.844	9.430	
247.00	-36.586	9.470	
248.00	-36.654	8.664	
249.00	-36.956	13.107	
250.00	-37.624	7.515	
251.00	-38.513	10.081	
252.00	-39.773	5.957	
253.00	-41.598	-2.381	
254.00	-44.027	2.511	
255.00	-47.945	-16.803	
256.00	-52.970	-50.955	
257.00	-51.946	-114.947	
258.00	-47.187	-141.236	
259.00	-44.290	-156.103	
260.00	-41.598	-154.077	
261.00	-40.071	-161.658	
262.00	-38.898	-156.215	
263.00	-38.144	-163.934	
264.00	-37.697	-159.273	
265.00	-37.660	-170.343	
266.00	-37.778	-168.499	
267.00	-38.319	-172.945	
268.00	-38.909	-172.407	
269.00	-39.992	-175.185	
270.00	-41.520	-177.089	
271.00	-43.474	-179.136	
272.00	-46.746	176.026	
273.00	-51.246	179.427	
274.00	-62.439	178.168	
275.00	-58.098	-7.893	
276.00	-50.735	-11.885	
277.00	-46.851	-15.979	
278.00	-44.929	-16.888	
279.00	-43.377	-25.709	
280.00	-42.231	-31.424	
281.00	-41.576	-36.700	
282.00	-40.764	-51.856	
283.00	-40.386	-51.178	
284.00	-39.566	-63.685	
285.00	-38.970	-63.252	
286.00	-38.168	-75.258	
287.00	-37.555	-74.316	
288.00	-37.062	-80.829	
289.00	-36.663	-76.843	
290.00	-36.504	-83.972	
291.00	-36.308	-79.122	
292.00	-36.373	-81.129	
293.00	-36.666	-70.544	
294.00	-37.037	-72.267	
295.00	-37.590	-63.422	
296.00	-37.992	-49.354	
297.00	-38.364	-47.864	
298.00	-38.775	-28.170	
299.00	-38.592	-23.480	
300.00	-38.431	-2.249	
301.00	-37.964	-2.806	
302.00	-37.767	18.182	
303.00	-37.343	12.163	
304.00	-37.446	28.312	
305.00	-37.528	21.335	
306.00	-38.081	37.156	
307.00	-38.798	24.941	
308.00	-40.149	38.392	
309.00	-41.817	27.190	
310.00	-44.244	27.418	
311.00	-47.829	6.789	
312.00	-50.407	-25.170	
313.00	-48.001	-73.911	
314.00	-44.535	-87.065	
315.00	-42.017	-100.771	
316.00	-40.242	-95.478	
317.00	-38.891	-104.600	
318.00	-38.169	-97.626	
319.00	-37.861	-101.154	
320.00	-37.958	-90.721	
321.00	-38.281	-91.547	
322.00	-39.082	-78.743	
323.00	-40.129	-76.866	
324.00	-41.982	-64.003	
325.00	-43.890	-52.598	
326.00	-45.836	-26.491	
327.00	-46.079	-2.870	
328.00	-44.586	26.598	
329.00	-42.850	40.519	
330.00	-41.260	56.287	
331.00	-40.181	65.284	
332.00	-39.575	61.275	
333.00	-39.318	79.911	
334.00	-39.573	73.105	
335.00	-40.223	88.416	
336.00	-41.246	87.003	
337.00	-43.235	103.437	
338.00	-46.525	104.064	
339.00	-51.110	142.053	
340.00	-51.736	-153.214	
341.00	-46.268	-121.813	
342.00	-42.680	-107.914	
343.00	-39.728	-100.836	
344.00	-37.779	-100.424	
345.00	-36.371	-97.902	
346.00	-35.395	-96.167	
347.00	-34.777	-92.346	
348.00	-34.302	-97.888	
349.00	-34.237	-91.089	
350.00	-34.388	-112.000	
351.00	-34.835	-103.436	
352.00	-35.469	-116.284	
353.00	-36.756	-105.554	
354.00	-38.215	-116.088	
355.00	-40.497	-110.090	
356.00	-43.662	-121.152	
357.00	-48.119	-159.177	
358.00	-50.921	153.111	
359.00	-47.001	114.342	
Frequency	2575.00	MHz	
Channel	test		
Scan Axis name	Azimuth  [deg]		
Scan Axis	Amplitude	Phase	
			
0.00	-41.927	-27.331	
1.00	-40.909	-37.966	
2.00	-40.115	-55.761	
3.00	-39.277	-41.416	
4.00	-38.567	-63.682	
5.00	-38.164	-63.490	
6.00	-37.695	-90.461	
7.00	-37.409	-94.843	
8.00	-37.268	-114.379	
9.00	-37.412	-114.252	
10.00	-37.487	-128.666	
11.00	-37.834	-132.080	
12.00	-38.059	-151.293	
13.00	-38.551	-147.182	
14.00	-38.851	-170.453	
15.00	-39.117	175.479	
16.00	-39.329	166.367	
17.00	-39.623	144.769	
18.00	-39.900	136.482	
19.00	-40.142	115.412	
20.00	-40.346	114.898	
21.00	-40.494	107.138	
22.00	-41.005	85.327	
23.00	-41.084	77.616	
24.00	-41.313	57.416	
25.00	-41.502	49.220	
26.00	-41.658	16.471	
27.00	-40.901	24.770	
28.00	-40.474	-2.956	
29.00	-39.727	2.325	
30.00	-39.027	-16.892	
31.00	-38.288	-17.541	
32.00	-37.806	-24.045	
33.00	-37.663	-40.746	
34.00	-37.590	-29.069	
35.00	-37.932	-59.474	
36.00	-38.519	-48.269	
37.00	-39.560	-58.158	
38.00	-40.765	-40.675	
39.00	-43.033	-47.855	
40.00	-46.169	-50.225	
41.00	-49.737	-5.229	
42.00	-49.613	40.570	
43.00	-44.762	79.259	
44.00	-41.592	79.108	
45.00	-39.155	83.192	
46.00	-37.280	87.302	
47.00	-35.984	83.634	
48.00	-35.134	72.636	
49.00	-34.444	82.706	
50.00	-34.161	69.530	
51.00	-34.012	67.904	
52.00	-34.232	65.974	
53.00	-34.518	70.787	
54.00	-35.071	62.432	
55.00	-35.821	77.080	
56.00	-36.929	81.047	
57.00	-37.970	89.507	
58.00	-39.432	102.616	
59.00	-40.600	112.819	
60.00	-41.386	125.017	
61.00	-41.742	141.022	
62.00	-41.469	144.643	
63.00	-41.080	156.049	
64.00	-40.641	155.177	
65.00	-40.547	166.891	
66.00	-40.530	140.813	
67.00	-40.799	154.657	
68.00	-40.936	129.444	
69.00	-40.995	132.809	
70.00	-41.045	105.660	
71.00	-39.988	97.711	
72.00	-38.945	82.180	
73.00	-37.674	74.416	
74.00	-36.488	71.655	
75.00	-35.487	57.000	
76.00	-34.682	59.642	
77.00	-34.158	52.889	
78.00	-33.670	45.423	
79.00	-33.374	48.583	
80.00	-33.437	45.359	
81.00	-33.707	45.024	
82.00	-34.199	35.005	
83.00	-34.740	46.105	
84.00	-35.654	36.521	
85.00	-36.802	47.806	
86.00	-38.533	36.944	
87.00	-40.705	40.858	
88.00	-43.891	31.455	
89.00	-48.532	26.965	
90.00	-55.828	-17.182	
91.00	-52.709	-100.027	
92.00	-47.369	-103.426	
93.00	-44.014	-113.596	
94.00	-42.066	-102.642	
95.00	-40.332	-128.974	
96.00	-39.992	-119.342	
97.00	-39.200	-124.982	
98.00	-39.237	-120.750	
99.00	-39.576	-122.929	
100.00	-40.053	-122.110	
101.00	-41.039	-113.283	
102.00	-42.324	-121.604	
103.00	-44.371	-113.882	
104.00	-47.320	-92.031	
105.00	-50.921	-66.949	
106.00	-51.073	-35.959	
107.00	-47.810	8.111	
108.00	-45.404	27.695	
109.00	-43.019	37.004	
110.00	-41.745	37.511	
111.00	-40.596	44.319	
112.00	-39.866	47.424	
113.00	-39.704	51.376	
114.00	-39.798	51.906	
115.00	-40.180	54.299	
116.00	-41.003	64.476	
117.00	-43.052	37.822	
118.00	-44.531	62.669	
119.00	-48.537	34.425	
120.00	-50.312	89.740	
121.00	-54.412	137.557	
122.00	-50.501	165.059	
123.00	-46.350	-165.595	
124.00	-43.744	-178.171	
125.00	-41.957	-177.463	
126.00	-40.500	172.982	
127.00	-39.973	175.102	
128.00	-39.009	165.931	
129.00	-39.083	172.421	
130.00	-39.115	163.385	
131.00	-39.403	178.413	
132.00	-40.123	167.957	
133.00	-41.381	171.481	
134.00	-42.844	153.703	
135.00	-44.945	152.054	
136.00	-47.703	152.551	
137.00	-52.312	138.710	
138.00	-62.009	60.537	
139.00	-54.752	-27.002	
140.00	-48.898	-32.530	
141.00	-44.879	-28.647	
142.00	-43.594	-27.071	
143.00	-41.511	-53.631	
144.00	-41.325	-40.642	
145.00	-39.962	-61.079	
146.00	-39.757	-42.715	
147.00	-39.332	-74.296	
148.00	-39.888	-50.936	
149.00	-40.258	-63.964	
150.00	-41.727	-48.224	
151.00	-43.033	-44.181	
152.00	-45.025	-64.272	
153.00	-47.381	-45.678	
154.00	-51.370	-23.595	
155.00	-54.855	22.575	
156.00	-49.403	63.792	
157.00	-46.369	61.168	
158.00	-43.455	84.987	
159.00	-42.233	66.089	
160.00	-40.375	92.271	
161.00	-40.082	77.239	
162.00	-39.032	96.662	
163.00	-39.305	84.326	
164.00	-39.055	93.619	
165.00	-39.807	84.879	
166.00	-40.184	78.278	
167.00	-41.001	73.602	
168.00	-42.283	63.300	
169.00	-42.930	79.565	
170.00	-44.569	63.660	
171.00	-45.272	85.845	
172.00	-47.241	72.248	
173.00	-47.444	82.450	
174.00	-49.305	71.319	
175.00	-48.635	85.658	
176.00	-48.890	78.057	
177.00	-47.743	89.574	
178.00	-47.136	82.549	
179.00	-45.134	84.778	
180.00	-43.585	86.183	
181.00	-42.535	87.332	
182.00	-41.122	86.525	
183.00	-40.565	72.916	
184.00	-39.662	73.005	
185.00	-39.110	84.859	
186.00	-38.748	85.971	
187.00	-38.308	97.219	
188.00	-38.283	88.565	
189.00	-38.414	90.678	
190.00	-38.766	85.130	
191.00	-39.151	85.004	
192.00	-39.393	97.347	
193.00	-40.247	89.814	
194.00	-40.720	100.268	
195.00	-41.587	95.904	
196.00	-42.497	93.130	
197.00	-43.459	87.371	
198.00	-43.812	78.010	
199.00	-43.699	71.367	
200.00	-43.615	55.912	
201.00	-42.770	59.736	
202.00	-41.831	50.109	
203.00	-41.119	47.273	
204.00	-40.313	44.119	
205.00	-39.537	48.570	
206.00	-39.155	47.558	
207.00	-38.967	50.048	
208.00	-38.976	50.693	
209.00	-39.081	56.156	
210.00	-39.598	52.609	
211.00	-40.237	57.068	
212.00	-41.294	58.133	
213.00	-42.192	61.631	
214.00	-44.086	62.434	
215.00	-46.303	70.565	
216.00	-49.863	65.095	
217.00	-56.347	58.792	
218.00	-60.488	-15.903	
219.00	-53.905	-63.128	
220.00	-49.083	-63.131	
221.00	-46.033	-71.506	
222.00	-44.008	-62.160	
223.00	-42.528	-63.656	
224.00	-41.351	-60.851	
225.00	-40.610	-58.085	
226.00	-40.078	-59.828	
227.00	-39.503	-50.095	
228.00	-39.656	-47.344	
229.00	-39.543	-48.248	
230.00	-39.602	-36.576	
231.00	-40.441	-37.567	
232.00	-41.385	-29.999	
233.00	-42.832	-34.173	
234.00	-44.961	-41.929	
235.00	-47.682	-31.823	
236.00	-51.357	-68.396	
237.00	-52.634	-107.067	
238.00	-48.004	-146.754	
239.00	-44.553	-155.099	
240.00	-41.668	-164.804	
241.00	-39.701	-154.843	
242.00	-38.117	-163.840	
243.00	-37.125	-152.285	
244.00	-36.275	-159.700	
245.00	-35.745	-162.620	
246.00	-35.424	-164.797	
247.00	-35.344	-164.743	
248.00	-35.535	-165.850	
249.00	-35.914	-161.624	
250.00	-36.721	-167.989	
251.00	-37.829	-164.787	
252.00	-39.207	-168.903	
253.00	-41.319	-177.799	
254.00	-44.413	-176.756	
255.00	-49.091	159.090	
256.00	-51.853	108.574	
257.00	-48.340	59.103	
258.00	-43.982	40.510	
259.00	-41.132	31.786	
260.00	-39.052	34.906	
261.00	-37.818	29.309	
262.00	-36.775	36.299	
263.00	-36.268	29.179	
264.00	-35.923	35.592	
265.00	-36.092	24.753	
266.00	-36.375	27.953	
267.00	-36.959	24.714	
268.00	-37.752	27.074	
269.00	-39.178	26.594	
270.00	-41.015	26.643	
271.00	-43.717	28.907	
272.00	-47.369	35.132	
273.00	-52.888	65.946	
274.00	-53.677	134.646	
275.00	-47.731	163.728	
276.00	-44.410	174.567	
277.00	-42.229	174.802	
278.00	-40.630	176.414	
279.00	-39.525	168.268	
280.00	-38.772	169.785	
281.00	-38.444	166.810	
282.00	-38.109	155.035	
283.00	-38.103	158.310	
284.00	-38.008	148.098	
285.00	-38.048	150.082	
286.00	-38.063	137.612	
287.00	-38.021	138.104	
288.00	-37.910	129.642	
289.00	-37.973	132.847	
290.00	-38.001	124.205	
291.00	-38.093	128.545	
292.00	-38.362	126.543	
293.00	-38.655	138.321	
294.00	-38.919	136.906	
295.00	-39.382	147.455	
296.00	-39.592	163.605	
297.00	-39.387	166.473	
298.00	-38.991	-174.665	
299.00	-38.202	-171.807	
300.00	-37.636	-154.921	
301.00	-36.812	-156.902	
302.00	-36.393	-140.597	
303.00	-35.945	-147.292	
304.00	-35.913	-134.015	
305.00	-35.807	-141.118	
306.00	-36.302	-127.690	
307.00	-36.656	-139.986	
308.00	-37.705	-129.023	
309.00	-38.729	-137.364	
310.00	-40.291	-134.207	
311.00	-42.133	-144.613	
312.00	-44.597	-148.765	
313.00	-47.286	-177.582	
314.00	-47.831	158.482	
315.00	-46.676	126.839	
316.00	-44.902	122.016	
317.00	-43.530	107.564	
318.00	-42.622	112.055	
319.00	-42.236	107.976	
320.00	-42.252	118.968	
321.00	-42.499	121.254	
322.00	-43.254	137.088	
323.00	-44.188	144.759	
324.00	-44.503	166.516	
325.00	-44.652	-177.656	
326.00	-43.932	-154.626	
327.00	-42.530	-147.910	
328.00	-41.189	-134.821	
329.00	-40.102	-130.088	
330.00	-39.322	-120.009	
331.00	-39.042	-114.928	
332.00	-38.862	-121.183	
333.00	-39.322	-106.469	
334.00	-40.022	-117.282	
335.00	-41.155	-105.421	
336.00	-43.159	-114.448	
337.00	-46.323	-111.087	
338.00	-50.641	-139.229	
339.00	-52.860	163.799	
340.00	-48.251	125.673	
341.00	-43.859	111.972	
342.00	-41.092	108.872	
343.00	-39.130	106.526	
344.00	-37.738	100.820	
345.00	-36.552	100.810	
346.00	-35.837	98.610	
347.00	-35.379	99.636	
348.00	-35.111	92.229	
349.00	-35.109	96.664	
350.00	-35.429	73.526	
351.00	-35.726	79.787	
352.00	-36.444	63.119	
353.00	-37.122	69.592	
354.00	-38.145	55.234	
355.00	-39.171	56.466	
356.00	-40.488	43.529	
357.00	-42.090	6.079	
358.00	-42.494	1.934	
359.00	-42.669	-14.168	
Frequency	2600.00	MHz	
Channel	test		
Scan Axis name	Azimuth  [deg]		
Scan Axis	Amplitude	Phase	
			
0.00	-40.336	142.702	
1.00	-39.446	141.166	
2.00	-38.759	129.913	
3.00	-38.611	146.447	
4.00	-38.153	128.654	
5.00	-38.298	129.836	
6.00	-38.163	105.142	
7.00	-38.594	100.686	
8.00	-38.915	81.242	
9.00	-39.691	80.977	
10.00	-40.208	63.581	
11.00	-41.049	57.036	
12.00	-41.701	31.965	
13.00	-41.949	30.432	
14.00	-41.770	-0.328	
15.00	-41.191	-19.842	
16.00	-40.444	-30.046	
17.00	-39.471	-51.771	
18.00	-38.678	-56.631	
19.00	-38.115	-74.699	
20.00	-37.649	-67.226	
21.00	-37.553	-68.304	
22.00	-37.689	-84.114	
23.00	-37.973	-83.160	
24.00	-38.819	-94.158	
25.00	-40.107	-91.674	
26.00	-41.706	-118.432	
27.00	-44.020	-109.566	
28.00	-46.475	-148.493	
29.00	-47.032	-163.818	
30.00	-45.150	154.035	
31.00	-42.375	144.783	
32.00	-40.151	133.976	
33.00	-38.559	118.052	
34.00	-37.533	127.701	
35.00	-36.616	99.316	
36.00	-36.373	109.416	
37.00	-36.241	100.339	
38.00	-36.642	114.489	
39.00	-37.271	104.268	
40.00	-38.426	92.891	
41.00	-40.435	112.402	
42.00	-43.263	112.953	
43.00	-47.696	141.167	
44.00	-52.757	-177.178	
45.00	-47.555	-120.738	
46.00	-42.680	-104.827	
47.00	-39.783	-104.339	
48.00	-37.981	-112.735	
49.00	-36.404	-101.641	
50.00	-35.668	-115.574	
51.00	-35.216	-116.251	
52.00	-35.043	-119.304	
53.00	-35.156	-115.253	
54.00	-35.651	-123.366	
55.00	-36.413	-111.395	
56.00	-37.610	-109.082	
57.00	-38.996	-105.133	
58.00	-41.153	-96.632	
59.00	-43.904	-90.313	
60.00	-47.311	-74.887	
61.00	-50.584	-41.016	
62.00	-49.270	-11.880	
63.00	-47.453	8.065	
64.00	-45.687	11.944	
65.00	-45.409	25.023	
66.00	-44.724	-1.812	
67.00	-46.147	13.378	
68.00	-47.094	-15.392	
69.00	-49.217	-25.965	
70.00	-48.830	-70.059	
71.00	-45.745	-91.938	
72.00	-42.961	-109.347	
73.00	-40.252	-115.268	
74.00	-38.410	-115.716	
75.00	-37.055	-128.085	
76.00	-35.933	-124.677	
77.00	-35.323	-129.768	
78.00	-34.821	-136.497	
79.00	-34.634	-131.682	
80.00	-34.760	-135.702	
81.00	-35.105	-135.163	
82.00	-35.822	-146.509	
83.00	-36.786	-134.327	
84.00	-38.234	-145.166	
85.00	-40.313	-133.277	
86.00	-43.406	-148.165	
87.00	-48.251	-148.769	
88.00	-56.378	156.655	
89.00	-51.161	77.175	
90.00	-45.090	55.724	
91.00	-41.999	49.818	
92.00	-39.938	60.109	
93.00	-38.540	54.035	
94.00	-37.692	63.306	
95.00	-36.948	41.289	
96.00	-36.730	49.010	
97.00	-36.819	42.642	
98.00	-37.313	43.551	
99.00	-38.018	38.952	
100.00	-39.233	35.426	
101.00	-40.869	38.382	
102.00	-43.119	21.841	
103.00	-46.497	14.082	
104.00	-50.739	-7.054	
105.00	-52.019	-69.913	
106.00	-47.561	-107.133	
107.00	-43.692	-108.103	
108.00	-41.157	-109.586	
109.00	-39.523	-113.744	
110.00	-38.426	-119.394	
111.00	-37.850	-117.683	
112.00	-37.408	-120.565	
113.00	-37.424	-119.513	
114.00	-37.805	-124.147	
115.00	-38.359	-125.068	
116.00	-39.121	-120.931	
117.00	-41.189	-155.982	
118.00	-42.910	-139.661	
119.00	-46.734	170.931	
120.00	-49.149	-167.541	
121.00	-51.708	126.843	
122.00	-48.261	77.938	
123.00	-45.272	77.253	
124.00	-42.816	42.172	
125.00	-40.823	38.006	
126.00	-39.502	22.014	
127.00	-38.825	20.861	
128.00	-38.223	8.528	
129.00	-38.526	11.222	
130.00	-38.438	-0.169	
131.00	-39.276	8.807	
132.00	-39.808	-4.607	
133.00	-41.290	-2.429	
134.00	-42.529	-26.459	
135.00	-44.852	-36.401	
136.00	-47.360	-52.441	
137.00	-47.960	-83.386	
138.00	-47.079	-144.554	
139.00	-44.929	-170.996	
140.00	-42.891	-177.942	
141.00	-41.397	-179.576	
142.00	-40.051	179.110	
143.00	-39.182	153.248	
144.00	-38.125	162.661	
145.00	-38.349	141.637	
146.00	-38.126	156.126	
147.00	-38.680	125.795	
148.00	-39.048	145.586	
149.00	-40.141	128.783	
150.00	-41.661	145.075	
151.00	-43.459	144.844	
152.00	-46.654	120.359	
153.00	-51.649	131.989	
154.00	-62.977	-125.416	
155.00	-51.751	-80.256	
156.00	-46.399	-62.197	
157.00	-42.971	-80.997	
158.00	-40.625	-62.264	
159.00	-39.289	-86.327	
160.00	-38.133	-61.566	
161.00	-37.793	-78.579	
162.00	-37.223	-60.140	
163.00	-37.500	-73.377	
164.00	-37.648	-63.556	
165.00	-38.422	-72.940	
166.00	-39.444	-78.666	
167.00	-40.726	-83.176	
168.00	-42.476	-92.937	
169.00	-44.371	-71.334	
170.00	-47.178	-85.099	
171.00	-49.767	-50.943	
172.00	-52.551	-50.380	
173.00	-53.548	-16.819	
174.00	-52.987	-15.657	
175.00	-52.122	13.890	
176.00	-50.156	-9.566	
177.00	-48.977	0.200	
178.00	-47.572	-28.665	
179.00	-45.778	-35.248	
180.00	-43.621	-48.176	
181.00	-42.275	-53.379	
182.00	-40.591	-61.589	
183.00	-39.530	-77.742	
184.00	-38.374	-82.443	
185.00	-37.478	-73.694	
186.00	-36.945	-76.107	
187.00	-36.393	-67.450	
188.00	-36.255	-77.903	
189.00	-36.136	-78.681	
190.00	-36.543	-85.904	
191.00	-36.911	-88.679	
192.00	-37.180	-77.885	
193.00	-37.999	-88.155	
194.00	-38.425	-78.123	
195.00	-39.316	-83.354	
196.00	-40.179	-88.781	
197.00	-40.978	-93.182	
198.00	-41.718	-102.294	
199.00	-41.761	-106.387	
200.00	-41.803	-121.115	
201.00	-41.029	-116.283	
202.00	-40.704	-126.626	
203.00	-39.967	-129.402	
204.00	-39.396	-132.770	
205.00	-38.832	-129.639	
206.00	-38.399	-129.921	
207.00	-38.029	-127.376	
208.00	-37.958	-127.329	
209.00	-37.932	-122.969	
210.00	-38.249	-128.308	
211.00	-38.470	-124.388	
212.00	-39.018	-126.496	
213.00	-39.634	-123.519	
214.00	-40.549	-126.246	
215.00	-41.524	-119.673	
216.00	-42.759	-131.760	
217.00	-44.102	-137.836	
218.00	-44.930	-151.847	
219.00	-45.317	-169.060	
220.00	-44.583	-179.129	
221.00	-43.426	162.814	
222.00	-42.027	159.853	
223.00	-40.603	149.973	
224.00	-39.616	146.293	
225.00	-38.685	143.735	
226.00	-38.089	136.396	
227.00	-37.483	142.261	
228.00	-37.271	141.601	
229.00	-37.199	136.749	
230.00	-37.319	142.991	
231.00	-37.705	137.828	
232.00	-38.219	140.008	
233.00	-38.953	132.615	
234.00	-39.917	124.221	
235.00	-40.917	133.175	
236.00	-42.050	105.298	
237.00	-42.750	102.999	
238.00	-42.626	72.512	
239.00	-41.765	62.397	
240.00	-40.373	41.212	
241.00	-39.107	46.686	
242.00	-37.819	30.210	
243.00	-36.889	37.928	
244.00	-36.046	26.086	
245.00	-35.401	19.574	
246.00	-35.009	14.529	
247.00	-34.785	12.893	
248.00	-34.761	8.255	
249.00	-34.894	11.001	
250.00	-35.251	1.560	
251.00	-35.865	2.604	
252.00	-36.708	-3.511	
253.00	-37.904	-13.819	
254.00	-39.465	-11.079	
255.00	-41.437	-30.472	
256.00	-43.687	-48.511	
257.00	-44.859	-78.025	
258.00	-44.027	-109.204	
259.00	-41.644	-132.032	
260.00	-39.640	-138.503	
261.00	-37.944	-150.259	
262.00	-36.659	-146.783	
263.00	-35.711	-157.224	
264.00	-35.203	-153.483	
265.00	-34.766	-166.410	
266.00	-34.711	-165.634	
267.00	-34.909	-170.953	
268.00	-35.371	-171.532	
269.00	-36.103	-175.239	
270.00	-37.237	-178.947	
271.00	-38.708	176.084	
272.00	-40.739	169.364	
273.00	-43.336	161.225	
274.00	-46.955	144.513	
275.00	-50.194	99.322	
276.00	-48.626	58.074	
277.00	-45.244	29.797	
278.00	-42.581	19.656	
279.00	-40.773	8.105	
280.00	-39.443	2.384	
281.00	-38.520	-2.563	
282.00	-37.786	-16.916	
283.00	-37.201	-15.120	
284.00	-36.790	-25.547	
285.00	-36.393	-22.650	
286.00	-36.225	-35.084	
287.00	-35.965	-33.316	
288.00	-35.834	-41.458	
289.00	-35.690	-36.862	
290.00	-35.760	-45.918	
291.00	-35.873	-40.221	
292.00	-36.077	-43.337	
293.00	-36.348	-31.601	
294.00	-36.761	-34.364	
295.00	-36.965	-24.395	
296.00	-37.201	-10.877	
297.00	-37.182	-9.012	
298.00	-36.955	8.256	
299.00	-36.425	10.699	
300.00	-35.876	26.494	
301.00	-35.315	23.988	
302.00	-34.974	39.996	
303.00	-34.630	32.545	
304.00	-34.548	44.781	
305.00	-34.528	36.459	
306.00	-34.932	48.493	
307.00	-35.258	34.105	
308.00	-36.094	42.673	
309.00	-36.882	31.140	
310.00	-38.004	28.535	
311.00	-39.001	13.624	
312.00	-39.719	8.795	
313.00	-39.711	-15.431	
314.00	-39.435	-23.806	
315.00	-38.695	-40.982	
316.00	-38.145	-37.874	
317.00	-37.458	-50.922	
318.00	-37.142	-46.607	
319.00	-37.068	-51.471	
320.00	-37.213	-43.326	
321.00	-37.649	-44.029	
322.00	-38.129	-31.259	
323.00	-39.063	-29.225	
324.00	-39.863	-17.356	
325.00	-40.739	-8.404	
326.00	-41.379	7.240	
327.00	-41.767	13.313	
328.00	-41.885	28.085	
329.00	-41.706	36.441	
330.00	-41.894	50.684	
331.00	-42.026	58.032	
332.00	-42.174	54.268	
333.00	-43.659	69.790	
334.00	-44.732	59.804	
335.00	-47.648	70.617	
336.00	-51.015	50.581	
337.00	-56.224	11.679	
338.00	-52.836	-43.185	
339.00	-47.659	-58.381	
340.00	-44.319	-63.246	
341.00	-41.978	-66.502	
342.00	-40.403	-66.247	
343.00	-39.403	-64.379	
344.00	-38.563	-69.281	
345.00	-37.993	-68.492	
346.00	-37.834	-69.760	
347.00	-37.752	-67.742	
348.00	-38.018	-75.336	
349.00	-38.492	-71.102	
350.00	-39.347	-96.982	
351.00	-40.249	-91.870	
352.00	-41.382	-113.185	
353.00	-42.568	-110.137	
354.00	-43.650	-132.080	
355.00	-44.462	-141.591	
356.00	-44.080	-162.718	
357.00	-43.285	155.772	
358.00	-42.209	157.985	
359.00	-41.108	151.043	
Frequency	2625.00	MHz	
Channel	test		
Scan Axis name	Azimuth  [deg]		
Scan Axis	Amplitude	Phase	
			
0.00	-44.978	-5.090	
1.00	-42.969	-10.722	
2.00	-41.453	-22.616	
3.00	-39.877	-6.977	
4.00	-39.287	-23.947	
5.00	-38.591	-21.151	
6.00	-38.472	-44.457	
7.00	-38.217	-45.779	
8.00	-38.636	-63.976	
9.00	-38.727	-57.910	
10.00	-39.422	-71.715	
11.00	-40.101	-67.654	
12.00	-41.418	-87.323	
13.00	-43.062	-77.208	
14.00	-45.962	-104.544	
15.00	-48.950	-132.520	
16.00	-51.002	-171.534	
17.00	-48.158	136.957	
18.00	-44.913	121.696	
19.00	-42.155	99.487	
20.00	-40.254	105.743	
21.00	-38.906	107.044	
22.00	-37.858	90.961	
23.00	-37.071	94.517	
24.00	-36.908	85.721	
25.00	-36.752	90.425	
26.00	-37.014	71.574	
27.00	-37.572	92.269	
28.00	-38.868	75.078	
29.00	-40.510	89.148	
30.00	-43.471	73.453	
31.00	-47.440	74.158	
32.00	-55.600	35.558	
33.00	-52.777	-67.122	
34.00	-46.508	-76.332	
35.00	-42.422	-106.997	
36.00	-40.229	-100.413	
37.00	-38.770	-109.161	
38.00	-38.029	-97.855	
39.00	-37.439	-110.146	
40.00	-37.414	-123.973	
41.00	-37.975	-111.532	
42.00	-38.684	-122.398	
43.00	-40.210	-117.526	
44.00	-41.638	-137.560	
45.00	-43.754	-154.608	
46.00	-45.338	-177.580	
47.00	-45.230	147.045	
48.00	-43.389	114.335	
49.00	-41.578	110.175	
50.00	-40.446	85.705	
51.00	-39.464	79.810	
52.00	-39.047	71.757	
53.00	-39.072	72.400	
54.00	-39.486	62.210	
55.00	-40.846	71.503	
56.00	-42.481	72.558	
57.00	-45.526	76.129	
58.00	-51.170	89.293	
59.00	-61.749	162.862	
60.00	-50.474	-132.845	
61.00	-45.121	-125.338	
62.00	-42.132	-131.796	
63.00	-40.204	-128.244	
64.00	-39.082	-133.305	
65.00	-38.388	-121.766	
66.00	-38.262	-151.330	
67.00	-38.642	-129.672	
68.00	-39.411	-151.402	
69.00	-40.932	-136.314	
70.00	-43.004	-157.349	
71.00	-46.538	-164.413	
72.00	-50.712	161.268	
73.00	-50.008	106.245	
74.00	-45.527	85.960	
75.00	-42.216	66.055	
76.00	-40.251	67.116	
77.00	-38.914	62.039	
78.00	-37.949	53.859	
79.00	-37.530	61.000	
80.00	-37.288	57.226	
81.00	-37.687	60.275	
82.00	-38.247	51.644	
83.00	-39.393	67.498	
84.00	-40.978	63.179	
85.00	-43.222	85.510	
86.00	-45.645	89.707	
87.00	-47.739	127.064	
88.00	-47.024	159.223	
89.00	-44.303	-174.931	
90.00	-41.936	-169.192	
91.00	-40.129	-164.162	
92.00	-38.922	-147.291	
93.00	-38.115	-148.271	
94.00	-37.844	-137.435	
95.00	-37.307	-157.302	
96.00	-37.308	-148.280	
97.00	-37.740	-152.806	
98.00	-38.556	-153.089	
99.00	-39.569	-155.427	
100.00	-41.420	-162.137	
101.00	-43.758	-161.492	
102.00	-46.336	175.002	
103.00	-49.646	149.552	
104.00	-48.869	110.791	
105.00	-45.819	85.575	
106.00	-42.937	67.283	
107.00	-40.801	72.064	
108.00	-39.162	73.338	
109.00	-38.056	70.789	
110.00	-37.160	65.314	
111.00	-36.785	67.880	
112.00	-36.513	66.289	
113.00	-36.776	68.127	
114.00	-37.095	61.551	
115.00	-37.972	61.620	
116.00	-38.515	64.689	
117.00	-40.006	30.286	
118.00	-41.560	45.217	
119.00	-44.582	-1.287	
120.00	-46.319	19.602	
121.00	-48.601	-15.825	
122.00	-47.670	-55.838	
123.00	-46.680	-70.621	
124.00	-43.758	-113.977	
125.00	-42.413	-118.211	
126.00	-41.362	-135.784	
127.00	-40.588	-139.609	
128.00	-40.416	-155.262	
129.00	-40.448	-155.084	
130.00	-40.670	-165.460	
131.00	-41.673	-157.563	
132.00	-42.321	-172.285	
133.00	-43.534	-177.685	
134.00	-44.761	153.832	
135.00	-45.977	141.140	
136.00	-46.981	121.258	
137.00	-46.526	102.950	
138.00	-46.505	58.864	
139.00	-45.018	37.742	
140.00	-43.779	27.162	
141.00	-42.554	22.336	
142.00	-41.843	22.444	
143.00	-41.097	-3.735	
144.00	-40.845	8.337	
145.00	-41.310	-21.405	
146.00	-41.321	-5.492	
147.00	-42.423	-40.975	
148.00	-42.779	-14.018	
149.00	-43.808	-29.874	
150.00	-46.669	-10.324	
151.00	-50.496	-12.409	
152.00	-59.581	-22.850	
153.00	-57.685	123.056	
154.00	-48.948	117.479	
155.00	-45.045	116.991	
156.00	-41.909	126.570	
157.00	-40.386	110.273	
158.00	-38.803	127.547	
159.00	-37.876	101.301	
160.00	-37.164	128.887	
161.00	-36.767	110.106	
162.00	-36.543	131.843	
163.00	-36.827	118.173	
164.00	-37.079	129.374	
165.00	-37.745	121.260	
166.00	-38.633	117.563	
167.00	-39.777	115.406	
168.00	-41.037	110.064	
169.00	-42.508	137.499	
170.00	-43.978	132.110	
171.00	-44.847	169.560	
172.00	-45.523	161.217	
173.00	-45.083	-173.699	
174.00	-45.105	171.784	
175.00	-45.037	-167.903	
176.00	-44.686	169.773	
177.00	-44.348	177.110	
178.00	-43.893	149.980	
179.00	-43.063	142.007	
180.00	-41.532	129.618	
181.00	-40.395	122.050	
182.00	-39.497	111.434	
183.00	-38.424	94.512	
184.00	-37.579	87.017	
185.00	-36.852	96.307	
186.00	-36.400	91.831	
187.00	-36.171	99.146	
188.00	-36.082	88.437	
189.00	-36.174	85.790	
190.00	-36.679	77.201	
191.00	-37.089	73.418	
192.00	-37.692	83.256	
193.00	-38.380	70.917	
194.00	-39.159	79.354	
195.00	-40.014	73.075	
196.00	-40.662	66.011	
197.00	-41.064	60.966	
198.00	-41.368	52.067	
199.00	-41.359	51.366	
200.00	-41.184	38.871	
201.00	-40.439	47.260	
202.00	-40.033	40.243	
203.00	-39.415	41.724	
204.00	-38.921	39.623	
205.00	-38.420	44.092	
206.00	-38.260	44.390	
207.00	-37.995	46.414	
208.00	-38.008	47.263	
209.00	-38.031	50.128	
210.00	-38.274	43.671	
211.00	-38.602	45.837	
212.00	-39.097	39.923	
213.00	-39.810	40.986	
214.00	-40.630	31.540	
215.00	-41.157	34.924	
216.00	-41.596	18.577	
217.00	-41.826	10.129	
218.00	-41.631	-1.757	
219.00	-41.106	-11.972	
220.00	-40.511	-13.783	
221.00	-39.855	-25.293	
222.00	-39.495	-25.212	
223.00	-39.088	-32.087	
224.00	-38.807	-36.272	
225.00	-38.669	-38.776	
226.00	-38.747	-47.700	
227.00	-38.923	-42.788	
228.00	-39.382	-45.837	
229.00	-39.862	-53.221	
230.00	-40.677	-49.229	
231.00	-41.273	-59.499	
232.00	-42.158	-61.958	
233.00	-42.450	-74.161	
234.00	-42.694	-86.955	
235.00	-42.970	-79.386	
236.00	-42.489	-105.335	
237.00	-42.261	-99.439	
238.00	-41.558	-118.821	
239.00	-41.146	-116.575	
240.00	-40.761	-130.176	
241.00	-40.575	-119.254	
242.00	-40.343	-133.247	
243.00	-40.423	-124.027	
244.00	-40.261	-136.511	
245.00	-40.398	-145.325	
246.00	-40.534	-154.551	
247.00	-40.721	-159.746	
248.00	-40.848	-169.758	
249.00	-41.104	-172.593	
250.00	-41.058	172.532	
251.00	-41.145	167.791	
252.00	-40.861	155.740	
253.00	-40.668	141.244	
254.00	-40.603	142.363	
255.00	-40.390	125.343	
256.00	-40.179	117.680	
257.00	-39.996	108.336	
258.00	-39.818	101.021	
259.00	-39.801	88.766	
260.00	-39.837	88.777	
261.00	-39.834	75.387	
262.00	-40.147	78.309	
263.00	-40.393	62.280	
264.00	-40.967	62.842	
265.00	-41.422	43.034	
266.00	-41.983	37.223	
267.00	-42.888	23.684	
268.00	-43.697	12.351	
269.00	-44.614	-4.932	
270.00	-44.992	-24.639	
271.00	-45.066	-45.261	
272.00	-44.016	-64.063	
273.00	-43.007	-76.961	
274.00	-41.968	-88.869	
275.00	-40.943	-102.837	
276.00	-40.153	-106.220	
277.00	-39.575	-117.074	
278.00	-39.316	-120.049	
279.00	-39.210	-130.724	
280.00	-39.371	-136.197	
281.00	-39.760	-142.671	
282.00	-40.139	-159.352	
283.00	-40.793	-162.575	
284.00	-41.241	-178.008	
285.00	-41.838	176.741	
286.00	-41.827	156.025	
287.00	-41.673	149.636	
288.00	-41.240	134.862	
289.00	-40.925	134.583	
290.00	-40.775	121.049	
291.00	-40.742	123.565	
292.00	-41.118	116.339	
293.00	-41.738	126.297	
294.00	-43.013	120.312	
295.00	-44.434	130.270	
296.00	-46.356	147.701	
297.00	-48.079	161.422	
298.00	-47.893	-163.699	
299.00	-46.335	-146.537	
300.00	-44.398	-124.440	
301.00	-42.842	-122.651	
302.00	-41.543	-105.558	
303.00	-40.668	-112.565	
304.00	-40.321	-100.906	
305.00	-40.577	-108.302	
306.00	-41.305	-94.331	
307.00	-42.486	-108.529	
308.00	-44.474	-96.190	
309.00	-47.965	-106.444	
310.00	-54.329	-113.917	
311.00	-59.982	140.866	
312.00	-50.634	111.946	
313.00	-45.341	97.744	
314.00	-42.615	102.439	
315.00	-40.597	95.537	
316.00	-39.508	106.039	
317.00	-38.803	97.770	
318.00	-38.555	105.931	
319.00	-38.544	103.583	
320.00	-38.950	113.250	
321.00	-39.678	113.976	
322.00	-40.897	127.503	
323.00	-42.590	129.905	
324.00	-44.903	142.779	
325.00	-47.274	158.173	
326.00	-50.040	-170.368	
327.00	-50.068	-139.847	
328.00	-47.830	-114.277	
329.00	-45.814	-99.633	
330.00	-44.216	-83.277	
331.00	-43.426	-75.141	
332.00	-42.711	-81.496	
333.00	-43.033	-62.110	
334.00	-43.304	-71.794	
335.00	-44.632	-53.609	
336.00	-46.437	-57.041	
337.00	-49.013	-38.176	
338.00	-54.478	-41.871	
339.00	-63.932	47.355	
340.00	-54.081	121.485	
341.00	-48.376	130.554	
342.00	-44.935	133.813	
343.00	-42.642	139.987	
344.00	-40.918	138.758	
345.00	-39.700	141.794	
346.00	-38.779	142.548	
347.00	-38.279	146.816	
348.00	-37.930	141.077	
349.00	-37.953	147.570	
350.00	-38.064	125.330	
351.00	-38.646	134.562	
352.00	-39.273	118.014	
353.00	-40.327	128.166	
354.00	-41.651	115.440	
355.00	-43.766	112.651	
356.00	-45.893	97.568	
357.00	-48.362	56.591	
358.00	-48.133	36.082	
359.00	-46.632	15.089	
Frequency	2650.00	MHz	
Channel	test		
Scan Axis name	Azimuth  [deg]		
Scan Axis	Amplitude	Phase	
			
0.00	-41.720	-158.572	
1.00	-41.948	-165.687	
2.00	-41.819	178.390	
3.00	-41.575	-174.568	
4.00	-41.152	161.702	
5.00	-40.583	154.776	
6.00	-39.868	127.484	
7.00	-39.012	119.572	
8.00	-38.462	100.682	
9.00	-37.745	104.497	
10.00	-37.396	89.895	
11.00	-37.218	94.065	
12.00	-37.292	77.449	
13.00	-37.583	89.636	
14.00	-38.151	71.153	
15.00	-39.001	64.091	
16.00	-40.413	62.439	
17.00	-42.186	44.073	
18.00	-44.733	37.351	
19.00	-48.193	6.494	
20.00	-50.578	-20.722	
21.00	-48.197	-58.334	
22.00	-44.922	-93.503	
23.00	-42.338	-97.820	
24.00	-40.453	-110.506	
25.00	-39.085	-109.119	
26.00	-37.912	-128.746	
27.00	-37.490	-109.487	
28.00	-37.219	-127.163	
29.00	-37.386	-115.073	
30.00	-37.699	-129.679	
31.00	-38.305	-125.454	
32.00	-39.261	-133.265	
33.00	-40.215	-148.987	
34.00	-41.964	-145.495	
35.00	-43.156	-179.171	
36.00	-45.723	176.666	
37.00	-47.267	153.905	
38.00	-49.549	138.036	
39.00	-50.029	99.465	
40.00	-50.080	62.181	
41.00	-48.299	46.331	
42.00	-46.581	19.778	
43.00	-44.209	14.430	
44.00	-42.652	-8.829	
45.00	-40.819	-19.181	
46.00	-39.382	-24.250	
47.00	-38.140	-36.168	
48.00	-37.288	-54.467	
49.00	-36.473	-46.560	
50.00	-36.096	-66.939	
51.00	-35.841	-68.167	
52.00	-35.912	-72.712	
53.00	-36.178	-68.999	
54.00	-36.762	-77.634	
55.00	-37.604	-61.530	
56.00	-38.625	-55.949	
57.00	-39.592	-44.488	
58.00	-40.808	-25.001	
59.00	-41.062	-9.958	
60.00	-40.851	5.308	
61.00	-39.953	21.832	
62.00	-38.955	22.021	
63.00	-37.944	30.058	
64.00	-37.296	29.733	
65.00	-36.868	40.950	
66.00	-36.864	16.870	
67.00	-37.042	34.051	
68.00	-37.702	14.303	
69.00	-38.419	23.228	
70.00	-39.471	1.512	
71.00	-40.498	-5.875	
72.00	-41.088	-23.796	
73.00	-40.970	-41.345	
74.00	-39.789	-52.798	
75.00	-38.623	-74.657	
76.00	-37.410	-76.609	
77.00	-36.522	-84.522	
78.00	-35.824	-95.804	
79.00	-35.404	-89.610	
80.00	-35.249	-96.178	
81.00	-35.356	-94.175	
82.00	-35.649	-104.898	
83.00	-36.399	-90.116	
84.00	-37.167	-99.224	
85.00	-38.395	-82.044	
86.00	-40.082	-91.619	
87.00	-42.057	-77.404	
88.00	-44.972	-76.101	
89.00	-48.795	-55.292	
90.00	-52.903	-27.396	
91.00	-52.576	23.057	
92.00	-48.518	63.855	
93.00	-45.874	76.196	
94.00	-44.083	91.093	
95.00	-43.239	79.589	
96.00	-42.539	88.690	
97.00	-42.482	91.458	
98.00	-42.456	95.678	
99.00	-43.131	100.496	
100.00	-43.668	106.445	
101.00	-45.124	124.832	
102.00	-46.460	125.664	
103.00	-48.044	149.667	
104.00	-48.320	-179.487	
105.00	-47.182	-149.020	
106.00	-45.512	-143.072	
107.00	-43.399	-118.164	
108.00	-42.354	-106.588	
109.00	-40.721	-100.986	
110.00	-40.026	-102.089	
111.00	-39.492	-94.788	
112.00	-39.385	-94.832	
113.00	-39.628	-89.806	
114.00	-40.262	-95.225	
115.00	-41.656	-96.823	
116.00	-43.508	-91.985	
117.00	-44.220	-136.701	
118.00	-47.457	-133.064	
119.00	-46.261	164.702	
120.00	-46.906	163.885	
121.00	-44.074	134.160	
122.00	-42.287	122.395	
123.00	-40.558	124.543	
124.00	-39.257	102.592	
125.00	-38.675	98.541	
126.00	-38.166	87.061	
127.00	-38.092	84.852	
128.00	-38.615	76.787	
129.00	-39.186	76.563	
130.00	-40.294	69.878	
131.00	-41.648	76.929	
132.00	-43.761	66.296	
133.00	-47.749	58.367	
134.00	-53.851	18.665	
135.00	-53.987	-45.749	
136.00	-49.810	-75.392	
137.00	-46.166	-81.459	
138.00	-43.259	-122.364	
139.00	-41.714	-128.531	
140.00	-40.759	-129.294	
141.00	-40.330	-125.953	
142.00	-40.054	-126.011	
143.00	-39.733	-148.308	
144.00	-40.822	-136.935	
145.00	-40.716	-161.555	
146.00	-42.030	-148.639	
147.00	-42.877	176.665	
148.00	-45.318	-162.721	
149.00	-47.748	-177.426	
150.00	-52.812	-179.089	
151.00	-62.852	153.772	
152.00	-58.817	18.320	
153.00	-51.525	4.221	
154.00	-47.802	2.483	
155.00	-45.253	-14.531	
156.00	-42.948	-8.315	
157.00	-41.988	-27.276	
158.00	-40.118	-12.801	
159.00	-39.728	-42.754	
160.00	-39.041	-14.485	
161.00	-38.841	-34.234	
162.00	-38.852	-13.492	
163.00	-38.987	-27.849	
164.00	-39.430	-16.917	
165.00	-39.950	-26.242	
166.00	-41.057	-27.604	
167.00	-41.980	-28.316	
168.00	-43.050	-31.691	
169.00	-43.813	-0.848	
170.00	-44.370	-4.972	
171.00	-44.279	31.603	
172.00	-43.843	22.873	
173.00	-43.683	44.548	
174.00	-43.217	31.311	
175.00	-43.008	57.058	
176.00	-42.747	34.051	
177.00	-43.098	50.431	
178.00	-43.465	28.774	
179.00	-43.916	24.699	
180.00	-44.177	13.180	
181.00	-45.020	5.496	
182.00	-44.980	-11.626	
183.00	-44.990	-33.522	
184.00	-45.226	-47.790	
185.00	-45.017	-41.344	
186.00	-44.799	-51.751	
187.00	-45.252	-43.720	
188.00	-45.738	-60.574	
189.00	-46.679	-64.404	
190.00	-48.253	-78.340	
191.00	-50.124	-85.877	
192.00	-52.571	-73.056	
193.00	-56.450	-110.754	
194.00	-63.422	-118.132	
195.00	-59.952	165.872	
196.00	-54.106	151.147	
197.00	-51.541	152.424	
198.00	-49.399	151.953	
199.00	-48.662	157.909	
200.00	-47.384	156.978	
201.00	-47.648	173.916	
202.00	-47.045	175.865	
203.00	-47.120	-173.078	
204.00	-46.702	-167.396	
205.00	-46.880	-153.393	
206.00	-46.705	-148.263	
207.00	-46.892	-137.839	
208.00	-46.820	-132.858	
209.00	-47.576	-122.788	
210.00	-47.698	-128.228	
211.00	-48.844	-121.287	
212.00	-49.516	-125.272	
213.00	-51.816	-130.387	
214.00	-53.770	-150.979	
215.00	-54.341	-161.591	
216.00	-52.778	167.429	
217.00	-50.446	158.732	
218.00	-48.139	149.412	
219.00	-46.131	145.552	
220.00	-44.631	150.385	
221.00	-43.370	148.073	
222.00	-42.616	154.528	
223.00	-42.007	153.002	
224.00	-41.665	155.016	
225.00	-41.549	158.020	
226.00	-41.474	154.750	
227.00	-41.899	162.728	
228.00	-42.087	164.137	
229.00	-42.895	161.367	
230.00	-43.698	167.458	
231.00	-44.747	160.785	
232.00	-45.786	159.307	
233.00	-46.729	145.753	
234.00	-46.968	128.091	
235.00	-46.739	124.582	
236.00	-44.942	101.466	
237.00	-43.648	102.724	
238.00	-42.168	89.793	
239.00	-41.018	91.438	
240.00	-39.915	83.046	
241.00	-39.228	94.534	
242.00	-38.637	85.390	
243.00	-38.313	96.878	
244.00	-38.178	87.616	
245.00	-38.423	84.093	
246.00	-38.791	79.564	
247.00	-39.394	78.503	
248.00	-40.308	72.538	
249.00	-41.479	72.193	
250.00	-43.250	58.136	
251.00	-44.999	47.589	
252.00	-46.927	23.079	
253.00	-47.218	-11.902	
254.00	-45.410	-25.420	
255.00	-43.350	-53.165	
256.00	-41.580	-63.987	
257.00	-39.936	-71.767	
258.00	-38.736	-78.649	
259.00	-37.762	-85.180	
260.00	-36.943	-82.023	
261.00	-36.597	-90.779	
262.00	-36.389	-83.387	
263.00	-36.347	-94.335	
264.00	-36.588	-87.996	
265.00	-37.094	-102.768	
266.00	-37.975	-100.880	
267.00	-39.130	-106.676	
268.00	-40.955	-106.627	
269.00	-43.619	-109.906	
270.00	-48.192	-116.441	
271.00	-57.098	-142.000	
272.00	-54.637	88.821	
273.00	-46.821	74.055	
274.00	-42.800	74.462	
275.00	-40.297	66.163	
276.00	-38.614	68.349	
277.00	-37.493	62.171	
278.00	-36.761	63.075	
279.00	-36.315	56.579	
280.00	-36.115	55.446	
281.00	-36.241	52.986	
282.00	-36.642	41.646	
283.00	-37.150	44.617	
284.00	-37.832	35.321	
285.00	-38.433	37.304	
286.00	-39.373	22.808	
287.00	-40.129	23.775	
288.00	-41.084	11.998	
289.00	-41.880	15.396	
290.00	-42.770	2.564	
291.00	-43.591	7.719	
292.00	-44.849	5.643	
293.00	-45.373	26.920	
294.00	-46.383	34.854	
295.00	-45.100	59.118	
296.00	-43.118	76.686	
297.00	-41.541	80.403	
298.00	-39.450	92.493	
299.00	-37.996	91.319	
300.00	-36.678	101.521	
301.00	-35.814	96.048	
302.00	-35.087	107.665	
303.00	-34.705	99.212	
304.00	-34.392	109.255	
305.00	-34.545	101.739	
306.00	-34.868	113.882	
307.00	-35.502	101.950	
308.00	-36.306	113.117	
309.00	-37.555	106.719	
310.00	-39.275	111.092	
311.00	-41.425	105.602	
312.00	-44.428	111.215	
313.00	-48.951	92.424	
314.00	-55.016	65.871	
315.00	-54.379	-11.568	
316.00	-49.432	-23.995	
317.00	-46.788	-38.854	
318.00	-45.466	-31.555	
319.00	-44.602	-33.554	
320.00	-44.431	-19.596	
321.00	-44.690	-15.334	
322.00	-45.067	5.276	
323.00	-45.471	13.840	
324.00	-45.625	34.644	
325.00	-45.108	48.793	
326.00	-44.355	68.049	
327.00	-43.581	71.226	
328.00	-42.795	82.892	
329.00	-42.248	86.090	
330.00	-41.947	98.302	
331.00	-42.165	103.422	
332.00	-42.263	96.056	
333.00	-43.060	111.245	
334.00	-44.143	97.638	
335.00	-46.126	106.138	
336.00	-48.375	88.223	
337.00	-51.714	72.895	
338.00	-50.557	28.304	
339.00	-48.562	8.025	
340.00	-45.362	-2.310	
341.00	-43.478	-11.198	
342.00	-42.021	-14.929	
343.00	-40.836	-15.193	
344.00	-39.909	-21.460	
345.00	-39.434	-21.655	
346.00	-39.130	-25.911	
347.00	-38.983	-26.300	
348.00	-39.186	-36.796	
349.00	-39.442	-34.969	
350.00	-39.977	-65.246	
351.00	-40.253	-60.923	
352.00	-40.822	-86.905	
353.00	-41.227	-80.670	
354.00	-41.477	-100.548	
355.00	-41.536	-103.064	
356.00	-41.667	-116.063	
357.00	-41.541	-150.279	
358.00	-41.543	-145.828	
359.00	-41.587	-151.598	
Frequency	2675.00	MHz	
Channel	test		
Scan Axis name	Azimuth  [deg]		
Scan Axis	Amplitude	Phase	
			
0.00	-41.727	11.088	
1.00	-42.677	13.022	
2.00	-43.634	5.947	
3.00	-45.743	22.718	
4.00	-47.278	-1.307	
5.00	-49.619	-19.495	
6.00	-49.189	-60.377	
7.00	-47.932	-82.492	
8.00	-45.962	-108.484	
9.00	-44.210	-107.157	
10.00	-42.635	-122.983	
11.00	-41.485	-117.304	
12.00	-40.932	-134.125	
13.00	-40.366	-118.161	
14.00	-40.096	-134.865	
15.00	-40.065	-139.052	
16.00	-40.420	-137.468	
17.00	-40.861	-151.391	
18.00	-41.734	-149.682	
19.00	-43.034	-165.531	
20.00	-44.438	-157.483	
21.00	-46.540	-160.706	
22.00	-49.720	173.831	
23.00	-52.485	153.699	
24.00	-53.202	99.683	
25.00	-50.604	77.419	
26.00	-46.936	44.124	
27.00	-45.314	56.133	
28.00	-43.350	32.162	
29.00	-42.498	41.740	
30.00	-41.238	23.544	
31.00	-40.636	26.686	
32.00	-40.144	17.495	
33.00	-39.719	1.947	
34.00	-39.674	8.095	
35.00	-39.193	-19.917	
36.00	-39.525	-14.591	
37.00	-39.826	-22.562	
38.00	-40.725	-14.342	
39.00	-41.753	-25.562	
40.00	-43.191	-39.995	
41.00	-46.529	-19.950	
42.00	-51.301	-19.609	
43.00	-59.944	61.682	
44.00	-51.318	109.500	
45.00	-45.425	119.810	
46.00	-41.959	126.443	
47.00	-39.588	120.293	
48.00	-37.990	108.402	
49.00	-36.621	119.300	
50.00	-35.866	102.125	
51.00	-35.337	102.768	
52.00	-35.100	98.360	
53.00	-35.175	102.091	
54.00	-35.617	94.551	
55.00	-36.153	107.694	
56.00	-37.168	111.579	
57.00	-38.388	117.225	
58.00	-40.149	130.152	
59.00	-41.795	140.534	
60.00	-43.491	154.931	
61.00	-44.409	177.421	
62.00	-44.183	-173.423	
63.00	-43.365	-155.797	
64.00	-42.586	-152.981	
65.00	-42.110	-140.073	
66.00	-42.036	-166.569	
67.00	-42.371	-150.284	
68.00	-43.209	-174.604	
69.00	-43.895	-173.703	
70.00	-44.201	155.558	
71.00	-43.206	137.728	
72.00	-41.677	119.529	
73.00	-39.739	109.249	
74.00	-38.108	106.871	
75.00	-36.703	92.023	
76.00	-35.646	93.896	
77.00	-34.940	89.692	
78.00	-34.444	79.863	
79.00	-34.158	87.411	
80.00	-34.280	80.774	
81.00	-34.537	82.518	
82.00	-35.140	70.956	
83.00	-36.097	83.729	
84.00	-37.328	72.311	
85.00	-39.044	85.379	
86.00	-41.597	69.697	
87.00	-45.282	70.903	
88.00	-50.600	37.889	
89.00	-52.444	-19.370	
90.00	-46.675	-62.584	
91.00	-42.986	-71.652	
92.00	-40.583	-64.691	
93.00	-39.052	-68.028	
94.00	-37.870	-61.323	
95.00	-37.098	-80.790	
96.00	-36.628	-74.670	
97.00	-36.496	-77.374	
98.00	-36.631	-77.876	
99.00	-37.153	-77.277	
100.00	-38.056	-81.290	
101.00	-39.320	-71.688	
102.00	-41.539	-84.332	
103.00	-44.205	-80.135	
104.00	-48.999	-70.081	
105.00	-61.741	-35.577	
106.00	-53.156	88.947	
107.00	-46.322	102.252	
108.00	-42.998	110.560	
109.00	-40.652	109.097	
110.00	-39.313	106.683	
111.00	-38.121	110.242	
112.00	-37.851	107.843	
113.00	-37.701	111.808	
114.00	-37.863	105.523	
115.00	-38.362	101.937	
116.00	-39.681	108.323	
117.00	-41.048	69.261	
118.00	-43.280	83.513	
119.00	-44.807	23.220	
120.00	-48.067	38.376	
121.00	-45.936	-13.509	
122.00	-43.737	-40.730	
123.00	-41.699	-44.798	
124.00	-40.125	-71.427	
125.00	-38.569	-77.889	
126.00	-37.818	-90.621	
127.00	-37.471	-94.718	
128.00	-37.390	-104.100	
129.00	-37.489	-103.111	
130.00	-37.950	-112.689	
131.00	-38.866	-101.990	
132.00	-39.940	-115.407	
133.00	-41.576	-113.751	
134.00	-43.621	-143.618	
135.00	-46.509	-152.256	
136.00	-48.989	-176.557	
137.00	-49.599	148.507	
138.00	-47.889	82.516	
139.00	-45.623	63.812	
140.00	-43.363	57.569	
141.00	-41.478	52.718	
142.00	-40.573	51.490	
143.00	-40.279	27.042	
144.00	-39.361	33.288	
145.00	-39.415	9.981	
146.00	-39.474	22.329	
147.00	-39.904	-7.255	
148.00	-40.843	7.029	
149.00	-41.949	-12.014	
150.00	-43.371	-1.660	
151.00	-45.690	-8.224	
152.00	-48.733	-35.971	
153.00	-54.195	-48.049	
154.00	-56.166	-127.093	
155.00	-50.455	-177.414	
156.00	-46.111	-175.413	
157.00	-43.750	157.365	
158.00	-42.064	168.934	
159.00	-40.278	137.938	
160.00	-39.232	161.345	
161.00	-38.368	141.372	
162.00	-37.788	158.412	
163.00	-37.625	143.842	
164.00	-37.572	151.833	
165.00	-37.865	139.865	
166.00	-38.296	134.648	
167.00	-38.971	128.327	
168.00	-39.836	120.073	
169.00	-40.763	141.171	
170.00	-41.843	131.219	
171.00	-42.582	160.047	
172.00	-43.586	150.097	
173.00	-43.636	174.077	
174.00	-43.919	164.213	
175.00	-43.126	-166.399	
176.00	-42.482	176.741	
177.00	-41.843	-165.820	
178.00	-41.338	174.894	
179.00	-40.673	174.782	
180.00	-40.061	169.626	
181.00	-39.639	165.402	
182.00	-39.157	156.399	
183.00	-38.949	140.941	
184.00	-38.690	131.792	
185.00	-38.309	143.100	
186.00	-38.386	135.215	
187.00	-38.294	144.302	
188.00	-38.626	128.858	
189.00	-38.918	125.143	
190.00	-39.403	114.840	
191.00	-39.991	108.255	
192.00	-40.596	117.808	
193.00	-41.597	103.691	
194.00	-42.526	113.305	
195.00	-43.358	104.607	
196.00	-44.201	93.663	
197.00	-44.622	89.763	
198.00	-44.893	78.300	
199.00	-44.914	80.972	
200.00	-44.413	65.428	
201.00	-44.118	78.399	
202.00	-43.506	68.683	
203.00	-43.259	69.192	
204.00	-42.719	68.074	
205.00	-42.581	72.640	
206.00	-42.227	71.795	
207.00	-42.284	73.933	
208.00	-42.456	71.753	
209.00	-43.074	73.860	
210.00	-43.417	61.934	
211.00	-44.162	63.210	
212.00	-44.973	50.128	
213.00	-45.833	44.399	
214.00	-46.123	27.787	
215.00	-46.474	19.135	
216.00	-45.146	-1.759	
217.00	-43.949	-10.642	
218.00	-42.796	-18.628	
219.00	-41.681	-24.833	
220.00	-40.975	-23.151	
221.00	-40.326	-29.203	
222.00	-40.115	-26.096	
223.00	-39.956	-30.303	
224.00	-40.020	-33.329	
225.00	-40.429	-33.887	
226.00	-40.850	-42.127	
227.00	-41.753	-36.594	
228.00	-42.621	-41.113	
229.00	-43.823	-48.981	
230.00	-45.271	-50.162	
231.00	-45.990	-62.863	
232.00	-46.451	-71.275	
233.00	-46.477	-84.732	
234.00	-45.727	-98.333	
235.00	-44.906	-88.505	
236.00	-43.678	-106.439	
237.00	-43.236	-95.788	
238.00	-42.343	-106.731	
239.00	-41.798	-99.442	
240.00	-41.329	-106.736	
241.00	-41.235	-91.525	
242.00	-41.012	-100.005	
243.00	-41.175	-86.366	
244.00	-41.245	-96.008	
245.00	-41.631	-98.526	
246.00	-42.350	-103.507	
247.00	-43.088	-103.489	
248.00	-44.048	-111.482	
249.00	-45.445	-112.229	
250.00	-46.756	-131.103	
251.00	-48.400	-143.191	
252.00	-49.064	-169.875	
253.00	-48.231	162.626	
254.00	-46.562	154.881	
255.00	-44.813	132.087	
256.00	-43.419	123.169	
257.00	-42.013	114.776	
258.00	-41.020	108.567	
259.00	-39.837	100.178	
260.00	-39.163	103.702	
261.00	-38.632	94.790	
262.00	-38.349	101.038	
263.00	-38.242	89.527	
264.00	-38.296	96.693	
265.00	-38.577	82.286	
266.00	-39.132	84.786	
267.00	-39.873	80.640	
268.00	-41.377	82.345	
269.00	-43.286	80.856	
270.00	-46.579	83.469	
271.00	-51.788	91.943	
272.00	-58.147	167.672	
273.00	-50.155	-136.431	
274.00	-45.424	-125.959	
275.00	-42.119	-129.520	
276.00	-40.062	-123.860	
277.00	-38.553	-128.681	
278.00	-37.481	-126.598	
279.00	-36.780	-131.942	
280.00	-36.445	-132.759	
281.00	-36.384	-135.385	
282.00	-36.519	-145.578	
283.00	-36.672	-143.307	
284.00	-37.045	-153.059	
285.00	-37.468	-151.275	
286.00	-38.018	-165.116	
287.00	-38.384	-164.063	
288.00	-38.909	-175.963	
289.00	-39.290	-172.460	
290.00	-39.976	174.934	
291.00	-40.520	179.864	
292.00	-41.386	175.435	
293.00	-42.310	-169.171	
294.00	-43.532	-169.558	
295.00	-44.023	-148.772	
296.00	-43.476	-126.351	
297.00	-42.105	-117.395	
298.00	-40.366	-99.446	
299.00	-38.622	-97.289	
300.00	-37.255	-85.162	
301.00	-36.156	-89.372	
302.00	-35.370	-77.644	
303.00	-34.748	-86.117	
304.00	-34.478	-76.814	
305.00	-34.442	-85.075	
306.00	-34.575	-74.828	
307.00	-34.942	-88.565	
308.00	-35.644	-80.713	
309.00	-36.582	-90.391	
310.00	-37.667	-91.228	
311.00	-39.018	-103.878	
312.00	-40.350	-107.496	
313.00	-41.381	-133.847	
314.00	-41.445	-144.066	
315.00	-40.984	-165.719	
316.00	-40.123	-166.374	
317.00	-39.423	177.632	
318.00	-38.766	-179.407	
319.00	-38.498	175.196	
320.00	-38.317	-176.924	
321.00	-38.621	-178.093	
322.00	-38.733	-165.490	
323.00	-39.416	-166.962	
324.00	-40.142	-157.350	
325.00	-41.197	-152.999	
326.00	-42.010	-140.318	
327.00	-43.088	-138.263	
328.00	-44.120	-126.660	
329.00	-45.202	-119.857	
330.00	-46.478	-106.026	
331.00	-47.833	-100.631	
332.00	-49.640	-102.261	
333.00	-52.743	-99.321	
334.00	-55.722	-121.728	
335.00	-55.688	-160.067	
336.00	-52.917	167.898	
337.00	-48.828	167.719	
338.00	-46.483	158.413	
339.00	-44.649	162.273	
340.00	-43.348	164.437	
341.00	-42.357	165.969	
342.00	-41.861	167.763	
343.00	-41.464	172.552	
344.00	-41.523	168.571	
345.00	-41.952	171.617	
346.00	-42.776	170.795	
347.00	-43.980	172.225	
348.00	-45.767	163.883	
349.00	-48.165	163.584	
350.00	-52.803	116.725	
351.00	-54.088	90.536	
352.00	-50.620	32.446	
353.00	-47.996	37.238	
354.00	-45.257	19.351	
355.00	-43.684	26.658	
356.00	-42.561	22.547	
357.00	-41.378	-3.822	
358.00	-41.399	11.674	
359.00	-41.464	14.970	
Frequency	2690.00	MHz	
Channel	test		
Scan Axis name	Azimuth  [deg]		
Scan Axis	Amplitude	Phase	
			
0.00	-42.086	112.248	
1.00	-42.854	118.870	
2.00	-43.488	117.834	
3.00	-44.757	142.545	
4.00	-45.931	132.883	
5.00	-47.827	138.065	
6.00	-50.180	118.384	
7.00	-54.165	114.697	
8.00	-57.541	84.542	
9.00	-62.656	39.017	
10.00	-56.263	-4.897	
11.00	-52.862	-13.039	
12.00	-49.993	-27.957	
13.00	-48.038	-15.118	
14.00	-46.270	-30.266	
15.00	-44.564	-34.451	
16.00	-43.827	-32.222	
17.00	-43.153	-45.671	
18.00	-42.671	-44.595	
19.00	-42.333	-58.985	
20.00	-42.171	-49.482	
21.00	-42.330	-48.036	
22.00	-42.639	-64.804	
23.00	-43.134	-62.904	
24.00	-43.926	-76.131	
25.00	-44.752	-75.639	
26.00	-46.182	-97.096	
27.00	-47.463	-90.616	
28.00	-49.845	-116.206	
29.00	-51.472	-129.284	
30.00	-53.219	-177.496	
31.00	-50.817	160.091	
32.00	-48.053	134.583	
33.00	-45.982	114.265	
34.00	-43.956	116.455	
35.00	-42.656	86.002	
36.00	-41.524	90.798	
37.00	-40.962	84.583	
38.00	-40.594	93.003	
39.00	-40.683	82.224	
40.00	-41.166	68.069	
41.00	-42.203	85.542	
42.00	-43.815	79.729	
43.00	-45.976	93.854	
44.00	-50.221	89.956	
45.00	-56.640	134.843	
46.00	-53.158	-156.614	
47.00	-47.490	-140.322	
48.00	-43.983	-148.186	
49.00	-41.741	-135.260	
50.00	-40.187	-151.361	
51.00	-39.268	-149.370	
52.00	-38.725	-154.463	
53.00	-38.629	-151.774	
54.00	-38.792	-159.765	
55.00	-39.448	-148.489	
56.00	-40.582	-146.338	
57.00	-42.182	-143.384	
58.00	-44.593	-134.890	
59.00	-47.855	-129.575	
60.00	-53.091	-116.827	
61.00	-57.806	-58.463	
62.00	-53.615	-19.590	
63.00	-50.090	-1.899	
64.00	-48.006	-2.483	
65.00	-47.365	7.997	
66.00	-47.701	-17.471	
67.00	-48.645	-2.522	
68.00	-51.745	-27.030	
69.00	-55.185	-45.892	
70.00	-53.934	-121.134	
71.00	-48.533	-142.076	
72.00	-44.676	-154.693	
73.00	-41.742	-158.082	
74.00	-39.807	-155.322	
75.00	-38.156	-165.807	
76.00	-37.111	-162.204	
77.00	-36.413	-163.518	
78.00	-35.990	-172.423	
79.00	-35.871	-163.735	
80.00	-36.015	-169.800	
81.00	-36.431	-167.395	
82.00	-37.277	-178.326	
83.00	-38.409	-166.672	
84.00	-40.095	-177.016	
85.00	-42.653	-165.939	
86.00	-46.177	177.504	
87.00	-52.077	167.540	
88.00	-55.457	83.810	
89.00	-49.214	48.689	
90.00	-44.532	30.554	
91.00	-41.989	27.894	
92.00	-40.178	38.181	
93.00	-39.085	36.404	
94.00	-38.318	43.035	
95.00	-37.831	23.424	
96.00	-37.776	27.984	
97.00	-37.863	26.920	
98.00	-38.490	24.636	
99.00	-39.369	25.365	
100.00	-41.038	19.285	
101.00	-43.097	25.755	
102.00	-46.673	5.534	
103.00	-52.212	-4.334	
104.00	-57.571	-82.079	
105.00	-48.819	-128.673	
106.00	-44.505	-141.990	
107.00	-41.549	-135.937	
108.00	-39.892	-132.190	
109.00	-38.249	-134.537	
110.00	-37.400	-139.843	
111.00	-36.813	-136.526	
112.00	-36.748	-140.533	
113.00	-36.755	-137.338	
114.00	-37.194	-144.827	
115.00	-38.192	-149.147	
116.00	-39.054	-147.036	
117.00	-40.084	174.807	
118.00	-42.037	-176.405	
119.00	-43.559	131.431	
120.00	-44.667	139.667	
121.00	-43.866	101.108	
122.00	-42.512	83.778	
123.00	-40.592	77.640	
124.00	-39.341	47.481	
125.00	-38.673	39.673	
126.00	-38.053	24.530	
127.00	-37.785	18.380	
128.00	-37.741	7.503	
129.00	-37.828	4.366	
130.00	-38.165	-5.152	
131.00	-38.801	0.390	
132.00	-39.465	-14.626	
133.00	-40.343	-18.459	
134.00	-41.464	-52.201	
135.00	-42.181	-53.565	
136.00	-43.086	-72.772	
137.00	-43.516	-82.314	
138.00	-43.526	-132.754	
139.00	-43.642	-147.435	
140.00	-43.635	-160.501	
141.00	-43.769	-168.479	
142.00	-42.824	-176.686	
143.00	-42.049	152.494	
144.00	-42.695	153.605	
145.00	-41.907	122.589	
146.00	-42.207	127.270	
147.00	-41.800	90.222	
148.00	-42.413	101.965	
149.00	-42.935	86.723	
150.00	-43.163	89.017	
151.00	-44.543	77.672	
152.00	-45.719	43.455	
153.00	-47.174	30.410	
154.00	-47.637	14.530	
155.00	-48.043	-24.299	
156.00	-46.567	-31.321	
157.00	-45.336	-70.608	
158.00	-43.760	-64.837	
159.00	-42.542	-100.935	
160.00	-41.378	-82.053	
161.00	-40.775	-104.175	
162.00	-40.211	-93.316	
163.00	-39.975	-109.091	
164.00	-39.965	-106.584	
165.00	-40.195	-121.475	
166.00	-40.603	-129.902	
167.00	-41.204	-141.041	
168.00	-41.954	-152.717	
169.00	-42.862	-139.019	
170.00	-44.186	-154.076	
171.00	-45.061	-135.311	
172.00	-46.943	-147.873	
173.00	-47.748	-126.451	
174.00	-49.118	-134.110	
175.00	-48.015	-99.809	
176.00	-47.784	-109.512	
177.00	-46.166	-86.486	
178.00	-44.860	-103.334	
179.00	-43.460	-99.934	
180.00	-42.354	-104.813	
181.00	-41.102	-105.234	
182.00	-40.303	-114.509	
183.00	-39.661	-127.963	
184.00	-39.289	-137.972	
185.00	-38.948	-125.976	
186.00	-38.788	-134.795	
187.00	-38.925	-127.518	
188.00	-38.984	-143.768	
189.00	-39.321	-150.050	
190.00	-39.652	-162.442	
191.00	-39.934	-171.546	
192.00	-40.289	-166.021	
193.00	-40.524	176.757	
194.00	-40.634	-177.863	
195.00	-40.462	171.986	
196.00	-40.193	162.706	
197.00	-39.907	161.874	
198.00	-39.586	154.009	
199.00	-39.157	159.391	
200.00	-38.893	148.052	
201.00	-38.622	161.732	
202.00	-38.456	154.407	
203.00	-38.318	155.938	
204.00	-38.281	154.550	
205.00	-38.332	158.702	
206.00	-38.504	157.122	
207.00	-38.765	157.258	
208.00	-39.072	154.222	
209.00	-39.609	154.373	
210.00	-40.113	140.549	
211.00	-40.533	140.264	
212.00	-40.772	126.788	
213.00	-41.197	120.800	
214.00	-40.937	106.972	
215.00	-40.516	107.289	
216.00	-39.918	92.621	
217.00	-39.199	87.827	
218.00	-38.611	82.289	
219.00	-38.275	76.678	
220.00	-38.049	78.714	
221.00	-38.031	72.123	
222.00	-38.251	74.116	
223.00	-38.783	69.502	
224.00	-39.473	65.135	
225.00	-40.515	61.996	
226.00	-41.947	50.161	
227.00	-43.517	52.423	
228.00	-45.710	39.279	
229.00	-47.443	18.505	
230.00	-48.259	0.937	
231.00	-47.471	-21.964	
232.00	-46.005	-31.236	
233.00	-44.624	-38.970	
234.00	-43.669	-47.286	
235.00	-43.062	-28.323	
236.00	-42.841	-44.172	
237.00	-42.688	-27.306	
238.00	-42.937	-34.669	
239.00	-43.242	-21.410	
240.00	-43.781	-24.741	
241.00	-44.114	-0.474	
242.00	-44.768	-2.839	
243.00	-45.556	20.042	
244.00	-45.958	19.512	
245.00	-46.731	22.910	
246.00	-47.438	26.319	
247.00	-48.958	33.793	
248.00	-50.656	31.430	
249.00	-54.017	41.491	
250.00	-59.371	26.566	
251.00	-69.448	-69.656	
252.00	-57.171	-118.371	
253.00	-51.759	-130.032	
254.00	-48.026	-122.569	
255.00	-45.392	-130.880	
256.00	-43.576	-133.013	
257.00	-42.179	-136.438	
258.00	-41.019	-138.861	
259.00	-40.179	-143.090	
260.00	-39.389	-137.756	
261.00	-39.124	-146.028	
262.00	-38.845	-138.151	
263.00	-38.801	-148.656	
264.00	-38.852	-142.615	
265.00	-39.323	-156.715	
266.00	-39.878	-155.185	
267.00	-40.795	-160.879	
268.00	-42.238	-161.931	
269.00	-44.067	-167.017	
270.00	-46.866	-171.632	
271.00	-51.762	178.889	
272.00	-62.810	127.000	
273.00	-54.311	25.719	
274.00	-48.022	19.183	
275.00	-44.543	7.726	
276.00	-42.204	10.442	
277.00	-40.541	2.528	
278.00	-39.575	2.571	
279.00	-38.975	-4.599	
280.00	-38.590	-6.621	
281.00	-38.489	-11.122	
282.00	-38.604	-23.351	
283.00	-38.914	-22.025	
284.00	-39.353	-33.501	
285.00	-39.756	-31.776	
286.00	-40.248	-49.288	
287.00	-40.719	-48.545	
288.00	-41.160	-64.636	
289.00	-41.570	-61.883	
290.00	-41.960	-77.974	
291.00	-42.667	-74.287	
292.00	-43.625	-82.773	
293.00	-45.234	-68.977	
294.00	-46.684	-74.210	
295.00	-48.798	-50.549	
296.00	-49.087	-17.071	
297.00	-47.367	-0.762	
298.00	-44.665	22.649	
299.00	-42.350	26.338	
300.00	-40.482	36.663	
301.00	-39.163	31.266	
302.00	-38.076	42.019	
303.00	-37.488	33.278	
304.00	-37.108	40.867	
305.00	-37.055	31.117	
306.00	-37.183	40.296	
307.00	-37.719	24.498	
308.00	-38.492	30.440	
309.00	-39.566	17.244	
310.00	-40.812	12.285	
311.00	-41.997	-7.413	
312.00	-42.565	-17.136	
313.00	-42.166	-47.390	
314.00	-41.220	-54.724	
315.00	-40.104	-73.031	
316.00	-39.079	-68.256	
317.00	-38.355	-82.810	
318.00	-37.940	-78.655	
319.00	-37.749	-83.692	
320.00	-37.942	-76.917	
321.00	-38.413	-78.578	
322.00	-39.086	-67.746	
323.00	-39.995	-71.118	
324.00	-41.291	-64.755	
325.00	-43.039	-63.381	
326.00	-45.383	-54.825	
327.00	-47.665	-58.007	
328.00	-50.984	-50.070	
329.00	-55.587	-55.103	
330.00	-65.090	-66.428	
331.00	-62.312	-152.468	
332.00	-57.206	-176.671	
333.00	-52.464	-150.849	
334.00	-50.433	-159.340	
335.00	-47.967	-135.251	
336.00	-46.565	-133.863	
337.00	-44.776	-117.065	
338.00	-43.934	-118.135	
339.00	-42.851	-109.501	
340.00	-42.289	-102.417	
341.00	-41.820	-97.470	
342.00	-41.501	-92.983	
343.00	-41.626	-85.895	
344.00	-42.008	-86.317	
345.00	-42.750	-79.723	
346.00	-43.822	-78.568	
347.00	-45.613	-72.741	
348.00	-48.021	-74.174	
349.00	-51.763	-66.553	
350.00	-61.371	-54.474	
351.00	-61.329	97.106	
352.00	-51.568	82.167	
353.00	-48.113	106.079	
354.00	-45.624	97.255	
355.00	-44.023	108.488	
356.00	-42.859	109.281	
357.00	-42.005	87.318	
358.00	-41.801	104.190	
359.00	-41.975	111.438	
