Test Title:	Alpha Wireless Indoor Range						
Date:	13/12/2017						
Time:	12:37						
Operator Name:	FL						
Comment:	Axis 1 192.8
Axis 2 350.2						
Caib. File Name:	C:\Program Files\Midas 2.01d\Calibration Files\test sigma 180900.cal						
							
[Scan Axis] Name: 	Azimuth  [deg]Start: 	0.000000	Stop	359.000000	Increment	1.000000[Step Axis] Name: 	Start: 	0.000000	Stop	0.000000	Increment	0.000000[Tert] Name: 	None [Forth] Name: 	None  [ Freq.]  (List) 	MHz.	2496.000000	2500.000000	2525.000000	2550.000000	2575.000000	2600.000000	2625.000000	2650.000000	2675.000000	2690.000000
 [Switch]  	None [Channel]  	test			 [ Beam] 	None			
Database:			
First Question			
2nd			
3rd			
4th			
			
Frequency	2496.00	MHz	
Channel	test		
Scan Axis name	Azimuth  [deg]		
Scan Axis	Amplitude	Phase	
			
0.00	-35.653	-25.430	
1.00	-35.813	5.407	
2.00	-36.397	50.523	
3.00	-36.243	51.989	
4.00	-36.020	49.920	
5.00	-35.983	46.251	
6.00	-36.465	62.924	
7.00	-36.857	77.426	
8.00	-36.803	76.959	
9.00	-37.200	96.853	
10.00	-37.698	97.453	
11.00	-38.771	107.080	
12.00	-40.253	105.864	
13.00	-42.250	130.510	
14.00	-43.657	150.468	
15.00	-44.024	169.993	
16.00	-43.031	-166.681	
17.00	-41.701	-144.707	
18.00	-40.375	-109.352	
19.00	-39.784	-116.177	
20.00	-39.205	-73.950	
21.00	-38.990	-90.842	
22.00	-39.228	-84.010	
23.00	-39.342	-109.513	
24.00	-39.521	-108.188	
25.00	-40.004	-106.370	
26.00	-40.462	-123.636	
27.00	-41.195	-123.278	
28.00	-41.818	-150.208	
29.00	-42.198	-153.901	
30.00	-42.148	179.657	
31.00	-41.831	-179.393	
32.00	-42.109	139.855	
33.00	-40.409	158.840	
34.00	-39.499	156.925	
35.00	-38.318	171.792	
36.00	-37.175	155.448	
37.00	-36.520	157.971	
38.00	-36.145	133.860	
39.00	-36.008	153.751	
40.00	-36.466	-179.345	
41.00	-36.313	140.074	
42.00	-36.929	159.500	
43.00	-38.214	172.141	
44.00	-40.009	-157.117	
45.00	-42.447	-158.338	
46.00	-45.174	-123.501	
47.00	-47.025	-112.300	
48.00	-46.444	-47.459	
49.00	-44.232	-38.663	
50.00	-42.383	-33.944	
51.00	-40.849	-18.181	
52.00	-40.027	-22.090	
53.00	-39.645	-17.511	
54.00	-39.028	34.903	
55.00	-39.892	19.516	
56.00	-41.345	19.000	
57.00	-42.809	23.690	
58.00	-44.431	13.769	
59.00	-46.111	19.475	
60.00	-47.404	18.002	
61.00	-47.708	30.432	
62.00	-48.433	40.264	
63.00	-50.046	46.726	
64.00	-47.913	61.347	
65.00	-52.278	78.267	
66.00	-56.245	59.809	
67.00	-55.994	69.377	
68.00	-51.562	69.870	
69.00	-49.347	87.158	
70.00	-47.894	115.672	
71.00	-43.620	98.051	
72.00	-46.012	-171.502	
73.00	-43.129	159.377	
74.00	-42.432	-163.936	
75.00	-42.163	-142.246	
76.00	-40.846	174.686	
77.00	-41.730	-116.675	
78.00	-41.584	-141.664	
79.00	-41.888	-147.339	
80.00	-40.765	-65.489	
81.00	-40.145	-42.508	
82.00	-39.985	-54.512	
83.00	-38.469	-9.309	
84.00	-37.847	22.060	
85.00	-37.915	38.742	
86.00	-37.831	56.700	
87.00	-38.893	39.811	
88.00	-40.015	66.693	
89.00	-41.773	45.363	
90.00	-44.367	69.631	
91.00	-48.833	78.703	
92.00	-59.968	59.291	
93.00	-50.729	1.494	
94.00	-45.760	-45.120	
95.00	-41.752	5.437	
96.00	-39.558	-38.381	
97.00	-37.483	36.584	
98.00	-36.514	40.350	
99.00	-35.565	51.114	
100.00	-35.199	77.108	
101.00	-35.303	73.844	
102.00	-35.534	104.553	
103.00	-36.343	109.687	
104.00	-37.482	121.707	
105.00	-38.937	142.915	
106.00	-41.038	153.960	
107.00	-42.358	-178.821	
108.00	-42.211	-123.988	
109.00	-40.328	-102.908	
110.00	-38.214	-72.951	
111.00	-36.437	-48.633	
112.00	-35.145	-38.540	
113.00	-34.266	-35.271	
114.00	-33.420	8.184	
115.00	-33.158	9.584	
116.00	-33.029	17.733	
117.00	-33.255	25.615	
118.00	-33.541	-4.024	
119.00	-34.201	29.813	
120.00	-35.208	20.813	
121.00	-36.422	30.279	
122.00	-37.511	62.973	
123.00	-39.184	58.729	
124.00	-41.522	26.893	
125.00	-43.677	47.911	
126.00	-46.851	54.454	
127.00	-50.071	87.992	
128.00	-53.726	132.534	
129.00	-51.618	-148.011	
130.00	-48.751	-118.749	
131.00	-45.254	-96.764	
132.00	-43.366	-79.557	
133.00	-41.948	-63.592	
134.00	-40.986	-68.149	
135.00	-41.297	-25.390	
136.00	-40.832	-47.420	
137.00	-42.226	-18.649	
138.00	-43.855	-9.390	
139.00	-46.151	-15.328	
140.00	-50.666	51.822	
141.00	-52.972	93.113	
142.00	-49.011	172.399	
143.00	-45.280	-165.392	
144.00	-42.296	-173.075	
145.00	-39.775	-126.130	
146.00	-37.746	-115.002	
147.00	-36.402	-130.158	
148.00	-35.492	-91.028	
149.00	-34.783	-106.154	
150.00	-34.859	-66.863	
151.00	-34.883	-89.560	
152.00	-35.175	-65.550	
153.00	-35.656	-52.367	
154.00	-36.082	-51.097	
155.00	-36.726	-35.962	
156.00	-37.602	-20.599	
157.00	-38.639	-10.818	
158.00	-39.685	0.922	
159.00	-40.556	17.173	
160.00	-41.382	30.209	
161.00	-42.518	40.558	
162.00	-44.843	26.985	
163.00	-48.824	19.566	
164.00	-55.684	29.780	
165.00	-60.815	94.860	
166.00	-55.857	155.932	
167.00	-51.484	154.403	
168.00	-50.177	150.433	
169.00	-48.807	144.596	
170.00	-44.817	131.324	
171.00	-41.852	125.452	
172.00	-39.195	133.609	
173.00	-36.738	107.050	
174.00	-34.627	137.684	
175.00	-32.637	120.402	
176.00	-31.085	124.709	
177.00	-29.783	123.456	
178.00	-28.588	106.221	
179.00	-27.645	113.464	
180.00	-26.859	72.973	
181.00	-25.865	81.089	
182.00	-25.094	62.353	
183.00	-24.226	63.177	
184.00	-23.417	89.553	
185.00	-22.877	43.745	
186.00	-22.137	67.811	
187.00	-21.515	64.641	
188.00	-20.976	44.566	
189.00	-20.458	74.877	
190.00	-20.258	24.871	
191.00	-20.031	29.130	
192.00	-19.890	31.331	
193.00	-19.920	-7.527	
194.00	-19.871	17.205	
195.00	-20.135	-20.356	
196.00	-20.309	6.801	
197.00	-20.736	-5.361	
198.00	-21.307	-42.585	
199.00	-21.702	-12.949	
200.00	-22.514	-52.275	
201.00	-23.202	-33.417	
202.00	-24.168	-58.539	
203.00	-25.129	-59.936	
204.00	-26.114	-71.586	
205.00	-27.087	-85.463	
206.00	-28.162	-99.349	
207.00	-29.373	-105.839	
208.00	-30.700	-143.148	
209.00	-32.307	-133.349	
210.00	-34.197	-160.424	
211.00	-37.095	-162.009	
212.00	-42.425	-154.227	
213.00	-59.122	-128.802	
214.00	-44.186	-13.430	
215.00	-38.375	-17.648	
216.00	-35.503	-32.211	
217.00	-33.690	-35.094	
218.00	-32.468	-57.927	
219.00	-31.389	-53.794	
220.00	-30.787	-79.434	
221.00	-30.475	-93.876	
222.00	-30.534	-117.819	
223.00	-30.721	-139.465	
224.00	-30.846	-150.932	
225.00	-30.774	179.932	
226.00	-30.502	163.520	
227.00	-30.332	162.149	
228.00	-30.151	127.622	
229.00	-30.384	110.997	
230.00	-30.617	93.281	
231.00	-31.055	96.668	
232.00	-31.384	42.444	
233.00	-31.832	23.258	
234.00	-32.586	-4.641	
235.00	-33.318	-24.625	
236.00	-34.034	-65.628	
237.00	-34.471	-76.549	
238.00	-34.424	-103.987	
239.00	-34.087	-105.561	
240.00	-33.012	-169.460	
241.00	-33.383	-131.479	
242.00	-33.537	-135.351	
243.00	-33.752	-170.352	
244.00	-34.509	-156.989	
245.00	-35.468	167.161	
246.00	-36.484	168.529	
247.00	-37.627	140.418	
248.00	-38.040	135.441	
249.00	-38.789	121.763	
250.00	-38.627	109.991	
251.00	-38.353	142.599	
252.00	-39.248	97.195	
253.00	-40.169	91.786	
254.00	-40.253	111.016	
255.00	-42.782	69.551	
256.00	-43.556	98.145	
257.00	-46.860	75.730	
258.00	-50.111	75.901	
259.00	-55.162	91.127	
260.00	-59.190	128.384	
261.00	-58.769	172.343	
262.00	-55.960	160.660	
263.00	-54.941	176.844	
264.00	-54.179	142.549	
265.00	-53.690	135.465	
266.00	-53.368	101.306	
267.00	-51.622	80.596	
268.00	-50.176	43.736	
269.00	-48.235	8.988	
270.00	-46.516	3.354	
271.00	-44.908	-18.014	
272.00	-44.085	-14.936	
273.00	-43.230	-15.607	
274.00	-42.461	-37.169	
275.00	-41.957	-37.884	
276.00	-41.930	-40.552	
277.00	-41.942	-53.660	
278.00	-42.247	-39.084	
279.00	-42.389	-73.155	
280.00	-42.638	-30.865	
281.00	-42.863	-82.242	
282.00	-43.517	-36.562	
283.00	-43.957	-46.011	
284.00	-44.710	-37.878	
285.00	-44.899	-58.657	
286.00	-45.830	-20.209	
287.00	-45.237	-49.003	
288.00	-44.871	-34.443	
289.00	-44.032	0.274	
290.00	-42.847	-3.141	
291.00	-41.613	16.999	
292.00	-40.700	1.967	
293.00	-39.897	-10.068	
294.00	-39.948	-1.410	
295.00	-40.111	-7.923	
296.00	-40.254	0.523	
297.00	-41.153	-0.140	
298.00	-42.323	-0.903	
299.00	-43.579	8.250	
300.00	-44.242	4.345	
301.00	-43.806	33.912	
302.00	-42.626	28.164	
303.00	-41.655	41.185	
304.00	-40.662	37.208	
305.00	-40.193	-4.241	
306.00	-39.968	8.348	
307.00	-39.840	-17.023	
308.00	-39.368	-12.329	
309.00	-38.190	9.241	
310.00	-37.404	15.124	
311.00	-36.951	19.905	
312.00	-37.300	22.493	
313.00	-38.111	37.901	
314.00	-39.714	29.773	
315.00	-42.444	34.092	
316.00	-45.259	61.666	
317.00	-45.259	85.606	
318.00	-43.150	102.688	
319.00	-41.536	114.682	
320.00	-40.763	111.447	
321.00	-40.951	136.129	
322.00	-41.428	124.302	
323.00	-41.653	151.392	
324.00	-41.316	128.628	
325.00	-40.643	128.646	
326.00	-40.318	139.833	
327.00	-39.422	89.310	
328.00	-39.432	167.620	
329.00	-38.129	160.254	
330.00	-37.221	166.433	
331.00	-36.472	179.891	
332.00	-36.313	-174.606	
333.00	-36.422	-174.039	
334.00	-36.784	-177.758	
335.00	-37.364	162.763	
336.00	-38.047	-177.857	
337.00	-39.495	158.764	
338.00	-41.558	-175.966	
339.00	-45.231	156.171	
340.00	-49.469	-178.943	
341.00	-49.936	-106.299	
342.00	-45.565	-57.560	
343.00	-42.678	-78.449	
344.00	-41.255	-37.321	
345.00	-39.794	-42.754	
346.00	-38.741	-19.158	
347.00	-38.066	-21.498	
348.00	-38.224	-48.708	
349.00	-39.356	-81.065	
350.00	-40.150	-104.515	
351.00	-40.406	-62.744	
352.00	-40.601	-43.965	
353.00	-41.057	-70.847	
354.00	-40.738	-28.570	
355.00	-40.405	-18.437	
356.00	-39.622	-20.720	
357.00	-38.815	6.483	
358.00	-37.793	1.950	
359.00	-37.682	37.030	
Frequency	2500.00	MHz	
Channel	test		
Scan Axis name	Azimuth  [deg]		
Scan Axis	Amplitude	Phase	
			
0.00	-35.214	-144.014	
1.00	-35.644	-111.230	
2.00	-36.218	-64.852	
3.00	-36.056	-64.094	
4.00	-35.851	-68.073	
5.00	-35.860	-72.488	
6.00	-36.501	-54.336	
7.00	-37.064	-40.172	
8.00	-37.059	-40.606	
9.00	-37.395	-18.416	
10.00	-37.896	-19.485	
11.00	-38.968	-8.120	
12.00	-40.487	-9.317	
13.00	-42.726	16.695	
14.00	-43.958	39.684	
15.00	-43.473	57.357	
16.00	-42.122	80.620	
17.00	-40.699	100.121	
18.00	-39.619	134.272	
19.00	-38.694	127.782	
20.00	-38.338	167.763	
21.00	-38.059	149.795	
22.00	-38.154	155.989	
23.00	-38.264	131.887	
24.00	-38.565	131.718	
25.00	-39.185	135.354	
26.00	-40.208	118.702	
27.00	-41.068	119.182	
28.00	-42.526	93.613	
29.00	-42.880	89.520	
30.00	-43.584	62.301	
31.00	-43.181	60.597	
32.00	-43.439	18.471	
33.00	-41.647	36.435	
34.00	-39.912	35.371	
35.00	-38.448	49.665	
36.00	-37.289	34.553	
37.00	-36.495	38.939	
38.00	-35.977	13.766	
39.00	-35.954	35.566	
40.00	-36.124	62.601	
41.00	-36.248	23.932	
42.00	-36.779	45.443	
43.00	-37.951	59.858	
44.00	-39.099	91.212	
45.00	-41.201	95.275	
46.00	-43.140	128.284	
47.00	-44.142	142.464	
48.00	-43.778	-174.072	
49.00	-42.315	-163.670	
50.00	-40.828	-159.101	
51.00	-39.542	-141.057	
52.00	-38.673	-144.169	
53.00	-38.576	-143.371	
54.00	-39.491	-88.258	
55.00	-40.090	-108.912	
56.00	-40.952	-108.810	
57.00	-43.308	-107.857	
58.00	-43.961	-119.498	
59.00	-46.631	-114.928	
60.00	-48.035	-119.859	
61.00	-54.489	-130.681	
62.00	-57.336	-153.716	
63.00	-59.114	-159.478	
64.00	-59.008	-78.841	
65.00	-62.432	149.111	
66.00	-55.189	103.340	
67.00	-64.621	154.091	
68.00	-56.440	51.428	
69.00	-52.764	32.719	
70.00	-48.430	42.455	
71.00	-44.491	7.717	
72.00	-42.545	85.028	
73.00	-40.516	54.936	
74.00	-40.031	81.993	
75.00	-39.664	98.617	
76.00	-38.718	61.185	
77.00	-39.731	117.083	
78.00	-39.730	94.996	
79.00	-39.982	93.691	
80.00	-40.868	163.808	
81.00	-40.651	-174.269	
82.00	-40.325	175.494	
83.00	-39.451	-136.716	
84.00	-39.243	-99.266	
85.00	-39.256	-78.788	
86.00	-39.220	-60.224	
87.00	-40.227	-79.597	
88.00	-40.901	-46.475	
89.00	-43.412	-69.066	
90.00	-45.328	-46.302	
91.00	-50.114	-37.631	
92.00	-60.782	-57.678	
93.00	-50.607	-108.762	
94.00	-45.864	-160.179	
95.00	-41.300	-106.674	
96.00	-39.895	-153.084	
97.00	-37.300	-77.741	
98.00	-36.341	-76.623	
99.00	-35.804	-66.332	
100.00	-35.451	-40.361	
101.00	-35.577	-43.709	
102.00	-35.954	-11.886	
103.00	-36.856	-7.456	
104.00	-38.175	9.885	
105.00	-39.541	31.708	
106.00	-40.634	48.275	
107.00	-41.727	73.154	
108.00	-40.717	116.274	
109.00	-39.234	135.410	
110.00	-37.735	166.470	
111.00	-36.054	-170.080	
112.00	-34.902	-158.346	
113.00	-33.875	-154.581	
114.00	-33.190	-109.865	
115.00	-32.749	-110.232	
116.00	-32.599	-100.149	
117.00	-32.703	-93.971	
118.00	-33.020	-121.996	
119.00	-33.506	-88.504	
120.00	-34.150	-97.539	
121.00	-35.044	-89.750	
122.00	-36.217	-59.587	
123.00	-37.767	-60.972	
124.00	-40.329	-88.388	
125.00	-41.935	-67.849	
126.00	-44.052	-58.758	
127.00	-46.675	-31.903	
128.00	-49.033	-4.162	
129.00	-50.180	59.857	
130.00	-49.373	98.625	
131.00	-46.764	129.907	
132.00	-44.340	152.460	
133.00	-42.770	173.442	
134.00	-41.831	169.223	
135.00	-40.963	-147.537	
136.00	-40.744	-169.197	
137.00	-41.673	-140.388	
138.00	-43.284	-135.025	
139.00	-45.267	-138.087	
140.00	-51.207	-102.676	
141.00	-60.142	-60.562	
142.00	-53.305	84.639	
143.00	-46.732	97.087	
144.00	-42.981	79.287	
145.00	-39.679	127.002	
146.00	-37.658	134.239	
147.00	-36.450	117.837	
148.00	-35.321	153.860	
149.00	-34.901	138.671	
150.00	-34.710	175.052	
151.00	-34.929	153.064	
152.00	-35.156	175.107	
153.00	-35.573	-173.338	
154.00	-36.084	-172.502	
155.00	-36.674	-157.127	
156.00	-37.581	-143.468	
157.00	-38.513	-134.090	
158.00	-39.561	-125.873	
159.00	-40.464	-110.527	
160.00	-41.439	-99.563	
161.00	-42.743	-93.134	
162.00	-44.408	-115.037	
163.00	-47.826	-133.644	
164.00	-53.015	-157.041	
165.00	-57.316	154.086	
166.00	-53.884	114.247	
167.00	-51.644	82.503	
168.00	-50.316	69.739	
169.00	-49.800	54.818	
170.00	-46.437	23.094	
171.00	-42.753	10.670	
172.00	-39.339	18.467	
173.00	-36.888	-8.822	
174.00	-34.449	23.042	
175.00	-32.330	4.071	
176.00	-30.734	8.888	
177.00	-29.384	7.464	
178.00	-28.329	-8.984	
179.00	-27.274	-0.525	
180.00	-26.423	-41.582	
181.00	-25.449	-31.864	
182.00	-24.685	-51.553	
183.00	-23.910	-49.295	
184.00	-23.220	-23.513	
185.00	-22.689	-69.620	
186.00	-22.041	-43.913	
187.00	-21.414	-48.777	
188.00	-20.892	-67.292	
189.00	-20.422	-38.027	
190.00	-20.201	-88.438	
191.00	-19.999	-82.593	
192.00	-19.889	-82.099	
193.00	-19.875	-119.455	
194.00	-19.834	-95.368	
195.00	-20.124	-132.731	
196.00	-20.317	-104.950	
197.00	-20.781	-118.524	
198.00	-21.367	-154.334	
199.00	-21.758	-124.889	
200.00	-22.591	-164.588	
201.00	-23.255	-144.845	
202.00	-24.311	-170.809	
203.00	-25.291	-171.139	
204.00	-26.377	176.158	
205.00	-27.392	162.804	
206.00	-28.557	148.392	
207.00	-29.829	141.751	
208.00	-31.208	104.315	
209.00	-32.868	114.580	
210.00	-34.801	86.298	
211.00	-37.707	87.418	
212.00	-43.272	96.036	
213.00	-55.566	162.155	
214.00	-42.888	-134.469	
215.00	-37.846	-137.592	
216.00	-35.103	-151.254	
217.00	-33.278	-152.944	
218.00	-32.000	-175.527	
219.00	-31.043	-170.965	
220.00	-30.307	163.061	
221.00	-29.931	149.597	
222.00	-29.886	125.849	
223.00	-30.093	106.181	
224.00	-30.272	95.535	
225.00	-30.273	67.053	
226.00	-30.149	52.447	
227.00	-30.045	49.586	
228.00	-30.146	16.111	
229.00	-30.495	-1.028	
230.00	-31.034	-18.024	
231.00	-31.417	-15.084	
232.00	-32.093	-73.956	
233.00	-32.592	-93.911	
234.00	-32.963	-124.158	
235.00	-33.481	-144.829	
236.00	-33.750	175.189	
237.00	-34.299	167.412	
238.00	-34.500	144.490	
239.00	-34.160	141.857	
240.00	-33.378	75.893	
241.00	-33.489	115.674	
242.00	-33.392	108.758	
243.00	-33.855	76.568	
244.00	-34.463	88.180	
245.00	-35.230	52.604	
246.00	-36.364	53.607	
247.00	-37.566	26.264	
248.00	-37.939	20.005	
249.00	-38.478	8.794	
250.00	-38.174	-6.118	
251.00	-38.338	28.436	
252.00	-38.881	-20.254	
253.00	-39.631	-21.992	
254.00	-39.974	-2.818	
255.00	-42.249	-47.591	
256.00	-43.027	-16.319	
257.00	-46.382	-46.861	
258.00	-50.493	-46.950	
259.00	-56.954	-34.761	
260.00	-65.191	65.447	
261.00	-56.375	86.745	
262.00	-52.925	85.160	
263.00	-52.778	84.526	
264.00	-52.998	63.290	
265.00	-54.720	57.582	
266.00	-56.337	20.467	
267.00	-55.515	-21.016	
268.00	-52.796	-68.993	
269.00	-49.588	-104.904	
270.00	-47.364	-112.916	
271.00	-45.510	-133.145	
272.00	-44.019	-129.587	
273.00	-42.908	-131.204	
274.00	-42.433	-153.884	
275.00	-41.598	-157.153	
276.00	-41.322	-162.372	
277.00	-41.244	-173.488	
278.00	-41.442	-159.966	
279.00	-41.750	167.329	
280.00	-42.132	-154.121	
281.00	-42.825	153.995	
282.00	-43.062	-163.354	
283.00	-44.075	-170.417	
284.00	-44.648	-164.765	
285.00	-45.855	175.885	
286.00	-46.626	-144.293	
287.00	-46.554	-173.134	
288.00	-46.444	-152.002	
289.00	-45.149	-119.200	
290.00	-44.057	-122.496	
291.00	-42.659	-101.733	
292.00	-41.536	-116.543	
293.00	-40.978	-130.964	
294.00	-41.024	-120.669	
295.00	-41.182	-128.712	
296.00	-41.699	-121.207	
297.00	-42.684	-122.356	
298.00	-44.343	-121.988	
299.00	-46.080	-110.411	
300.00	-46.446	-111.622	
301.00	-45.535	-76.780	
302.00	-43.958	-84.887	
303.00	-42.698	-70.467	
304.00	-41.596	-77.211	
305.00	-40.894	-121.707	
306.00	-40.572	-106.134	
307.00	-40.237	-133.862	
308.00	-39.669	-127.319	
309.00	-38.739	-107.030	
310.00	-37.928	-101.119	
311.00	-37.649	-98.210	
312.00	-37.981	-95.339	
313.00	-38.898	-79.981	
314.00	-40.995	-88.327	
315.00	-44.314	-83.960	
316.00	-47.782	-46.273	
317.00	-46.770	-15.506	
318.00	-43.811	-0.199	
319.00	-41.900	9.124	
320.00	-41.285	4.929	
321.00	-41.318	29.362	
322.00	-41.720	19.729	
323.00	-41.260	46.251	
324.00	-40.681	21.598	
325.00	-40.113	20.623	
326.00	-39.615	28.167	
327.00	-39.038	-20.186	
328.00	-38.537	56.761	
329.00	-37.500	46.778	
330.00	-36.552	54.060	
331.00	-36.077	65.887	
332.00	-35.946	72.027	
333.00	-36.326	72.419	
334.00	-36.630	69.929	
335.00	-37.111	52.580	
336.00	-37.815	71.150	
337.00	-38.948	48.821	
338.00	-40.940	74.431	
339.00	-44.203	48.806	
340.00	-47.348	73.666	
341.00	-46.964	134.164	
342.00	-44.431	179.040	
343.00	-42.026	162.341	
344.00	-40.869	-156.587	
345.00	-39.538	-162.078	
346.00	-38.881	-135.808	
347.00	-38.273	-138.169	
348.00	-38.098	-163.180	
349.00	-38.631	166.062	
350.00	-38.996	150.396	
351.00	-39.641	-173.163	
352.00	-40.092	-155.454	
353.00	-39.486	177.574	
354.00	-40.211	-140.227	
355.00	-39.788	-133.522	
356.00	-38.903	-137.064	
357.00	-38.362	-109.872	
358.00	-37.356	-114.703	
359.00	-37.236	-77.784	
Frequency	2525.00	MHz	
Channel	test		
Scan Axis name	Azimuth  [deg]		
Scan Axis	Amplitude	Phase	
			
0.00	-37.685	38.254	
1.00	-37.448	71.932	
2.00	-37.537	115.851	
3.00	-36.835	113.362	
4.00	-36.465	106.076	
5.00	-36.090	98.873	
6.00	-36.556	113.562	
7.00	-37.075	122.680	
8.00	-37.232	116.053	
9.00	-38.064	134.909	
10.00	-38.941	130.928	
11.00	-40.961	145.903	
12.00	-42.908	152.228	
13.00	-44.586	-166.806	
14.00	-43.778	-139.417	
15.00	-42.042	-128.768	
16.00	-39.932	-116.113	
17.00	-38.223	-101.550	
18.00	-36.798	-75.765	
19.00	-36.162	-84.364	
20.00	-35.463	-46.822	
21.00	-35.584	-64.140	
22.00	-35.851	-56.124	
23.00	-36.401	-79.723	
24.00	-36.825	-77.884	
25.00	-37.544	-73.239	
26.00	-38.724	-86.318	
27.00	-39.814	-78.078	
28.00	-41.722	-99.457	
29.00	-43.432	-95.774	
30.00	-46.209	-116.622	
31.00	-48.148	-112.276	
32.00	-53.273	-179.821	
33.00	-50.676	-175.250	
34.00	-46.881	169.084	
35.00	-43.546	-174.844	
36.00	-41.444	165.539	
37.00	-40.241	174.433	
38.00	-39.303	147.777	
39.00	-39.095	171.441	
40.00	-39.037	-157.364	
41.00	-39.117	161.501	
42.00	-40.201	-171.305	
43.00	-41.338	-151.545	
44.00	-43.202	-110.269	
45.00	-44.613	-88.834	
46.00	-43.803	-44.955	
47.00	-42.615	-30.678	
48.00	-40.475	5.109	
49.00	-39.253	6.280	
50.00	-38.289	9.280	
51.00	-37.614	22.473	
52.00	-37.491	16.779	
53.00	-37.566	14.374	
54.00	-38.441	60.534	
55.00	-39.070	38.715	
56.00	-39.938	36.386	
57.00	-41.239	31.451	
58.00	-42.221	16.514	
59.00	-42.301	13.540	
60.00	-42.473	9.398	
61.00	-42.277	25.909	
62.00	-42.407	50.972	
63.00	-43.221	61.193	
64.00	-43.064	34.246	
65.00	-43.389	78.349	
66.00	-44.648	89.184	
67.00	-44.873	126.957	
68.00	-43.816	114.540	
69.00	-43.502	138.935	
70.00	-42.506	163.928	
71.00	-40.894	139.184	
72.00	-41.543	-134.342	
73.00	-40.577	-167.321	
74.00	-41.284	-135.791	
75.00	-42.335	-117.828	
76.00	-42.732	-157.082	
77.00	-45.269	-89.885	
78.00	-47.337	-105.149	
79.00	-48.065	-85.238	
80.00	-45.615	7.479	
81.00	-43.272	29.840	
82.00	-41.921	19.501	
83.00	-40.111	53.179	
84.00	-39.408	84.253	
85.00	-39.007	100.831	
86.00	-39.426	115.747	
87.00	-39.559	91.912	
88.00	-40.511	118.564	
89.00	-41.900	90.925	
90.00	-43.645	105.782	
91.00	-45.784	97.133	
92.00	-47.592	89.306	
93.00	-45.165	91.193	
94.00	-44.339	50.565	
95.00	-40.846	86.372	
96.00	-40.511	42.021	
97.00	-38.097	110.958	
98.00	-37.361	108.663	
99.00	-36.901	118.538	
100.00	-36.754	141.943	
101.00	-36.908	139.161	
102.00	-37.419	170.478	
103.00	-38.180	173.936	
104.00	-39.305	-170.642	
105.00	-40.441	-149.898	
106.00	-41.793	-137.656	
107.00	-42.395	-115.034	
108.00	-42.035	-74.990	
109.00	-41.097	-59.571	
110.00	-39.926	-25.689	
111.00	-38.591	-1.334	
112.00	-37.314	10.927	
113.00	-36.242	13.935	
114.00	-35.397	61.465	
115.00	-34.804	58.866	
116.00	-34.451	70.455	
117.00	-34.362	74.406	
118.00	-34.588	46.764	
119.00	-34.606	79.493	
120.00	-35.134	66.968	
121.00	-36.077	73.705	
122.00	-37.039	101.410	
123.00	-38.149	95.129	
124.00	-39.986	64.335	
125.00	-41.795	81.789	
126.00	-44.082	83.732	
127.00	-46.211	110.246	
128.00	-49.091	128.120	
129.00	-50.621	170.067	
130.00	-54.037	-164.892	
131.00	-56.723	-129.677	
132.00	-58.579	-91.247	
133.00	-57.459	-47.764	
134.00	-54.653	-57.906	
135.00	-55.993	-20.474	
136.00	-53.114	-69.799	
137.00	-51.718	-72.156	
138.00	-49.217	-91.792	
139.00	-46.232	-107.249	
140.00	-43.969	-88.136	
141.00	-42.073	-89.920	
142.00	-40.776	-67.279	
143.00	-40.074	-66.969	
144.00	-38.963	-88.565	
145.00	-38.382	-48.059	
146.00	-37.641	-47.202	
147.00	-37.123	-64.370	
148.00	-37.088	-31.947	
149.00	-37.025	-48.544	
150.00	-37.771	-13.705	
151.00	-37.947	-39.033	
152.00	-38.702	-19.557	
153.00	-39.162	-11.317	
154.00	-39.342	-15.717	
155.00	-39.936	-4.300	
156.00	-40.724	3.069	
157.00	-41.899	7.463	
158.00	-43.115	9.721	
159.00	-44.576	18.690	
160.00	-45.566	19.838	
161.00	-46.668	20.473	
162.00	-47.023	-8.662	
163.00	-47.545	-31.689	
164.00	-48.368	-57.488	
165.00	-48.681	-68.249	
166.00	-48.346	-73.762	
167.00	-48.185	-92.433	
168.00	-48.370	-92.167	
169.00	-49.952	-99.260	
170.00	-50.384	-132.336	
171.00	-46.381	-163.528	
172.00	-41.942	-159.486	
173.00	-38.565	169.119	
174.00	-35.823	-151.788	
175.00	-33.498	-170.926	
176.00	-31.575	-162.945	
177.00	-29.816	-163.378	
178.00	-28.390	-178.283	
179.00	-27.146	-167.970	
180.00	-26.254	150.767	
181.00	-25.453	163.667	
182.00	-24.810	143.083	
183.00	-24.151	148.653	
184.00	-23.529	176.109	
185.00	-23.082	128.886	
186.00	-22.695	157.361	
187.00	-22.293	150.296	
188.00	-21.918	132.202	
189.00	-21.479	161.005	
190.00	-21.163	107.950	
191.00	-20.943	115.709	
192.00	-20.825	114.533	
193.00	-20.709	77.177	
194.00	-20.738	101.329	
195.00	-20.883	63.348	
196.00	-21.178	93.246	
197.00	-21.707	78.874	
198.00	-22.317	44.427	
199.00	-22.991	73.950	
200.00	-23.854	33.467	
201.00	-24.741	53.608	
202.00	-25.856	26.743	
203.00	-27.106	27.512	
204.00	-28.449	12.743	
205.00	-29.682	-1.593	
206.00	-30.845	-18.616	
207.00	-32.001	-26.468	
208.00	-33.592	-64.117	
209.00	-35.305	-55.023	
210.00	-37.518	-85.528	
211.00	-40.536	-85.855	
212.00	-46.189	-75.806	
213.00	-52.148	11.244	
214.00	-42.221	44.124	
215.00	-37.384	44.654	
216.00	-34.782	32.825	
217.00	-33.227	33.753	
218.00	-32.199	11.727	
219.00	-31.522	16.848	
220.00	-30.964	-10.728	
221.00	-30.585	-23.845	
222.00	-30.585	-48.560	
223.00	-30.801	-67.003	
224.00	-31.068	-77.429	
225.00	-31.298	-106.381	
226.00	-31.259	-120.633	
227.00	-31.194	-123.269	
228.00	-31.337	-156.107	
229.00	-31.810	-172.667	
230.00	-32.731	173.231	
231.00	-33.716	176.074	
232.00	-35.103	116.692	
233.00	-36.102	93.882	
234.00	-36.811	59.254	
235.00	-37.347	35.364	
236.00	-37.686	-7.465	
237.00	-38.017	-16.890	
238.00	-37.634	-41.645	
239.00	-36.881	-43.554	
240.00	-36.424	-110.501	
241.00	-35.703	-65.341	
242.00	-35.474	-73.356	
243.00	-35.871	-102.281	
244.00	-36.303	-86.639	
245.00	-37.194	-125.593	
246.00	-38.197	-121.779	
247.00	-39.697	-150.767	
248.00	-40.371	-157.836	
249.00	-40.505	-172.447	
250.00	-40.017	168.443	
251.00	-40.030	-149.340	
252.00	-39.574	148.212	
253.00	-39.376	148.058	
254.00	-39.708	164.085	
255.00	-40.677	114.089	
256.00	-41.523	141.399	
257.00	-43.862	99.078	
258.00	-46.313	80.906	
259.00	-47.711	54.761	
260.00	-48.009	7.222	
261.00	-46.425	-9.498	
262.00	-44.865	-38.981	
263.00	-44.144	-33.003	
264.00	-43.910	-60.041	
265.00	-43.959	-48.494	
266.00	-44.945	-67.932	
267.00	-46.375	-63.942	
268.00	-49.047	-67.974	
269.00	-51.019	-55.528	
270.00	-51.184	-23.123	
271.00	-49.224	-12.633	
272.00	-46.402	1.093	
273.00	-44.420	9.611	
274.00	-42.678	-7.320	
275.00	-41.241	-7.453	
276.00	-40.586	-12.369	
277.00	-40.232	-23.451	
278.00	-40.268	-14.715	
279.00	-40.663	-46.303	
280.00	-40.801	-13.851	
281.00	-42.244	-65.278	
282.00	-42.558	-29.774	
283.00	-44.360	-40.374	
284.00	-46.229	-41.010	
285.00	-49.461	-61.535	
286.00	-52.753	-27.125	
287.00	-57.659	-15.813	
288.00	-54.784	39.058	
289.00	-51.095	66.882	
290.00	-48.394	63.465	
291.00	-46.913	78.555	
292.00	-46.421	67.573	
293.00	-45.480	56.827	
294.00	-46.016	66.236	
295.00	-46.647	62.083	
296.00	-47.593	80.454	
297.00	-48.121	91.274	
298.00	-47.428	102.525	
299.00	-46.239	110.655	
300.00	-44.920	98.859	
301.00	-43.517	117.430	
302.00	-42.965	98.899	
303.00	-42.881	106.671	
304.00	-43.150	96.536	
305.00	-43.547	54.047	
306.00	-44.395	74.264	
307.00	-44.139	50.114	
308.00	-43.266	58.664	
309.00	-41.737	78.837	
310.00	-40.564	83.675	
311.00	-40.235	86.067	
312.00	-41.150	84.041	
313.00	-42.736	98.287	
314.00	-45.718	93.643	
315.00	-50.567	112.137	
316.00	-49.479	179.618	
317.00	-46.001	-171.546	
318.00	-43.479	-166.055	
319.00	-42.306	-158.954	
320.00	-41.851	-157.730	
321.00	-41.172	-132.888	
322.00	-40.440	-143.300	
323.00	-39.254	-123.543	
324.00	-38.116	-153.897	
325.00	-37.058	-159.083	
326.00	-36.595	-160.151	
327.00	-36.226	148.369	
328.00	-35.703	-142.832	
329.00	-35.094	-157.029	
330.00	-34.689	-150.360	
331.00	-34.671	-138.527	
332.00	-34.882	-130.423	
333.00	-35.382	-126.757	
334.00	-35.705	-127.932	
335.00	-35.943	-142.635	
336.00	-36.395	-123.927	
337.00	-36.710	-144.030	
338.00	-38.125	-117.564	
339.00	-38.590	-143.424	
340.00	-39.763	-134.447	
341.00	-40.419	-104.241	
342.00	-41.892	-68.505	
343.00	-41.588	-78.706	
344.00	-43.341	-25.563	
345.00	-42.687	-20.335	
346.00	-41.841	22.649	
347.00	-40.635	26.760	
348.00	-39.982	4.000	
349.00	-39.674	-28.116	
350.00	-39.487	-41.872	
351.00	-40.507	0.588	
352.00	-40.861	19.686	
353.00	-40.455	-15.783	
354.00	-41.573	33.201	
355.00	-41.634	39.463	
356.00	-41.090	40.200	
357.00	-40.645	68.220	
358.00	-39.553	67.611	
359.00	-39.673	104.973	
Frequency	2550.00	MHz	
Channel	test		
Scan Axis name	Azimuth  [deg]		
Scan Axis	Amplitude	Phase	
			
0.00	-34.874	-95.329	
1.00	-35.468	-63.922	
2.00	-36.238	-22.661	
3.00	-36.166	-30.398	
4.00	-36.039	-43.188	
5.00	-36.214	-52.760	
6.00	-37.019	-40.167	
7.00	-38.038	-33.228	
8.00	-38.613	-44.221	
9.00	-39.703	-28.911	
10.00	-40.734	-36.299	
11.00	-42.057	-26.228	
12.00	-43.195	-25.248	
13.00	-44.095	3.351	
14.00	-44.078	17.265	
15.00	-43.236	25.506	
16.00	-41.981	37.152	
17.00	-40.717	52.178	
18.00	-39.469	78.187	
19.00	-38.591	69.440	
20.00	-37.802	107.473	
21.00	-37.743	88.133	
22.00	-37.639	95.793	
23.00	-38.006	69.999	
24.00	-38.421	71.075	
25.00	-39.164	75.427	
26.00	-40.440	61.167	
27.00	-41.904	70.438	
28.00	-44.030	52.408	
29.00	-46.149	56.352	
30.00	-49.072	45.843	
31.00	-52.978	48.900	
32.00	-68.725	-15.195	
33.00	-54.562	-59.393	
34.00	-48.176	-64.263	
35.00	-43.973	-40.114	
36.00	-42.109	-50.171	
37.00	-40.986	-39.819	
38.00	-40.384	-61.442	
39.00	-39.500	-33.470	
40.00	-39.412	-0.419	
41.00	-39.783	-31.983	
42.00	-39.932	0.054	
43.00	-40.565	28.977	
44.00	-40.794	69.586	
45.00	-40.723	88.762	
46.00	-39.734	121.054	
47.00	-38.934	127.613	
48.00	-37.988	160.880	
49.00	-37.473	160.470	
50.00	-37.184	163.000	
51.00	-37.566	175.499	
52.00	-37.645	168.133	
53.00	-38.012	168.216	
54.00	-39.615	-147.608	
55.00	-40.284	-175.114	
56.00	-41.634	174.471	
57.00	-41.478	163.919	
58.00	-41.460	143.594	
59.00	-40.173	147.115	
60.00	-39.423	144.632	
61.00	-38.578	176.556	
62.00	-38.575	-150.144	
63.00	-38.782	-142.828	
64.00	-39.555	177.710	
65.00	-39.864	-129.008	
66.00	-41.032	-119.887	
67.00	-42.350	-79.196	
68.00	-42.308	-101.012	
69.00	-43.046	-71.090	
70.00	-43.115	-49.140	
71.00	-42.897	-72.783	
72.00	-43.466	19.980	
73.00	-43.990	-13.774	
74.00	-44.812	16.522	
75.00	-47.201	31.927	
76.00	-51.948	-15.677	
77.00	-60.705	62.221	
78.00	-56.680	161.258	
79.00	-49.858	162.475	
80.00	-45.295	-133.418	
81.00	-42.489	-126.069	
82.00	-40.885	-145.772	
83.00	-40.332	-114.236	
84.00	-39.467	-85.360	
85.00	-39.138	-77.076	
86.00	-39.567	-62.145	
87.00	-39.905	-94.745	
88.00	-41.554	-67.654	
89.00	-42.994	-103.087	
90.00	-44.437	-95.610	
91.00	-46.309	-108.035	
92.00	-44.779	-117.895	
93.00	-43.695	-94.554	
94.00	-41.371	-135.708	
95.00	-39.776	-91.939	
96.00	-38.283	-137.895	
97.00	-37.304	-63.154	
98.00	-36.588	-68.091	
99.00	-36.157	-55.694	
100.00	-36.012	-33.204	
101.00	-36.184	-37.694	
102.00	-36.439	-7.546	
103.00	-37.261	-6.572	
104.00	-38.401	7.169	
105.00	-39.767	22.940	
106.00	-41.670	28.983	
107.00	-43.780	49.183	
108.00	-45.116	90.714	
109.00	-44.966	118.678	
110.00	-43.676	162.829	
111.00	-41.770	-167.881	
112.00	-40.007	-154.262	
113.00	-38.510	-149.702	
114.00	-37.891	-101.723	
115.00	-37.111	-105.464	
116.00	-36.890	-92.713	
117.00	-36.923	-90.683	
118.00	-37.103	-117.547	
119.00	-37.951	-84.337	
120.00	-39.310	-94.249	
121.00	-40.777	-80.452	
122.00	-42.605	-47.507	
123.00	-45.356	-42.424	
124.00	-48.440	-58.011	
125.00	-49.938	-25.405	
126.00	-50.441	-8.718	
127.00	-49.616	32.810	
128.00	-49.268	50.204	
129.00	-47.807	107.205	
130.00	-46.871	123.590	
131.00	-45.954	144.761	
132.00	-45.586	158.654	
133.00	-46.469	169.276	
134.00	-48.187	164.258	
135.00	-56.470	176.062	
136.00	-59.073	94.304	
137.00	-48.344	64.797	
138.00	-44.131	55.181	
139.00	-41.528	49.102	
140.00	-38.924	79.657	
141.00	-37.420	84.441	
142.00	-36.492	108.174	
143.00	-36.153	112.512	
144.00	-35.882	94.894	
145.00	-35.905	135.526	
146.00	-36.074	136.992	
147.00	-36.481	121.776	
148.00	-37.451	151.813	
149.00	-38.271	135.491	
150.00	-39.842	168.757	
151.00	-40.321	144.936	
152.00	-41.539	164.775	
153.00	-42.118	173.308	
154.00	-42.300	165.104	
155.00	-42.742	174.661	
156.00	-43.109	178.448	
157.00	-43.593	-175.392	
158.00	-43.845	-171.853	
159.00	-44.108	-159.505	
160.00	-43.924	-151.968	
161.00	-44.027	-150.180	
162.00	-43.916	-176.305	
163.00	-44.448	166.085	
164.00	-45.684	152.158	
165.00	-47.372	147.571	
166.00	-49.205	140.542	
167.00	-49.078	103.848	
168.00	-47.608	86.163	
169.00	-45.861	70.651	
170.00	-43.542	46.682	
171.00	-40.843	33.819	
172.00	-37.927	42.613	
173.00	-35.696	13.213	
174.00	-33.280	50.241	
175.00	-31.293	30.437	
176.00	-29.550	37.128	
177.00	-28.067	35.463	
178.00	-26.787	19.593	
179.00	-25.742	29.463	
180.00	-25.009	-10.973	
181.00	-24.203	3.943	
182.00	-23.620	-16.730	
183.00	-22.959	-9.613	
184.00	-22.406	16.825	
185.00	-22.071	-30.133	
186.00	-21.745	0.353	
187.00	-21.531	-7.356	
188.00	-21.329	-23.165	
189.00	-21.030	4.888	
190.00	-20.900	-49.295	
191.00	-20.753	-40.441	
192.00	-20.712	-43.827	
193.00	-20.693	-80.516	
194.00	-20.819	-56.427	
195.00	-20.975	-95.456	
196.00	-21.235	-64.344	
197.00	-21.664	-80.211	
198.00	-22.215	-113.535	
199.00	-22.861	-83.031	
200.00	-23.751	-123.642	
201.00	-24.714	-102.028	
202.00	-25.897	-129.073	
203.00	-27.244	-126.207	
204.00	-28.872	-140.455	
205.00	-30.556	-154.785	
206.00	-32.182	-174.567	
207.00	-33.671	174.306	
208.00	-35.267	132.014	
209.00	-37.137	137.911	
210.00	-39.272	100.915	
211.00	-42.100	93.544	
212.00	-46.696	82.209	
213.00	-65.733	-20.515	
214.00	-45.769	-107.111	
215.00	-39.170	-118.808	
216.00	-35.632	-133.168	
217.00	-33.557	-132.592	
218.00	-32.240	-153.621	
219.00	-31.535	-147.044	
220.00	-30.997	-175.161	
221.00	-30.742	171.629	
222.00	-30.640	146.321	
223.00	-30.796	128.817	
224.00	-31.105	119.072	
225.00	-31.449	91.201	
226.00	-31.567	77.903	
227.00	-31.548	73.630	
228.00	-31.525	41.113	
229.00	-31.811	25.272	
230.00	-32.432	15.051	
231.00	-33.446	19.782	
232.00	-35.261	-32.458	
233.00	-37.217	-50.260	
234.00	-39.835	-81.693	
235.00	-42.222	-109.427	
236.00	-44.365	-164.541	
237.00	-45.469	169.438	
238.00	-43.047	129.934	
239.00	-41.068	124.228	
240.00	-38.627	61.256	
241.00	-37.228	105.090	
242.00	-36.439	95.914	
243.00	-36.058	71.123	
244.00	-36.033	88.449	
245.00	-36.657	51.710	
246.00	-37.177	60.133	
247.00	-38.175	34.676	
248.00	-38.559	33.366	
249.00	-38.967	19.056	
250.00	-38.976	5.204	
251.00	-38.506	45.573	
252.00	-39.200	-18.542	
253.00	-39.180	-20.986	
254.00	-39.387	-6.901	
255.00	-40.804	-62.723	
256.00	-41.447	-32.685	
257.00	-43.847	-84.696	
258.00	-45.864	-104.656	
259.00	-46.777	-133.773	
260.00	-46.099	-176.994	
261.00	-44.531	167.274	
262.00	-43.060	142.044	
263.00	-42.450	145.476	
264.00	-42.087	120.969	
265.00	-41.996	131.283	
266.00	-42.755	113.024	
267.00	-43.734	116.464	
268.00	-45.507	109.491	
269.00	-47.807	108.060	
270.00	-48.656	130.681	
271.00	-47.834	143.067	
272.00	-45.815	157.351	
273.00	-43.851	164.886	
274.00	-42.550	150.261	
275.00	-41.306	150.420	
276.00	-40.693	144.295	
277.00	-40.286	132.322	
278.00	-40.322	137.627	
279.00	-40.439	106.284	
280.00	-41.038	136.219	
281.00	-41.797	82.695	
282.00	-42.921	119.040	
283.00	-44.538	102.562	
284.00	-46.568	100.283	
285.00	-49.269	72.728	
286.00	-53.762	90.859	
287.00	-60.102	44.115	
288.00	-79.614	-40.204	
289.00	-58.506	-95.117	
290.00	-54.254	-104.504	
291.00	-51.446	-89.189	
292.00	-51.178	-104.353	
293.00	-50.487	-106.331	
294.00	-49.623	-92.127	
295.00	-49.260	-86.336	
296.00	-48.281	-62.470	
297.00	-46.752	-59.371	
298.00	-45.363	-61.569	
299.00	-44.037	-65.781	
300.00	-43.499	-83.068	
301.00	-43.221	-74.022	
302.00	-43.592	-93.841	
303.00	-44.592	-89.884	
304.00	-46.956	-95.442	
305.00	-50.316	-121.142	
306.00	-50.570	-82.604	
307.00	-48.005	-88.943	
308.00	-44.730	-86.083	
309.00	-42.665	-73.877	
310.00	-41.642	-74.568	
311.00	-41.699	-77.328	
312.00	-42.021	-79.831	
313.00	-43.590	-67.139	
314.00	-46.096	-76.212	
315.00	-49.286	-74.220	
316.00	-56.625	-27.122	
317.00	-57.210	16.036	
318.00	-52.372	64.007	
319.00	-47.703	80.301	
320.00	-43.863	82.498	
321.00	-40.417	102.258	
322.00	-38.648	79.707	
323.00	-36.854	91.640	
324.00	-36.390	48.077	
325.00	-35.744	36.349	
326.00	-35.538	27.849	
327.00	-35.380	-34.405	
328.00	-35.484	40.316	
329.00	-35.747	18.425	
330.00	-35.914	25.507	
331.00	-36.335	37.152	
332.00	-37.235	48.067	
333.00	-38.256	52.830	
334.00	-38.798	55.917	
335.00	-39.116	41.354	
336.00	-39.227	64.695	
337.00	-39.502	41.550	
338.00	-40.037	72.565	
339.00	-40.988	35.692	
340.00	-42.021	45.232	
341.00	-43.160	66.411	
342.00	-44.940	101.429	
343.00	-48.124	83.326	
344.00	-52.375	138.067	
345.00	-55.085	176.313	
346.00	-52.209	-128.964	
347.00	-49.938	-124.431	
348.00	-48.298	-130.909	
349.00	-46.003	-147.123	
350.00	-44.744	-149.070	
351.00	-44.153	-98.194	
352.00	-43.523	-71.960	
353.00	-41.411	-107.320	
354.00	-41.574	-48.255	
355.00	-39.710	-54.309	
356.00	-38.093	-64.865	
357.00	-37.529	-46.231	
358.00	-36.638	-55.364	
359.00	-37.056	-19.102	
Frequency	2575.00	MHz	
Channel	test		
Scan Axis name	Azimuth  [deg]		
Scan Axis	Amplitude	Phase	
			
0.00	-31.449	83.309	
1.00	-31.839	116.899	
2.00	-32.213	157.392	
3.00	-32.481	151.956	
4.00	-32.683	141.835	
5.00	-33.051	133.345	
6.00	-33.527	145.758	
7.00	-34.092	152.180	
8.00	-34.863	141.576	
9.00	-35.738	155.537	
10.00	-36.887	147.174	
11.00	-38.272	152.896	
12.00	-39.683	148.452	
13.00	-41.058	166.069	
14.00	-42.251	176.277	
15.00	-42.763	-176.961	
16.00	-42.473	-164.767	
17.00	-41.849	-147.472	
18.00	-40.748	-123.882	
19.00	-40.182	-130.715	
20.00	-39.779	-96.373	
21.00	-39.813	-115.392	
22.00	-40.137	-110.745	
23.00	-40.832	-133.286	
24.00	-41.761	-132.612	
25.00	-43.136	-127.592	
26.00	-45.189	-136.613	
27.00	-47.164	-122.320	
28.00	-49.069	-124.101	
29.00	-51.211	-112.001	
30.00	-52.034	-101.548	
31.00	-54.448	-84.252	
32.00	-54.218	-74.260	
33.00	-59.924	25.277	
34.00	-51.894	75.294	
35.00	-46.753	114.178	
36.00	-45.161	108.133	
37.00	-43.389	124.618	
38.00	-42.633	105.202	
39.00	-41.068	135.944	
40.00	-40.292	167.141	
41.00	-40.224	134.754	
42.00	-39.295	166.815	
43.00	-39.418	-170.757	
44.00	-39.259	-135.273	
45.00	-39.311	-122.980	
46.00	-39.104	-97.647	
47.00	-38.821	-93.671	
48.00	-38.494	-59.312	
49.00	-38.277	-57.835	
50.00	-37.953	-52.990	
51.00	-38.071	-38.445	
52.00	-38.152	-42.844	
53.00	-38.517	-37.329	
54.00	-39.416	10.658	
55.00	-40.482	-14.286	
56.00	-41.149	-22.221	
57.00	-41.192	-26.781	
58.00	-41.134	-47.173	
59.00	-40.722	-38.951	
60.00	-40.159	-40.267	
61.00	-39.799	-1.634	
62.00	-39.583	34.171	
63.00	-39.766	39.842	
64.00	-39.881	-4.316	
65.00	-40.465	53.268	
66.00	-39.895	64.313	
67.00	-40.306	107.089	
68.00	-39.809	75.449	
69.00	-40.063	101.874	
70.00	-40.039	116.979	
71.00	-39.615	91.046	
72.00	-40.573	176.019	
73.00	-40.620	131.042	
74.00	-41.858	155.331	
75.00	-43.509	157.723	
76.00	-45.038	95.934	
77.00	-46.685	124.567	
78.00	-46.209	60.865	
79.00	-44.373	33.891	
80.00	-41.280	77.221	
81.00	-39.864	76.178	
82.00	-38.954	50.451	
83.00	-38.155	83.642	
84.00	-37.670	106.882	
85.00	-37.834	115.577	
86.00	-37.928	126.898	
87.00	-38.907	97.674	
88.00	-40.310	123.701	
89.00	-42.033	87.959	
90.00	-45.020	102.263	
91.00	-48.031	83.443	
92.00	-47.381	63.201	
93.00	-44.597	73.701	
94.00	-41.891	39.137	
95.00	-39.741	77.488	
96.00	-38.677	36.969	
97.00	-37.107	107.403	
98.00	-36.319	102.616	
99.00	-35.882	114.835	
100.00	-35.910	135.193	
101.00	-36.170	132.232	
102.00	-36.853	159.450	
103.00	-37.760	159.321	
104.00	-39.387	169.177	
105.00	-41.655	-177.851	
106.00	-45.525	-176.855	
107.00	-51.517	-161.068	
108.00	-56.856	-31.064	
109.00	-48.374	3.847	
110.00	-43.159	31.740	
111.00	-40.177	49.561	
112.00	-38.424	57.446	
113.00	-37.273	58.450	
114.00	-36.111	104.854	
115.00	-35.896	100.327	
116.00	-35.632	113.694	
117.00	-35.990	115.877	
118.00	-36.775	94.328	
119.00	-37.270	128.269	
120.00	-38.416	120.386	
121.00	-39.648	138.101	
122.00	-40.955	172.000	
123.00	-41.822	178.912	
124.00	-42.561	159.516	
125.00	-44.001	-171.892	
126.00	-44.789	-155.180	
127.00	-45.392	-125.196	
128.00	-45.352	-102.634	
129.00	-44.886	-54.545	
130.00	-44.467	-40.608	
131.00	-44.711	-23.754	
132.00	-46.201	-4.056	
133.00	-49.066	13.400	
134.00	-55.617	2.380	
135.00	-57.564	-149.061	
136.00	-48.384	-153.934	
137.00	-43.531	-124.372	
138.00	-40.818	-125.270	
139.00	-39.336	-127.776	
140.00	-38.162	-95.883	
141.00	-37.627	-90.803	
142.00	-37.373	-64.824	
143.00	-37.462	-61.092	
144.00	-37.709	-82.017	
145.00	-38.561	-40.922	
146.00	-39.819	-43.933	
147.00	-41.230	-61.234	
148.00	-43.999	-36.142	
149.00	-46.471	-57.209	
150.00	-50.407	-28.416	
151.00	-51.599	-55.022	
152.00	-53.789	-31.427	
153.00	-53.075	-15.326	
154.00	-52.594	-17.725	
155.00	-51.658	0.983	
156.00	-50.717	18.085	
157.00	-48.245	31.085	
158.00	-46.145	36.362	
159.00	-44.236	51.215	
160.00	-43.285	57.434	
161.00	-42.751	65.701	
162.00	-43.533	48.525	
163.00	-44.700	41.867	
164.00	-45.877	42.989	
165.00	-46.023	59.519	
166.00	-46.770	83.398	
167.00	-48.102	102.213	
168.00	-47.082	139.916	
169.00	-44.606	172.049	
170.00	-41.605	-178.968	
171.00	-39.165	-171.266	
172.00	-37.390	-148.882	
173.00	-35.047	-170.515	
174.00	-33.412	-126.794	
175.00	-31.575	-144.877	
176.00	-30.091	-134.496	
177.00	-28.719	-134.852	
178.00	-27.448	-149.891	
179.00	-26.345	-139.009	
180.00	-25.300	-179.248	
181.00	-24.518	-162.477	
182.00	-23.847	176.004	
183.00	-23.303	-175.176	
184.00	-22.829	-148.664	
185.00	-22.411	164.189	
186.00	-22.092	-162.687	
187.00	-21.841	-171.609	
188.00	-21.650	175.078	
189.00	-21.447	-157.312	
190.00	-21.335	147.863	
191.00	-21.219	158.607	
192.00	-21.262	153.948	
193.00	-21.292	119.055	
194.00	-21.495	143.105	
195.00	-21.746	104.151	
196.00	-22.052	135.771	
197.00	-22.503	118.164	
198.00	-23.035	86.281	
199.00	-23.758	117.000	
200.00	-24.692	76.714	
201.00	-25.689	99.776	
202.00	-26.923	72.619	
203.00	-28.280	77.966	
204.00	-30.042	65.509	
205.00	-32.281	55.103	
206.00	-35.031	38.749	
207.00	-38.176	27.421	
208.00	-42.388	-22.420	
209.00	-46.711	-30.920	
210.00	-49.028	-113.387	
211.00	-46.794	-145.323	
212.00	-45.230	-165.368	
213.00	-44.710	156.305	
214.00	-43.359	123.467	
215.00	-40.424	91.440	
216.00	-37.506	64.385	
217.00	-35.255	59.626	
218.00	-33.771	35.848	
219.00	-32.958	41.374	
220.00	-32.331	12.006	
221.00	-31.896	-0.770	
222.00	-31.561	-26.136	
223.00	-31.512	-42.015	
224.00	-31.761	-49.898	
225.00	-32.153	-75.677	
226.00	-32.566	-87.431	
227.00	-32.994	-92.420	
228.00	-32.995	-125.158	
229.00	-33.240	-141.783	
230.00	-33.743	-151.166	
231.00	-34.552	-146.581	
232.00	-36.214	163.978	
233.00	-38.095	151.810	
234.00	-40.529	127.186	
235.00	-43.851	109.170	
236.00	-48.405	68.635	
237.00	-53.521	32.629	
238.00	-52.240	-47.084	
239.00	-46.414	-63.409	
240.00	-42.372	-131.696	
241.00	-39.825	-83.323	
242.00	-39.127	-94.313	
243.00	-37.826	-117.476	
244.00	-37.552	-100.546	
245.00	-37.517	-138.351	
246.00	-37.677	-129.503	
247.00	-37.915	-157.107	
248.00	-38.260	-155.724	
249.00	-39.169	-169.812	
250.00	-39.085	177.383	
251.00	-39.122	-143.373	
252.00	-39.010	151.205	
253.00	-39.168	150.695	
254.00	-39.679	161.815	
255.00	-40.854	111.740	
256.00	-42.065	136.490	
257.00	-44.443	89.850	
258.00	-46.982	70.429	
259.00	-48.350	41.337	
260.00	-47.966	-8.805	
261.00	-46.254	-25.735	
262.00	-44.477	-54.243	
263.00	-43.682	-45.611	
264.00	-43.160	-74.639	
265.00	-43.146	-62.466	
266.00	-44.052	-84.026	
267.00	-45.149	-81.787	
268.00	-47.297	-93.750	
269.00	-48.258	-98.229	
270.00	-50.512	-84.475	
271.00	-50.834	-62.857	
272.00	-48.381	-42.867	
273.00	-45.904	-32.373	
274.00	-44.469	-47.908	
275.00	-42.777	-45.654	
276.00	-42.484	-53.913	
277.00	-42.003	-64.451	
278.00	-42.369	-60.608	
279.00	-42.474	-92.824	
280.00	-43.155	-63.163	
281.00	-44.065	-119.837	
282.00	-46.006	-84.745	
283.00	-47.353	-101.173	
284.00	-50.387	-114.953	
285.00	-53.312	-148.673	
286.00	-59.816	-149.576	
287.00	-65.204	99.837	
288.00	-59.075	60.193	
289.00	-54.703	59.202	
290.00	-52.829	48.418	
291.00	-51.747	53.395	
292.00	-51.534	39.278	
293.00	-54.034	12.291	
294.00	-56.491	27.477	
295.00	-60.557	50.441	
296.00	-62.388	111.066	
297.00	-54.824	131.506	
298.00	-50.605	129.062	
299.00	-48.075	121.347	
300.00	-46.650	96.970	
301.00	-46.017	101.752	
302.00	-46.576	76.030	
303.00	-47.901	73.832	
304.00	-50.718	53.615	
305.00	-54.973	-14.569	
306.00	-80.127	19.140	
307.00	-58.423	120.359	
308.00	-50.954	114.944	
309.00	-47.480	124.351	
310.00	-46.721	119.084	
311.00	-46.270	117.142	
312.00	-46.793	117.541	
313.00	-47.974	134.485	
314.00	-49.575	127.221	
315.00	-52.619	130.858	
316.00	-53.959	162.464	
317.00	-57.744	-174.683	
318.00	-52.351	-124.747	
319.00	-47.159	-101.264	
320.00	-42.767	-102.028	
321.00	-40.044	-85.484	
322.00	-37.592	-108.937	
323.00	-36.291	-97.019	
324.00	-35.208	-140.906	
325.00	-34.652	-152.039	
326.00	-34.438	-160.209	
327.00	-34.248	141.183	
328.00	-34.598	-147.268	
329.00	-34.870	-171.322	
330.00	-35.416	-162.514	
331.00	-36.360	-150.618	
332.00	-37.394	-136.762	
333.00	-38.088	-129.694	
334.00	-38.145	-125.510	
335.00	-37.808	-140.261	
336.00	-38.211	-118.071	
337.00	-38.238	-142.235	
338.00	-39.320	-111.883	
339.00	-39.436	-152.297	
340.00	-40.190	-148.570	
341.00	-42.493	-130.072	
342.00	-45.850	-102.033	
343.00	-50.859	-131.116	
344.00	-74.057	10.640	
345.00	-53.034	79.746	
346.00	-47.956	110.415	
347.00	-44.917	113.865	
348.00	-42.512	101.199	
349.00	-40.060	68.946	
350.00	-38.517	58.919	
351.00	-36.886	96.474	
352.00	-36.001	115.265	
353.00	-34.930	76.673	
354.00	-34.298	127.214	
355.00	-33.345	118.674	
356.00	-32.760	110.604	
357.00	-32.520	128.072	
358.00	-32.293	121.835	
359.00	-32.360	155.887	
Frequency	2600.00	MHz	
Channel	test		
Scan Axis name	Azimuth  [deg]		
Scan Axis	Amplitude	Phase	
			
0.00	-30.840	-105.108	
1.00	-31.282	-72.345	
2.00	-31.953	-34.595	
3.00	-32.285	-39.482	
4.00	-32.625	-50.005	
5.00	-32.988	-57.547	
6.00	-33.769	-46.224	
7.00	-34.539	-42.517	
8.00	-35.469	-55.751	
9.00	-36.645	-44.270	
10.00	-37.845	-56.368	
11.00	-39.391	-55.088	
12.00	-40.977	-65.537	
13.00	-42.894	-54.694	
14.00	-45.063	-55.538	
15.00	-47.266	-56.100	
16.00	-49.558	-44.321	
17.00	-50.936	-9.810	
18.00	-49.911	29.842	
19.00	-49.141	35.774	
20.00	-48.093	74.194	
21.00	-48.411	66.814	
22.00	-48.716	79.799	
23.00	-49.053	68.409	
24.00	-49.301	79.506	
25.00	-49.406	95.385	
26.00	-48.960	97.232	
27.00	-49.130	115.371	
28.00	-49.739	106.448	
29.00	-51.240	119.884	
30.00	-53.143	114.778	
31.00	-57.285	150.071	
32.00	-54.474	159.643	
33.00	-51.962	-127.096	
34.00	-48.011	-105.128	
35.00	-45.563	-72.672	
36.00	-44.069	-79.918	
37.00	-42.870	-66.364	
38.00	-42.372	-85.180	
39.00	-41.483	-60.627	
40.00	-40.487	-32.849	
41.00	-40.310	-69.994	
42.00	-39.982	-41.425	
43.00	-40.101	-23.414	
44.00	-40.574	5.583	
45.00	-41.322	15.820	
46.00	-41.457	37.218	
47.00	-41.727	43.088	
48.00	-41.422	81.314	
49.00	-41.266	83.586	
50.00	-40.499	95.024	
51.00	-39.901	111.781	
52.00	-39.586	110.519	
53.00	-39.475	119.017	
54.00	-39.445	170.951	
55.00	-40.013	146.844	
56.00	-40.174	145.126	
57.00	-40.123	143.151	
58.00	-40.155	125.661	
59.00	-39.527	136.813	
60.00	-38.895	137.343	
61.00	-38.571	172.137	
62.00	-38.254	-151.018	
63.00	-37.976	-149.778	
64.00	-37.869	160.959	
65.00	-37.517	-143.312	
66.00	-37.349	-137.126	
67.00	-37.157	-98.843	
68.00	-36.678	-135.530	
69.00	-36.624	-107.861	
70.00	-36.480	-98.617	
71.00	-36.536	-123.146	
72.00	-36.984	-42.230	
73.00	-37.262	-87.508	
74.00	-38.168	-65.014	
75.00	-39.045	-64.764	
76.00	-39.649	-124.405	
77.00	-39.921	-85.754	
78.00	-39.533	-141.311	
79.00	-38.511	-160.537	
80.00	-37.239	-112.202	
81.00	-36.407	-112.608	
82.00	-35.770	-138.100	
83.00	-35.129	-103.668	
84.00	-34.947	-78.454	
85.00	-35.173	-69.053	
86.00	-35.517	-56.944	
87.00	-36.619	-84.166	
88.00	-37.933	-51.864	
89.00	-39.957	-88.088	
90.00	-42.869	-58.785	
91.00	-46.727	-63.677	
92.00	-53.711	-93.068	
93.00	-49.233	-117.487	
94.00	-43.993	-161.974	
95.00	-40.580	-117.999	
96.00	-38.706	-160.031	
97.00	-36.997	-85.176	
98.00	-36.272	-90.068	
99.00	-35.694	-75.663	
100.00	-35.618	-53.691	
101.00	-35.778	-57.358	
102.00	-36.551	-27.398	
103.00	-37.534	-27.308	
104.00	-39.246	-14.714	
105.00	-41.677	-1.057	
106.00	-46.196	3.968	
107.00	-52.393	36.886	
108.00	-50.802	159.623	
109.00	-45.163	174.621	
110.00	-41.024	-156.007	
111.00	-38.791	-137.662	
112.00	-37.211	-130.961	
113.00	-36.072	-127.583	
114.00	-35.760	-81.260	
115.00	-35.479	-87.210	
116.00	-35.722	-70.273	
117.00	-36.129	-69.968	
118.00	-36.708	-89.764	
119.00	-37.907	-53.795	
120.00	-39.162	-58.793	
121.00	-40.625	-40.782	
122.00	-42.574	-1.687	
123.00	-45.141	7.493	
124.00	-48.172	-10.987	
125.00	-50.119	50.174	
126.00	-48.586	77.937	
127.00	-45.058	118.851	
128.00	-43.230	134.348	
129.00	-40.935	170.207	
130.00	-40.698	179.082	
131.00	-41.069	-166.296	
132.00	-42.770	-149.083	
133.00	-46.227	-122.381	
134.00	-50.068	-86.833	
135.00	-47.597	7.936	
136.00	-43.412	-0.097	
137.00	-40.585	49.155	
138.00	-38.853	50.636	
139.00	-37.792	52.081	
140.00	-37.299	91.105	
141.00	-37.391	100.314	
142.00	-37.654	128.210	
143.00	-38.438	134.548	
144.00	-40.011	116.185	
145.00	-41.469	165.840	
146.00	-44.129	172.840	
147.00	-47.072	174.880	
148.00	-48.569	-131.809	
149.00	-48.732	-128.075	
150.00	-47.268	-94.334	
151.00	-47.014	-123.161	
152.00	-45.802	-115.177	
153.00	-44.640	-119.472	
154.00	-43.300	-133.289	
155.00	-41.717	-124.077	
156.00	-40.161	-122.988	
157.00	-38.715	-119.578	
158.00	-37.670	-121.910	
159.00	-36.963	-110.167	
160.00	-36.497	-106.152	
161.00	-36.387	-96.952	
162.00	-36.504	-113.935	
163.00	-36.964	-119.526	
164.00	-37.353	-120.499	
165.00	-37.918	-109.585	
166.00	-38.635	-92.616	
167.00	-39.798	-90.187	
168.00	-40.579	-64.869	
169.00	-40.757	-38.625	
170.00	-40.133	-18.383	
171.00	-39.002	0.872	
172.00	-37.554	32.452	
173.00	-35.706	18.518	
174.00	-33.995	66.270	
175.00	-31.905	49.635	
176.00	-30.350	61.269	
177.00	-28.935	61.675	
178.00	-27.618	46.865	
179.00	-26.477	56.857	
180.00	-25.382	15.664	
181.00	-24.478	33.697	
182.00	-23.711	11.753	
183.00	-23.096	22.113	
184.00	-22.627	48.855	
185.00	-22.163	1.152	
186.00	-21.847	36.011	
187.00	-21.552	25.531	
188.00	-21.358	14.284	
189.00	-21.258	41.668	
190.00	-21.195	-13.801	
191.00	-21.185	-1.188	
192.00	-21.244	-7.594	
193.00	-21.222	-41.199	
194.00	-21.419	-16.986	
195.00	-21.713	-55.778	
196.00	-22.072	-23.090	
197.00	-22.561	-41.856	
198.00	-23.084	-72.692	
199.00	-23.718	-41.308	
200.00	-24.615	-81.503	
201.00	-25.528	-57.159	
202.00	-26.653	-84.510	
203.00	-27.875	-77.039	
204.00	-29.306	-88.570	
205.00	-31.182	-93.280	
206.00	-33.547	-102.286	
207.00	-36.404	-100.218	
208.00	-40.258	-125.798	
209.00	-44.359	-89.314	
210.00	-47.210	-75.195	
211.00	-45.220	-33.973	
212.00	-42.979	-19.951	
213.00	-41.925	-32.038	
214.00	-41.575	-44.699	
215.00	-41.289	-66.684	
216.00	-39.751	-99.011	
217.00	-38.081	-109.441	
218.00	-36.261	-136.749	
219.00	-35.147	-132.962	
220.00	-33.924	-163.061	
221.00	-33.045	-175.072	
222.00	-32.278	160.504	
223.00	-31.832	147.476	
224.00	-31.721	141.823	
225.00	-31.987	118.841	
226.00	-32.474	111.894	
227.00	-33.011	108.812	
228.00	-33.560	77.152	
229.00	-33.978	59.633	
230.00	-34.503	49.885	
231.00	-35.151	53.678	
232.00	-36.546	1.028	
233.00	-37.924	-12.124	
234.00	-39.567	-38.680	
235.00	-41.777	-58.355	
236.00	-44.507	-96.551	
237.00	-47.395	-104.648	
238.00	-51.794	-143.382	
239.00	-51.309	163.249	
240.00	-47.526	65.289	
241.00	-44.050	106.761	
242.00	-41.791	91.891	
243.00	-39.913	66.466	
244.00	-39.083	78.617	
245.00	-38.935	40.192	
246.00	-39.128	48.164	
247.00	-39.744	20.921	
248.00	-40.052	21.158	
249.00	-40.925	5.949	
250.00	-41.642	-9.322	
251.00	-41.887	28.103	
252.00	-41.863	-44.282	
253.00	-42.075	-44.431	
254.00	-42.857	-36.223	
255.00	-43.608	-88.559	
256.00	-45.260	-63.882	
257.00	-47.785	-119.416	
258.00	-50.100	-142.245	
259.00	-50.580	-178.836	
260.00	-49.251	135.862	
261.00	-47.303	120.189	
262.00	-45.853	94.410	
263.00	-45.143	102.577	
264.00	-45.213	72.872	
265.00	-45.987	85.527	
266.00	-47.217	62.089	
267.00	-50.005	60.526	
268.00	-55.351	41.993	
269.00	-80.712	70.926	
270.00	-55.873	-175.119	
271.00	-50.285	177.616	
272.00	-47.358	170.660	
273.00	-45.179	170.870	
274.00	-44.334	148.927	
275.00	-43.682	146.377	
276.00	-43.443	135.383	
277.00	-43.747	125.997	
278.00	-44.581	125.774	
279.00	-46.038	97.487	
280.00	-47.281	122.236	
281.00	-51.331	67.959	
282.00	-54.123	106.013	
283.00	-64.752	81.589	
284.00	-63.560	-108.069	
285.00	-54.804	-121.664	
286.00	-50.629	-101.137	
287.00	-48.011	-146.277	
288.00	-46.663	-139.118	
289.00	-45.897	-127.809	
290.00	-45.478	-141.625	
291.00	-45.674	-131.556	
292.00	-46.838	-148.564	
293.00	-47.510	-167.324	
294.00	-49.817	-162.975	
295.00	-53.890	-175.191	
296.00	-60.188	-152.138	
297.00	-64.129	-74.649	
298.00	-56.651	-47.084	
299.00	-54.013	-51.811	
300.00	-52.156	-76.133	
301.00	-51.394	-69.092	
302.00	-52.839	-96.763	
303.00	-57.394	-96.057	
304.00	-66.830	-116.133	
305.00	-63.569	43.722	
306.00	-54.898	13.186	
307.00	-51.594	-23.573	
308.00	-49.798	-34.735	
309.00	-49.859	-34.687	
310.00	-50.481	-46.086	
311.00	-51.820	-45.083	
312.00	-53.823	-28.293	
313.00	-55.518	-4.044	
314.00	-55.625	1.139	
315.00	-54.608	7.704	
316.00	-55.445	25.520	
317.00	-54.973	19.175	
318.00	-53.926	59.125	
319.00	-50.216	77.764	
320.00	-46.233	77.782	
321.00	-43.685	90.735	
322.00	-41.274	65.755	
323.00	-39.924	77.056	
324.00	-38.498	31.738	
325.00	-37.645	21.183	
326.00	-37.229	12.364	
327.00	-36.660	-44.577	
328.00	-37.302	27.934	
329.00	-37.254	3.819	
330.00	-37.831	14.592	
331.00	-38.456	28.810	
332.00	-38.847	44.929	
333.00	-38.480	51.093	
334.00	-38.052	51.524	
335.00	-37.550	32.829	
336.00	-37.905	51.880	
337.00	-38.048	24.336	
338.00	-39.199	50.526	
339.00	-39.712	7.187	
340.00	-41.401	8.961	
341.00	-43.515	21.588	
342.00	-48.199	36.461	
343.00	-52.136	-10.167	
344.00	-51.386	-56.158	
345.00	-47.094	-79.756	
346.00	-43.574	-57.146	
347.00	-41.378	-57.466	
348.00	-39.355	-72.091	
349.00	-37.924	-107.340	
350.00	-36.482	-115.559	
351.00	-34.898	-80.974	
352.00	-33.812	-64.705	
353.00	-32.956	-104.974	
354.00	-32.370	-57.300	
355.00	-31.712	-68.853	
356.00	-31.286	-75.408	
357.00	-31.206	-60.680	
358.00	-31.157	-65.429	
359.00	-31.483	-35.715	
Frequency	2625.00	MHz	
Channel	test		
Scan Axis name	Azimuth  [deg]		
Scan Axis	Amplitude	Phase	
			
0.00	-29.636	83.064	
1.00	-30.224	118.311	
2.00	-31.108	155.983	
3.00	-31.654	151.168	
4.00	-32.107	141.287	
5.00	-32.719	133.705	
6.00	-33.644	145.811	
7.00	-34.782	150.302	
8.00	-36.254	141.358	
9.00	-37.890	155.741	
10.00	-39.752	145.939	
11.00	-41.876	150.226	
12.00	-44.741	143.670	
13.00	-47.798	150.633	
14.00	-51.039	153.737	
15.00	-56.466	162.516	
16.00	-61.565	-155.114	
17.00	-62.557	-86.422	
18.00	-58.826	-50.995	
19.00	-54.372	-74.434	
20.00	-53.137	-19.983	
21.00	-50.446	-44.489	
22.00	-49.748	-28.910	
23.00	-47.761	-49.506	
24.00	-46.972	-43.724	
25.00	-46.138	-36.195	
26.00	-45.216	-47.528	
27.00	-44.770	-31.345	
28.00	-44.320	-45.782	
29.00	-44.467	-26.526	
30.00	-45.035	-22.489	
31.00	-44.236	5.941	
32.00	-43.888	-7.691	
33.00	-42.685	47.509	
34.00	-41.889	68.294	
35.00	-40.932	102.754	
36.00	-40.368	97.630	
37.00	-40.017	113.185	
38.00	-40.648	94.818	
39.00	-40.863	122.063	
40.00	-41.217	148.226	
41.00	-42.867	107.769	
42.00	-43.150	129.807	
43.00	-44.113	141.895	
44.00	-44.465	160.837	
45.00	-45.107	165.731	
46.00	-44.939	177.930	
47.00	-45.583	-179.912	
48.00	-43.953	-143.796	
49.00	-43.519	-142.913	
50.00	-42.227	-129.128	
51.00	-40.694	-111.280	
52.00	-39.810	-111.052	
53.00	-39.438	-100.596	
54.00	-39.395	-46.793	
55.00	-39.466	-70.124	
56.00	-39.921	-68.916	
57.00	-40.251	-67.846	
58.00	-40.514	-84.650	
59.00	-40.805	-71.690	
60.00	-40.872	-71.906	
61.00	-41.538	-36.079	
62.00	-42.175	-4.095	
63.00	-42.027	-7.797	
64.00	-41.592	-55.206	
65.00	-41.803	-0.175	
66.00	-41.120	5.703	
67.00	-40.788	44.934	
68.00	-38.962	9.267	
69.00	-38.691	43.067	
70.00	-37.710	51.975	
71.00	-36.930	31.830	
72.00	-37.339	120.079	
73.00	-36.970	74.335	
74.00	-37.399	103.857	
75.00	-37.795	108.139	
76.00	-38.322	52.421	
77.00	-39.128	98.427	
78.00	-39.751	42.517	
79.00	-39.100	20.236	
80.00	-38.807	63.567	
81.00	-37.864	59.601	
82.00	-36.649	31.466	
83.00	-35.966	63.375	
84.00	-35.755	88.334	
85.00	-35.427	95.609	
86.00	-35.593	106.578	
87.00	-36.066	76.458	
88.00	-36.992	111.211	
89.00	-38.229	70.805	
90.00	-39.657	102.005	
91.00	-41.923	99.362	
92.00	-44.929	108.787	
93.00	-46.802	119.201	
94.00	-46.901	52.888	
95.00	-44.492	79.968	
96.00	-42.086	22.926	
97.00	-40.401	99.013	
98.00	-39.050	87.599	
99.00	-38.046	102.468	
100.00	-37.532	120.395	
101.00	-37.629	115.213	
102.00	-37.905	142.560	
103.00	-38.488	138.494	
104.00	-39.417	146.982	
105.00	-41.036	153.730	
106.00	-43.156	149.297	
107.00	-46.833	147.195	
108.00	-50.636	144.884	
109.00	-54.148	98.795	
110.00	-49.747	77.163	
111.00	-46.594	73.508	
112.00	-44.503	72.856	
113.00	-43.368	73.046	
114.00	-42.780	114.736	
115.00	-43.030	108.429	
116.00	-43.850	125.391	
117.00	-44.864	125.985	
118.00	-47.531	114.273	
119.00	-49.810	156.673	
120.00	-53.782	-178.481	
121.00	-52.366	-119.143	
122.00	-47.659	-60.206	
123.00	-44.572	-57.230	
124.00	-41.890	-87.710	
125.00	-39.927	-63.401	
126.00	-38.201	-65.257	
127.00	-37.286	-43.910	
128.00	-36.525	-35.973	
129.00	-36.199	2.830	
130.00	-36.333	9.392	
131.00	-36.823	23.784	
132.00	-37.653	46.371	
133.00	-38.989	66.762	
134.00	-40.431	80.694	
135.00	-41.479	136.821	
136.00	-41.734	135.125	
137.00	-41.566	-169.508	
138.00	-40.629	-160.663	
139.00	-40.335	-147.407	
140.00	-40.449	-107.014	
141.00	-41.003	-90.478	
142.00	-42.059	-57.041	
143.00	-43.726	-43.102	
144.00	-45.614	-54.129	
145.00	-47.641	16.324	
146.00	-48.912	37.345	
147.00	-48.912	49.364	
148.00	-47.961	88.914	
149.00	-47.277	76.079	
150.00	-47.263	95.648	
151.00	-47.258	48.629	
152.00	-44.691	44.748	
153.00	-41.713	38.427	
154.00	-39.207	22.476	
155.00	-37.026	34.203	
156.00	-35.266	35.577	
157.00	-33.941	41.925	
158.00	-33.007	39.471	
159.00	-32.400	53.453	
160.00	-31.947	58.080	
161.00	-31.862	67.460	
162.00	-31.820	48.350	
163.00	-32.005	41.416	
164.00	-32.372	39.523	
165.00	-32.993	48.610	
166.00	-33.853	64.173	
167.00	-34.818	59.771	
168.00	-36.309	76.581	
169.00	-37.998	96.051	
170.00	-39.780	112.139	
171.00	-41.356	139.639	
172.00	-40.572	-167.018	
173.00	-38.983	-166.550	
174.00	-35.789	-111.410	
175.00	-33.195	-123.153	
176.00	-31.202	-108.514	
177.00	-29.389	-106.219	
178.00	-27.878	-118.157	
179.00	-26.486	-106.898	
180.00	-25.321	-147.537	
181.00	-24.216	-127.786	
182.00	-23.335	-150.861	
183.00	-22.632	-138.172	
184.00	-22.001	-111.205	
185.00	-21.627	-158.877	
186.00	-21.226	-121.563	
187.00	-20.967	-133.542	
188.00	-20.802	-142.713	
189.00	-20.579	-115.552	
190.00	-20.655	-171.155	
191.00	-20.671	-156.114	
192.00	-20.789	-164.055	
193.00	-20.854	163.026	
194.00	-21.059	-172.776	
195.00	-21.377	148.013	
196.00	-21.784	-177.240	
197.00	-22.342	162.674	
198.00	-22.852	132.321	
199.00	-23.545	164.247	
200.00	-24.333	122.858	
201.00	-25.300	148.647	
202.00	-26.362	119.836	
203.00	-27.659	128.365	
204.00	-28.917	115.146	
205.00	-30.479	111.004	
206.00	-32.307	101.190	
207.00	-34.483	103.217	
208.00	-37.307	75.813	
209.00	-40.348	103.478	
210.00	-43.404	95.925	
211.00	-45.056	135.176	
212.00	-43.967	162.460	
213.00	-42.182	161.566	
214.00	-41.727	159.984	
215.00	-41.650	148.186	
216.00	-41.853	120.421	
217.00	-40.960	106.487	
218.00	-39.329	72.210	
219.00	-37.874	74.621	
220.00	-36.246	40.116	
221.00	-35.101	27.417	
222.00	-33.887	-0.405	
223.00	-33.287	-13.875	
224.00	-32.925	-21.650	
225.00	-32.758	-46.024	
226.00	-32.826	-53.238	
227.00	-33.099	-58.427	
228.00	-33.063	-90.064	
229.00	-33.013	-109.205	
230.00	-33.104	-118.605	
231.00	-33.298	-118.039	
232.00	-34.008	-168.623	
233.00	-34.807	177.848	
234.00	-35.869	151.805	
235.00	-37.188	134.820	
236.00	-38.658	99.211	
237.00	-40.057	99.571	
238.00	-42.227	77.762	
239.00	-45.018	71.871	
240.00	-48.450	-6.395	
241.00	-51.542	6.400	
242.00	-50.492	-43.993	
243.00	-46.927	-85.498	
244.00	-45.232	-84.663	
245.00	-46.207	-124.669	
246.00	-45.610	-117.263	
247.00	-46.533	-145.898	
248.00	-46.833	-148.499	
249.00	-48.768	-162.139	
250.00	-50.749	178.229	
251.00	-49.648	-145.096	
252.00	-53.449	114.737	
253.00	-52.757	116.747	
254.00	-53.530	122.756	
255.00	-53.176	63.560	
256.00	-57.485	75.641	
257.00	-55.924	3.604	
258.00	-54.808	-24.743	
259.00	-51.930	-35.009	
260.00	-51.765	-62.426	
261.00	-50.567	-62.472	
262.00	-51.010	-80.140	
263.00	-49.953	-67.942	
264.00	-52.088	-78.911	
265.00	-52.031	-55.563	
266.00	-52.133	-47.824	
267.00	-51.650	-25.285	
268.00	-49.190	-23.480	
269.00	-46.890	-26.735	
270.00	-45.332	-26.717	
271.00	-44.294	-32.251	
272.00	-43.610	-33.981	
273.00	-43.353	-29.169	
274.00	-43.576	-45.776	
275.00	-43.988	-42.903	
276.00	-44.498	-49.234	
277.00	-45.171	-51.261	
278.00	-46.076	-43.620	
279.00	-47.525	-61.351	
280.00	-48.170	-22.506	
281.00	-49.600	-56.923	
282.00	-51.123	-10.250	
283.00	-51.928	-1.597	
284.00	-52.505	14.117	
285.00	-51.073	17.423	
286.00	-49.547	52.207	
287.00	-47.822	26.938	
288.00	-46.788	44.975	
289.00	-45.178	60.962	
290.00	-44.477	54.957	
291.00	-43.981	71.640	
292.00	-44.106	52.063	
293.00	-44.023	44.140	
294.00	-44.797	52.556	
295.00	-46.133	46.435	
296.00	-47.785	59.451	
297.00	-49.778	57.692	
298.00	-52.163	58.133	
299.00	-54.685	58.196	
300.00	-58.460	55.306	
301.00	-66.545	70.435	
302.00	-64.472	-159.269	
303.00	-56.195	-131.782	
304.00	-52.358	-146.187	
305.00	-48.688	165.252	
306.00	-48.374	176.107	
307.00	-47.998	142.404	
308.00	-49.384	140.271	
309.00	-51.879	153.658	
310.00	-54.402	-179.810	
311.00	-54.348	-133.791	
312.00	-51.801	-106.132	
313.00	-49.807	-89.713	
314.00	-48.531	-98.855	
315.00	-48.444	-93.653	
316.00	-49.096	-78.004	
317.00	-48.093	-73.365	
318.00	-46.303	-63.767	
319.00	-44.071	-59.780	
320.00	-42.380	-66.507	
321.00	-41.735	-55.763	
322.00	-40.828	-83.534	
323.00	-40.961	-74.651	
324.00	-40.127	-121.049	
325.00	-39.972	-130.966	
326.00	-39.993	-141.747	
327.00	-39.494	164.192	
328.00	-40.440	-122.745	
329.00	-40.178	-146.798	
330.00	-40.368	-132.209	
331.00	-40.397	-118.197	
332.00	-39.839	-103.563	
333.00	-39.176	-103.969	
334.00	-38.422	-109.831	
335.00	-37.726	-135.628	
336.00	-38.652	-119.604	
337.00	-38.866	-151.260	
338.00	-41.066	-130.682	
339.00	-41.613	179.595	
340.00	-44.488	170.066	
341.00	-46.795	150.786	
342.00	-45.466	129.332	
343.00	-43.093	86.389	
344.00	-39.827	113.277	
345.00	-38.255	100.614	
346.00	-36.635	130.015	
347.00	-35.391	124.726	
348.00	-34.206	109.139	
349.00	-33.275	71.693	
350.00	-32.389	66.745	
351.00	-31.297	103.061	
352.00	-30.610	121.109	
353.00	-30.113	79.451	
354.00	-29.734	131.108	
355.00	-29.414	118.193	
356.00	-29.186	113.228	
357.00	-29.295	127.837	
358.00	-29.450	124.018	
359.00	-29.873	153.136	
Frequency	2650.00	MHz	
Channel	test		
Scan Axis name	Azimuth  [deg]		
Scan Axis	Amplitude	Phase	
			
0.00	-28.725	-105.162	
1.00	-29.552	-67.650	
2.00	-30.487	-28.350	
3.00	-31.124	-32.725	
4.00	-31.738	-43.767	
5.00	-32.500	-51.312	
6.00	-33.715	-38.159	
7.00	-35.011	-32.855	
8.00	-36.553	-42.682	
9.00	-38.344	-25.757	
10.00	-40.291	-33.161	
11.00	-42.703	-25.297	
12.00	-45.282	-25.575	
13.00	-49.351	-3.253	
14.00	-52.041	19.961	
15.00	-53.080	51.141	
16.00	-51.441	61.816	
17.00	-50.187	79.615	
18.00	-49.388	92.593	
19.00	-49.557	82.959	
20.00	-49.660	114.014	
21.00	-50.306	96.426	
22.00	-51.385	115.263	
23.00	-52.038	101.047	
24.00	-52.219	125.044	
25.00	-50.369	143.534	
26.00	-48.359	144.150	
27.00	-46.008	160.654	
28.00	-44.883	147.637	
29.00	-43.512	160.676	
30.00	-42.535	156.623	
31.00	-41.716	171.093	
32.00	-40.987	155.972	
33.00	-40.463	-156.722	
34.00	-39.634	-138.618	
35.00	-38.703	-103.713	
36.00	-38.367	-107.322	
37.00	-38.122	-89.696	
38.00	-38.737	-107.468	
39.00	-39.121	-77.365	
40.00	-39.817	-51.671	
41.00	-41.833	-89.453	
42.00	-43.117	-71.137	
43.00	-44.534	-65.111	
44.00	-46.158	-58.280	
45.00	-48.048	-62.989	
46.00	-48.641	-64.611	
47.00	-49.516	-76.944	
48.00	-50.629	-50.005	
49.00	-50.510	-42.150	
50.00	-50.918	-11.015	
51.00	-49.498	25.730	
52.00	-47.970	36.621	
53.00	-46.881	53.460	
54.00	-46.758	117.689	
55.00	-46.471	95.294	
56.00	-46.469	97.237	
57.00	-47.074	105.179	
58.00	-46.603	89.775	
59.00	-46.805	111.709	
60.00	-46.902	121.655	
61.00	-47.865	-175.807	
62.00	-47.488	-125.955	
63.00	-47.990	-126.763	
64.00	-49.144	178.567	
65.00	-48.015	-109.113	
66.00	-46.758	-118.663	
67.00	-46.458	-83.539	
68.00	-45.517	-150.361	
69.00	-42.785	-125.236	
70.00	-40.655	-127.991	
71.00	-38.445	-152.164	
72.00	-37.639	-68.538	
73.00	-36.476	-115.042	
74.00	-36.245	-83.182	
75.00	-36.125	-77.491	
76.00	-36.175	-127.853	
77.00	-37.229	-75.734	
78.00	-38.065	-123.273	
79.00	-39.309	-136.058	
80.00	-40.963	-88.660	
81.00	-41.939	-98.895	
82.00	-42.123	-136.520	
83.00	-42.546	-119.056	
84.00	-42.335	-103.108	
85.00	-41.302	-103.849	
86.00	-40.665	-99.291	
87.00	-39.851	-133.070	
88.00	-39.863	-101.907	
89.00	-39.897	-143.004	
90.00	-39.925	-112.192	
91.00	-40.550	-113.552	
92.00	-41.094	-95.036	
93.00	-42.594	-66.122	
94.00	-42.671	-101.090	
95.00	-44.980	-60.407	
96.00	-44.289	-117.118	
97.00	-47.360	-41.466	
98.00	-47.358	-75.450	
99.00	-47.549	-73.310	
100.00	-46.674	-69.539	
101.00	-45.767	-86.309	
102.00	-45.421	-64.819	
103.00	-44.150	-78.683	
104.00	-43.545	-74.327	
105.00	-43.155	-73.640	
106.00	-42.871	-75.087	
107.00	-42.749	-80.124	
108.00	-42.696	-60.769	
109.00	-42.792	-71.382	
110.00	-43.082	-51.945	
111.00	-43.543	-40.111	
112.00	-44.356	-39.246	
113.00	-44.738	-42.192	
114.00	-45.728	9.211	
115.00	-46.478	0.786	
116.00	-47.097	25.714	
117.00	-47.584	30.217	
118.00	-47.147	17.937	
119.00	-46.322	57.680	
120.00	-45.543	55.083	
121.00	-44.841	71.773	
122.00	-44.108	101.033	
123.00	-43.921	105.738	
124.00	-43.206	82.494	
125.00	-41.975	107.338	
126.00	-41.062	105.009	
127.00	-40.056	126.631	
128.00	-39.228	132.778	
129.00	-39.177	166.460	
130.00	-39.471	170.580	
131.00	-40.297	-179.873	
132.00	-42.142	-166.042	
133.00	-45.450	-156.207	
134.00	-51.056	-153.474	
135.00	-58.443	-11.443	
136.00	-50.592	-5.038	
137.00	-45.822	45.954	
138.00	-43.862	41.417	
139.00	-43.438	43.393	
140.00	-43.086	76.194	
141.00	-44.209	86.507	
142.00	-45.972	111.638	
143.00	-49.012	120.193	
144.00	-52.450	126.828	
145.00	-64.609	-140.784	
146.00	-54.916	-69.829	
147.00	-51.221	-78.974	
148.00	-48.685	-45.391	
149.00	-48.791	-75.127	
150.00	-49.031	-56.983	
151.00	-48.821	-120.921	
152.00	-46.139	-127.824	
153.00	-43.022	-139.906	
154.00	-40.061	-157.685	
155.00	-37.664	-146.257	
156.00	-35.758	-146.670	
157.00	-34.416	-140.161	
158.00	-33.423	-144.421	
159.00	-32.794	-130.527	
160.00	-32.472	-127.690	
161.00	-32.352	-119.125	
162.00	-32.459	-139.061	
163.00	-32.702	-146.884	
164.00	-33.088	-148.876	
165.00	-33.532	-141.033	
166.00	-34.187	-127.300	
167.00	-34.997	-135.050	
168.00	-35.971	-122.078	
169.00	-37.225	-110.070	
170.00	-39.038	-105.301	
171.00	-41.656	-92.490	
172.00	-46.315	-58.956	
173.00	-49.806	-25.777	
174.00	-44.682	76.412	
175.00	-39.511	67.754	
176.00	-35.777	84.062	
177.00	-32.844	85.830	
178.00	-30.481	73.100	
179.00	-28.538	84.078	
180.00	-26.935	42.570	
181.00	-25.648	64.362	
182.00	-24.660	40.293	
183.00	-23.815	55.260	
184.00	-23.145	82.083	
185.00	-22.677	34.719	
186.00	-22.242	73.548	
187.00	-21.948	60.338	
188.00	-21.725	53.371	
189.00	-21.519	79.475	
190.00	-21.477	23.827	
191.00	-21.384	40.677	
192.00	-21.382	31.306	
193.00	-21.395	0.108	
194.00	-21.451	24.075	
195.00	-21.697	-14.353	
196.00	-21.927	21.840	
197.00	-22.377	1.017	
198.00	-22.913	-27.778	
199.00	-23.412	4.056	
200.00	-24.294	-37.420	
201.00	-25.061	-11.335	
202.00	-26.239	-41.005	
203.00	-27.336	-32.175	
204.00	-28.735	-46.709	
205.00	-30.135	-51.837	
206.00	-31.992	-63.672	
207.00	-33.979	-64.140	
208.00	-37.060	-95.419	
209.00	-40.228	-68.004	
210.00	-45.521	-76.069	
211.00	-46.657	-20.554	
212.00	-43.747	11.260	
213.00	-41.085	8.958	
214.00	-39.610	9.362	
215.00	-39.191	0.493	
216.00	-39.579	-16.910	
217.00	-39.880	-27.850	
218.00	-40.408	-62.111	
219.00	-39.532	-67.711	
220.00	-38.929	-111.191	
221.00	-37.701	-130.866	
222.00	-36.660	-165.052	
223.00	-35.801	179.464	
224.00	-35.496	169.521	
225.00	-35.499	142.361	
226.00	-35.939	132.319	
227.00	-36.538	121.494	
228.00	-36.076	82.862	
229.00	-35.539	58.285	
230.00	-35.029	46.367	
231.00	-34.697	44.746	
232.00	-34.472	-3.901	
233.00	-34.720	-15.747	
234.00	-35.347	-39.081	
235.00	-36.085	-53.007	
236.00	-37.125	-83.412	
237.00	-38.280	-76.960	
238.00	-40.114	-94.292	
239.00	-41.882	-92.481	
240.00	-44.412	-162.221	
241.00	-46.522	-110.964	
242.00	-48.539	-143.956	
243.00	-49.672	167.369	
244.00	-48.785	160.743	
245.00	-46.764	121.043	
246.00	-46.853	121.727	
247.00	-47.469	89.632	
248.00	-48.026	84.924	
249.00	-48.440	67.199	
250.00	-48.858	46.733	
251.00	-48.986	64.999	
252.00	-47.233	-0.631	
253.00	-46.292	-0.389	
254.00	-45.610	2.398	
255.00	-45.680	-52.779	
256.00	-45.871	-18.256	
257.00	-47.177	-76.765	
258.00	-48.974	-85.200	
259.00	-49.837	-121.413	
260.00	-48.929	-161.685	
261.00	-46.588	-178.921	
262.00	-44.782	153.477	
263.00	-43.201	158.605	
264.00	-41.982	129.084	
265.00	-41.213	142.163	
266.00	-40.898	120.195	
267.00	-40.945	122.517	
268.00	-41.507	104.864	
269.00	-42.317	94.313	
270.00	-43.421	93.449	
271.00	-44.420	94.713	
272.00	-45.209	101.550	
273.00	-45.842	119.962	
274.00	-45.738	119.881	
275.00	-45.132	133.913	
276.00	-44.522	132.702	
277.00	-44.084	134.377	
278.00	-44.123	137.979	
279.00	-44.141	120.493	
280.00	-45.018	150.944	
281.00	-45.589	107.129	
282.00	-47.600	154.021	
283.00	-50.272	155.842	
284.00	-51.849	-177.412	
285.00	-50.519	-160.750	
286.00	-47.032	-120.447	
287.00	-44.246	-154.469	
288.00	-42.372	-137.992	
289.00	-40.734	-122.928	
290.00	-39.557	-130.236	
291.00	-39.091	-115.171	
292.00	-38.573	-134.554	
293.00	-39.000	-144.925	
294.00	-39.415	-136.949	
295.00	-40.378	-143.491	
296.00	-41.670	-135.480	
297.00	-43.304	-141.028	
298.00	-45.645	-141.521	
299.00	-48.526	-142.058	
300.00	-52.841	-149.811	
301.00	-56.590	-123.718	
302.00	-61.247	-55.655	
303.00	-55.476	-7.786	
304.00	-50.084	-14.875	
305.00	-47.669	-44.598	
306.00	-47.321	-42.066	
307.00	-47.767	-74.444	
308.00	-49.508	-74.177	
309.00	-52.179	-63.359	
310.00	-65.508	-31.455	
311.00	-57.090	84.839	
312.00	-51.783	97.790	
313.00	-47.687	114.732	
314.00	-45.474	99.661	
315.00	-44.297	101.919	
316.00	-43.178	118.193	
317.00	-42.048	109.908	
318.00	-40.858	111.428	
319.00	-39.669	114.282	
320.00	-38.844	109.048	
321.00	-38.551	126.096	
322.00	-38.499	103.747	
323.00	-38.509	122.672	
324.00	-38.316	79.503	
325.00	-37.986	77.912	
326.00	-37.443	68.274	
327.00	-36.675	12.241	
328.00	-36.426	90.728	
329.00	-36.021	60.879	
330.00	-35.598	74.830	
331.00	-35.312	84.232	
332.00	-34.868	93.510	
333.00	-34.786	88.924	
334.00	-34.798	80.583	
335.00	-35.050	55.833	
336.00	-35.953	74.387	
337.00	-36.977	43.739	
338.00	-38.807	72.497	
339.00	-40.947	23.124	
340.00	-44.767	26.436	
341.00	-55.488	36.514	
342.00	-52.234	-100.966	
343.00	-44.873	-130.491	
344.00	-40.694	-87.907	
345.00	-38.553	-96.601	
346.00	-36.428	-59.108	
347.00	-34.714	-65.591	
348.00	-33.206	-82.415	
349.00	-31.742	-124.118	
350.00	-30.800	-126.661	
351.00	-29.905	-89.549	
352.00	-29.311	-69.748	
353.00	-28.675	-113.712	
354.00	-28.562	-57.535	
355.00	-28.297	-72.944	
356.00	-28.285	-75.337	
357.00	-28.485	-60.730	
358.00	-28.697	-61.875	
359.00	-29.043	-32.587	
Frequency	2675.00	MHz	
Channel	test		
Scan Axis name	Azimuth  [deg]		
Scan Axis	Amplitude	Phase	
			
0.00	-30.113	70.948	
1.00	-31.251	110.397	
2.00	-32.429	150.865	
3.00	-33.153	147.702	
4.00	-34.091	138.683	
5.00	-35.257	132.253	
6.00	-37.248	147.933	
7.00	-39.293	156.930	
8.00	-41.666	154.901	
9.00	-44.767	-178.505	
10.00	-46.871	-172.068	
11.00	-48.363	-146.051	
12.00	-48.236	-136.346	
13.00	-47.854	-110.620	
14.00	-46.919	-112.660	
15.00	-47.299	-118.105	
16.00	-48.114	-125.472	
17.00	-50.203	-125.152	
18.00	-52.214	-137.093	
19.00	-53.180	-173.382	
20.00	-53.166	-168.314	
21.00	-53.079	143.359	
22.00	-53.792	112.492	
23.00	-50.987	64.708	
24.00	-49.254	45.837	
25.00	-48.021	31.870	
26.00	-46.079	-3.176	
27.00	-44.650	-7.813	
28.00	-43.039	-33.412	
29.00	-42.167	-30.688	
30.00	-41.404	-41.810	
31.00	-41.319	-34.336	
32.00	-41.231	-53.864	
33.00	-41.381	-9.963	
34.00	-40.736	6.934	
35.00	-40.113	39.484	
36.00	-39.867	33.559	
37.00	-39.725	52.929	
38.00	-40.225	32.811	
39.00	-40.617	67.994	
40.00	-40.943	97.108	
41.00	-43.005	57.861	
42.00	-43.830	83.869	
43.00	-44.805	105.870	
44.00	-46.715	128.775	
45.00	-48.660	150.077	
46.00	-50.156	-176.373	
47.00	-50.021	-160.320	
48.00	-49.872	-117.037	
49.00	-48.112	-127.075	
50.00	-46.530	-128.872	
51.00	-45.109	-122.237	
52.00	-43.577	-134.889	
53.00	-43.170	-127.840	
54.00	-44.460	-74.769	
55.00	-44.697	-102.249	
56.00	-46.391	-102.116	
57.00	-48.287	-107.248	
58.00	-49.517	-128.851	
59.00	-50.661	-116.446	
60.00	-53.513	-103.499	
61.00	-56.763	-29.738	
62.00	-53.258	44.716	
63.00	-48.026	53.040	
64.00	-45.702	9.622	
65.00	-43.242	70.729	
66.00	-41.792	72.389	
67.00	-40.931	114.195	
68.00	-40.891	61.768	
69.00	-40.291	89.305	
70.00	-39.758	79.915	
71.00	-38.763	54.360	
72.00	-37.500	132.622	
73.00	-36.670	80.478	
74.00	-35.927	109.161	
75.00	-35.389	111.300	
76.00	-35.140	58.608	
77.00	-35.093	116.115	
78.00	-35.453	69.559	
79.00	-36.082	64.451	
80.00	-36.535	123.467	
81.00	-37.567	124.963	
82.00	-39.315	101.897	
83.00	-40.685	138.024	
84.00	-42.004	162.605	
85.00	-45.261	166.003	
86.00	-47.432	158.763	
87.00	-51.639	93.231	
88.00	-47.632	101.712	
89.00	-46.064	41.577	
90.00	-43.629	74.777	
91.00	-41.845	71.735	
92.00	-40.820	101.070	
93.00	-39.739	131.659	
94.00	-40.032	112.784	
95.00	-39.324	158.675	
96.00	-40.738	126.004	
97.00	-40.310	-155.294	
98.00	-41.527	-158.073	
99.00	-43.326	-131.150	
100.00	-45.592	-97.968	
101.00	-47.248	-76.563	
102.00	-47.894	-14.080	
103.00	-45.883	8.113	
104.00	-43.356	36.404	
105.00	-41.792	54.658	
106.00	-40.209	61.434	
107.00	-39.726	72.334	
108.00	-39.008	96.772	
109.00	-38.621	101.085	
110.00	-38.944	128.530	
111.00	-39.015	149.163	
112.00	-39.290	159.832	
113.00	-39.636	168.884	
114.00	-39.824	-135.009	
115.00	-40.003	-140.229	
116.00	-40.054	-116.949	
117.00	-40.310	-118.434	
118.00	-40.734	-136.661	
119.00	-41.287	-102.247	
120.00	-42.318	-110.152	
121.00	-43.129	-91.226	
122.00	-43.948	-61.221	
123.00	-44.083	-55.961	
124.00	-44.284	-76.838	
125.00	-43.583	-52.490	
126.00	-43.044	-54.219	
127.00	-42.871	-34.226	
128.00	-42.703	-32.637	
129.00	-43.477	2.390	
130.00	-44.620	5.506	
131.00	-47.447	18.883	
132.00	-51.037	51.178	
133.00	-53.062	114.122	
134.00	-49.073	152.179	
135.00	-45.208	-161.071	
136.00	-42.902	172.542	
137.00	-41.960	-142.180	
138.00	-41.343	-149.184	
139.00	-41.031	-145.609	
140.00	-41.658	-109.915	
141.00	-42.599	-99.865	
142.00	-44.055	-71.730	
143.00	-46.151	-63.558	
144.00	-50.116	-75.346	
145.00	-56.369	19.856	
146.00	-51.456	84.146	
147.00	-47.183	84.906	
148.00	-45.067	112.875	
149.00	-44.514	92.532	
150.00	-44.524	112.528	
151.00	-44.941	70.399	
152.00	-44.461	69.546	
153.00	-42.645	57.488	
154.00	-40.645	33.812	
155.00	-38.143	41.785	
156.00	-36.147	37.251	
157.00	-34.622	42.797	
158.00	-33.665	37.090	
159.00	-33.119	51.290	
160.00	-32.848	54.018	
161.00	-32.833	62.919	
162.00	-32.890	42.540	
163.00	-33.159	33.723	
164.00	-33.599	32.102	
165.00	-34.512	39.757	
166.00	-35.653	55.075	
167.00	-37.137	46.926	
168.00	-38.825	60.933	
169.00	-40.669	70.570	
170.00	-43.738	73.589	
171.00	-49.490	83.370	
172.00	-60.681	176.755	
173.00	-49.822	-109.613	
174.00	-43.352	-69.722	
175.00	-39.300	-83.295	
176.00	-36.237	-71.826	
177.00	-33.699	-73.475	
178.00	-31.497	-87.511	
179.00	-29.770	-78.628	
180.00	-28.121	-118.902	
181.00	-26.770	-96.667	
182.00	-25.536	-120.067	
183.00	-24.495	-103.777	
184.00	-23.675	-77.269	
185.00	-23.022	-123.436	
186.00	-22.576	-82.872	
187.00	-22.185	-96.940	
188.00	-21.911	-101.722	
189.00	-21.635	-76.574	
190.00	-21.497	-132.752	
191.00	-21.378	-114.784	
192.00	-21.373	-126.900	
193.00	-21.388	-157.655	
194.00	-21.408	-135.164	
195.00	-21.541	-174.930	
196.00	-21.721	-138.933	
197.00	-22.111	-162.430	
198.00	-22.590	168.878	
199.00	-23.161	-160.399	
200.00	-24.027	156.840	
201.00	-24.952	-176.844	
202.00	-26.119	152.264	
203.00	-27.369	161.581	
204.00	-28.807	145.227	
205.00	-30.407	138.667	
206.00	-32.328	125.275	
207.00	-34.692	123.556	
208.00	-38.064	94.934	
209.00	-42.188	125.056	
210.00	-47.105	135.639	
211.00	-45.303	-167.464	
212.00	-41.288	-153.152	
213.00	-38.573	-159.044	
214.00	-36.961	-161.529	
215.00	-36.224	-168.691	
216.00	-36.151	175.417	
217.00	-36.411	170.379	
218.00	-37.031	142.181	
219.00	-37.136	140.906	
220.00	-37.375	100.183	
221.00	-36.987	82.902	
222.00	-36.462	48.854	
223.00	-36.050	33.478	
224.00	-35.921	24.303	
225.00	-36.252	-1.310	
226.00	-37.063	-5.698	
227.00	-38.608	-13.398	
228.00	-40.199	-51.621	
229.00	-41.413	-86.896	
230.00	-41.245	-109.074	
231.00	-40.399	-121.043	
232.00	-38.707	-177.098	
233.00	-37.914	167.507	
234.00	-37.259	145.041	
235.00	-37.081	130.359	
236.00	-36.558	101.016	
237.00	-36.922	110.068	
238.00	-37.661	97.106	
239.00	-38.110	99.445	
240.00	-39.712	32.002	
241.00	-40.759	83.477	
242.00	-42.808	53.897	
243.00	-44.687	15.183	
244.00	-45.883	9.106	
245.00	-44.250	-52.139	
246.00	-44.112	-55.625	
247.00	-43.875	-95.198	
248.00	-43.984	-101.073	
249.00	-44.292	-125.204	
250.00	-44.209	-144.262	
251.00	-44.384	-117.614	
252.00	-42.581	164.744	
253.00	-41.814	168.015	
254.00	-41.440	168.366	
255.00	-41.659	113.150	
256.00	-41.973	144.747	
257.00	-43.713	81.871	
258.00	-44.954	72.820	
259.00	-46.160	33.335	
260.00	-44.527	-9.037	
261.00	-42.440	-28.803	
262.00	-40.544	-55.666	
263.00	-39.142	-52.633	
264.00	-38.019	-81.504	
265.00	-37.482	-73.131	
266.00	-37.290	-97.497	
267.00	-37.590	-99.260	
268.00	-38.346	-120.400	
269.00	-39.434	-131.974	
270.00	-41.483	-137.744	
271.00	-43.808	-138.836	
272.00	-46.786	-126.256	
273.00	-49.171	-92.455	
274.00	-46.640	-74.441	
275.00	-44.400	-56.640	
276.00	-42.405	-64.296	
277.00	-41.414	-65.480	
278.00	-40.752	-68.297	
279.00	-40.714	-87.481	
280.00	-41.199	-63.485	
281.00	-42.641	-108.965	
282.00	-44.051	-72.133	
283.00	-47.483	-72.209	
284.00	-50.701	-58.921	
285.00	-50.786	-26.313	
286.00	-46.855	23.344	
287.00	-43.078	-10.886	
288.00	-41.065	5.512	
289.00	-39.438	18.501	
290.00	-38.261	9.776	
291.00	-37.625	25.349	
292.00	-37.640	4.849	
293.00	-37.117	-5.214	
294.00	-37.559	3.562	
295.00	-38.323	-2.718	
296.00	-39.210	8.634	
297.00	-40.289	7.165	
298.00	-41.552	8.495	
299.00	-42.699	8.481	
300.00	-43.393	4.102	
301.00	-44.094	20.798	
302.00	-44.576	9.914	
303.00	-45.661	20.917	
304.00	-47.289	13.569	
305.00	-48.563	-26.252	
306.00	-50.022	-5.391	
307.00	-51.026	-41.822	
308.00	-50.036	-30.024	
309.00	-48.987	-26.421	
310.00	-47.878	-29.561	
311.00	-46.812	-39.294	
312.00	-46.188	-45.683	
313.00	-45.014	-35.658	
314.00	-43.759	-52.091	
315.00	-42.544	-58.232	
316.00	-41.261	-46.682	
317.00	-40.063	-64.231	
318.00	-38.611	-66.792	
319.00	-37.454	-69.353	
320.00	-36.569	-75.391	
321.00	-36.079	-62.087	
322.00	-35.734	-84.504	
323.00	-35.523	-67.750	
324.00	-35.222	-114.327	
325.00	-34.958	-119.294	
326.00	-34.845	-131.874	
327.00	-34.595	172.328	
328.00	-34.837	-109.080	
329.00	-34.725	-139.932	
330.00	-34.865	-124.012	
331.00	-34.770	-114.075	
332.00	-34.730	-103.673	
333.00	-34.555	-106.841	
334.00	-34.705	-113.535	
335.00	-34.948	-137.098	
336.00	-35.696	-117.347	
337.00	-36.282	-148.405	
338.00	-37.748	-119.617	
339.00	-39.105	-175.243	
340.00	-41.773	-172.378	
341.00	-47.376	-162.649	
342.00	-59.805	170.588	
343.00	-49.462	58.832	
344.00	-43.570	86.231	
345.00	-39.938	78.024	
346.00	-37.815	113.425	
347.00	-35.423	103.398	
348.00	-33.643	85.590	
349.00	-32.278	43.729	
350.00	-31.406	43.540	
351.00	-30.720	76.333	
352.00	-30.268	95.483	
353.00	-29.463	53.224	
354.00	-29.879	110.385	
355.00	-29.645	95.326	
356.00	-29.694	96.976	
357.00	-29.903	111.685	
358.00	-30.087	113.119	
359.00	-30.544	141.013	
Frequency	2690.00	MHz	
Channel	test		
Scan Axis name	Azimuth  [deg]		
Scan Axis	Amplitude	Phase	
			
0.00	-31.951	-176.372	
1.00	-32.858	-133.360	
2.00	-33.571	-90.673	
3.00	-34.123	-91.981	
4.00	-34.852	-100.256	
5.00	-35.806	-102.154	
6.00	-37.200	-81.766	
7.00	-38.463	-68.161	
8.00	-39.239	-67.157	
9.00	-39.980	-38.363	
10.00	-40.470	-37.363	
11.00	-40.936	-22.812	
12.00	-41.296	-21.942	
13.00	-41.793	-1.831	
14.00	-42.481	-1.127	
15.00	-43.829	-1.847	
16.00	-46.377	3.270	
17.00	-51.149	21.469	
18.00	-59.618	72.332	
19.00	-57.324	153.543	
20.00	-52.578	-150.793	
21.00	-49.461	-173.278	
22.00	-47.915	-177.440	
23.00	-45.846	146.131	
24.00	-45.070	138.505	
25.00	-44.661	132.650	
26.00	-43.897	105.249	
27.00	-44.346	101.068	
28.00	-43.469	70.809	
29.00	-43.391	70.546	
30.00	-43.566	59.779	
31.00	-43.451	66.789	
32.00	-44.744	50.831	
33.00	-44.195	93.345	
34.00	-43.652	110.966	
35.00	-42.617	142.462	
36.00	-42.440	139.490	
37.00	-42.141	159.085	
38.00	-42.242	144.101	
39.00	-42.668	179.967	
40.00	-43.275	-148.932	
41.00	-43.869	171.563	
42.00	-44.334	-162.140	
43.00	-44.737	-142.079	
44.00	-44.804	-119.962	
45.00	-44.813	-102.914	
46.00	-45.562	-88.580	
47.00	-45.510	-83.795	
48.00	-46.594	-52.092	
49.00	-45.871	-63.811	
50.00	-45.819	-66.143	
51.00	-44.704	-62.229	
52.00	-43.836	-71.636	
53.00	-43.717	-61.470	
54.00	-45.123	-13.204	
55.00	-45.889	-38.472	
56.00	-48.632	-50.472	
57.00	-52.837	-67.377	
58.00	-52.754	-106.532	
59.00	-53.337	-131.537	
60.00	-51.148	-161.394	
61.00	-48.229	-146.417	
62.00	-44.902	-131.348	
63.00	-43.794	-151.084	
64.00	-43.149	150.384	
65.00	-40.811	-154.883	
66.00	-40.282	-161.907	
67.00	-39.837	-125.513	
68.00	-40.750	174.341	
69.00	-39.902	-153.662	
70.00	-39.893	-171.918	
71.00	-39.319	161.086	
72.00	-37.598	-123.241	
73.00	-37.061	-179.314	
74.00	-36.332	-150.294	
75.00	-35.584	-149.870	
76.00	-35.331	157.003	
77.00	-35.235	-146.529	
78.00	-35.731	162.334	
79.00	-36.119	157.762	
80.00	-36.746	-141.116	
81.00	-37.548	-140.412	
82.00	-38.966	-164.659	
83.00	-40.355	-126.466	
84.00	-41.500	-94.994	
85.00	-43.678	-95.273	
86.00	-45.594	-88.913	
87.00	-49.353	-152.465	
88.00	-47.922	-133.865	
89.00	-46.500	153.565	
90.00	-44.220	-170.330	
91.00	-42.746	-177.135	
92.00	-40.879	-145.290	
93.00	-39.440	-116.014	
94.00	-39.287	-135.509	
95.00	-38.424	-90.911	
96.00	-39.335	-123.760	
97.00	-38.368	-42.981	
98.00	-39.012	-49.662	
99.00	-40.055	-25.372	
100.00	-41.213	-2.624	
101.00	-42.820	8.838	
102.00	-44.512	49.832	
103.00	-46.030	70.804	
104.00	-46.223	111.830	
105.00	-45.068	142.331	
106.00	-43.800	158.184	
107.00	-42.405	174.377	
108.00	-40.998	-150.739	
109.00	-40.163	-146.213	
110.00	-39.489	-118.425	
111.00	-39.011	-98.456	
112.00	-38.775	-89.796	
113.00	-38.594	-83.816	
114.00	-38.415	-32.603	
115.00	-38.537	-42.415	
116.00	-38.551	-19.934	
117.00	-39.044	-27.733	
118.00	-39.432	-44.077	
119.00	-40.162	-15.217	
120.00	-41.413	-26.410	
121.00	-42.593	-11.132	
122.00	-44.179	16.043	
123.00	-45.688	21.790	
124.00	-46.172	1.952	
125.00	-46.151	34.909	
126.00	-45.522	35.620	
127.00	-44.779	60.089	
128.00	-44.306	63.686	
129.00	-44.963	104.494	
130.00	-45.245	108.359	
131.00	-47.140	124.649	
132.00	-49.050	162.266	
133.00	-49.988	-154.346	
134.00	-47.237	-123.401	
135.00	-44.199	-65.199	
136.00	-42.479	-90.029	
137.00	-40.781	-39.541	
138.00	-40.160	-48.288	
139.00	-39.429	-39.092	
140.00	-39.368	-5.633	
141.00	-39.418	7.157	
142.00	-40.045	34.782	
143.00	-41.383	42.303	
144.00	-43.788	33.491	
145.00	-46.230	100.012	
146.00	-47.515	130.183	
147.00	-45.339	148.554	
148.00	-43.783	-170.411	
149.00	-42.485	177.399	
150.00	-42.368	-151.213	
151.00	-41.841	174.626	
152.00	-41.882	-172.179	
153.00	-41.325	-176.452	
154.00	-40.453	162.115	
155.00	-38.982	165.976	
156.00	-37.473	156.127	
157.00	-36.149	158.912	
158.00	-35.185	150.532	
159.00	-34.715	164.498	
160.00	-34.343	165.531	
161.00	-34.230	174.980	
162.00	-34.095	154.339	
163.00	-34.106	145.939	
164.00	-34.522	145.444	
165.00	-35.375	154.916	
166.00	-36.349	172.908	
167.00	-37.504	168.903	
168.00	-38.884	-175.073	
169.00	-40.529	-161.523	
170.00	-43.044	-155.238	
171.00	-46.628	-139.577	
172.00	-52.585	-80.141	
173.00	-51.367	-33.975	
174.00	-45.282	46.159	
175.00	-40.978	35.971	
176.00	-37.672	52.216	
177.00	-35.191	50.769	
178.00	-32.958	35.888	
179.00	-31.134	44.474	
180.00	-29.303	0.979	
181.00	-28.009	24.932	
182.00	-26.606	-1.239	
183.00	-25.509	16.558	
184.00	-24.562	42.271	
185.00	-23.655	-5.839	
186.00	-23.138	36.761	
187.00	-22.660	20.441	
188.00	-22.307	17.523	
189.00	-22.004	41.769	
190.00	-21.830	-16.418	
191.00	-21.711	3.387	
192.00	-21.752	-10.645	
193.00	-21.742	-40.372	
194.00	-21.869	-18.283	
195.00	-22.009	-58.311	
196.00	-22.296	-21.481	
197.00	-22.707	-47.043	
198.00	-23.172	-75.137	
199.00	-23.932	-44.422	
200.00	-24.747	-87.938	
201.00	-25.802	-61.021	
202.00	-26.863	-93.639	
203.00	-28.180	-83.845	
204.00	-29.561	-102.202	
205.00	-31.132	-108.576	
206.00	-32.772	-122.967	
207.00	-34.873	-124.076	
208.00	-37.273	-150.847	
209.00	-40.780	-121.315	
210.00	-43.337	-123.432	
211.00	-43.754	-75.906	
212.00	-40.849	-59.803	
213.00	-38.210	-61.335	
214.00	-36.667	-63.512	
215.00	-35.686	-69.237	
216.00	-35.293	-85.122	
217.00	-35.334	-88.170	
218.00	-35.494	-114.892	
219.00	-35.619	-112.916	
220.00	-35.405	-149.836	
221.00	-35.105	-163.235	
222.00	-34.905	165.678	
223.00	-34.748	152.415	
224.00	-34.731	143.014	
225.00	-35.314	117.614	
226.00	-35.990	114.378	
227.00	-37.247	108.711	
228.00	-39.369	77.852	
229.00	-41.698	47.733	
230.00	-43.331	28.107	
231.00	-43.559	7.064	
232.00	-41.498	-60.715	
233.00	-40.193	-79.201	
234.00	-39.059	-106.026	
235.00	-38.035	-121.163	
236.00	-37.398	-149.640	
237.00	-37.417	-142.393	
238.00	-37.771	-159.251	
239.00	-38.108	-156.365	
240.00	-39.173	140.700	
241.00	-40.314	-163.248	
242.00	-41.681	168.261	
243.00	-43.982	136.149	
244.00	-45.897	125.757	
245.00	-46.306	62.224	
246.00	-45.750	60.865	
247.00	-44.606	14.962	
248.00	-44.787	11.125	
249.00	-44.574	-15.193	
250.00	-43.743	-32.959	
251.00	-43.502	-2.098	
252.00	-42.144	-78.273	
253.00	-41.302	-72.880	
254.00	-41.064	-72.785	
255.00	-41.389	-122.606	
256.00	-41.940	-89.385	
257.00	-44.651	-145.287	
258.00	-47.624	-145.533	
259.00	-53.308	168.405	
260.00	-51.525	83.152	
261.00	-46.747	52.198	
262.00	-42.709	27.922	
263.00	-40.870	31.715	
264.00	-38.895	6.557	
265.00	-38.176	14.606	
266.00	-37.625	-8.402	
267.00	-37.802	-10.090	
268.00	-38.274	-31.493	
269.00	-39.345	-42.620	
270.00	-41.045	-53.111	
271.00	-43.794	-56.161	
272.00	-47.493	-51.618	
273.00	-51.801	-22.635	
274.00	-50.046	10.251	
275.00	-46.802	32.086	
276.00	-43.596	27.042	
277.00	-42.056	24.295	
278.00	-41.276	18.260	
279.00	-40.985	-0.376	
280.00	-41.662	15.725	
281.00	-42.682	-26.979	
282.00	-44.788	0.237	
283.00	-48.114	-10.920	
284.00	-54.254	-17.455	
285.00	-60.639	79.281	
286.00	-51.219	135.148	
287.00	-45.501	87.503	
288.00	-43.091	103.513	
289.00	-41.120	113.226	
290.00	-39.965	100.998	
291.00	-39.281	114.404	
292.00	-39.057	88.696	
293.00	-39.337	77.031	
294.00	-39.769	84.078	
295.00	-40.562	76.059	
296.00	-41.843	84.825	
297.00	-43.088	82.595	
298.00	-44.493	88.726	
299.00	-45.509	93.139	
300.00	-45.383	90.853	
301.00	-44.536	110.473	
302.00	-44.288	94.413	
303.00	-43.762	101.942	
304.00	-43.737	84.429	
305.00	-43.678	29.016	
306.00	-43.737	43.688	
307.00	-43.524	-2.050	
308.00	-43.525	7.210	
309.00	-43.394	17.080	
310.00	-42.706	20.730	
311.00	-42.343	22.099	
312.00	-41.902	28.715	
313.00	-41.911	42.840	
314.00	-41.326	32.006	
315.00	-40.740	32.907	
316.00	-40.166	46.130	
317.00	-39.025	31.881	
318.00	-38.206	32.197	
319.00	-37.441	31.429	
320.00	-36.732	25.881	
321.00	-36.367	38.619	
322.00	-35.837	16.178	
323.00	-35.846	30.971	
324.00	-35.472	-13.954	
325.00	-35.457	-17.253	
326.00	-35.542	-31.218	
327.00	-35.619	-81.379	
328.00	-35.911	-6.758	
329.00	-35.695	-34.997	
330.00	-35.799	-18.169	
331.00	-35.612	-9.265	
332.00	-35.494	2.124	
333.00	-35.465	-2.549	
334.00	-35.567	-9.790	
335.00	-35.562	-33.289	
336.00	-36.413	-16.347	
337.00	-36.948	-47.475	
338.00	-38.576	-23.799	
339.00	-39.978	-79.994	
340.00	-42.644	-81.932	
341.00	-46.105	-86.323	
342.00	-48.795	-98.419	
343.00	-46.496	-158.963	
344.00	-44.001	-131.525	
345.00	-41.283	-152.846	
346.00	-39.053	-119.349	
347.00	-37.105	-136.293	
348.00	-35.419	-156.436	
349.00	-34.139	156.375	
350.00	-33.241	158.264	
351.00	-32.703	-168.598	
352.00	-32.342	-148.651	
353.00	-31.385	165.187	
354.00	-31.910	-133.811	
355.00	-31.628	-151.925	
356.00	-31.552	-148.573	
357.00	-31.687	-134.660	
358.00	-31.951	-130.914	
359.00	-32.343	-103.801	
