Test Title:	Alpha Wireless Indoor Range						
Date:	13/12/2017						
Time:	12:28						
Operator Name:	FL						
Comment:	Axis 1 192.8
Axis 2 350.2						
Caib. File Name:	C:\Program Files\Midas 2.01d\Calibration Files\test sigma 180900.cal						
							
[Scan Axis] Name: 	Azimuth  [deg]Start: 	0.000000	Stop	359.000000	Increment	1.000000[Step Axis] Name: 	Start: 	0.000000	Stop	0.000000	Increment	0.000000[Tert] Name: 	None [Forth] Name: 	None  [ Freq.]  (List) 	MHz.	2496.000000	2500.000000	2525.000000	2550.000000	2575.000000	2600.000000	2625.000000	2650.000000	2675.000000	2690.000000
 [Switch]  	None [Channel]  	test			 [ Beam] 	None			
Database:			
First Question			
2nd			
3rd			
4th			
			
Frequency	2496.00	MHz	
Channel	test		
Scan Axis name	Azimuth  [deg]		
Scan Axis	Amplitude	Phase	
			
0.00	-28.057	-148.615	
1.00	-28.223	-136.374	
2.00	-28.350	-178.236	
3.00	-29.219	-120.322	
4.00	-30.102	-121.764	
5.00	-31.155	-136.009	
6.00	-32.927	-103.698	
7.00	-34.570	-125.624	
8.00	-36.574	-109.987	
9.00	-37.602	-100.717	
10.00	-37.900	-93.340	
11.00	-37.809	-61.452	
12.00	-36.961	-103.119	
13.00	-37.234	-65.150	
14.00	-36.999	-104.312	
15.00	-38.318	-89.190	
16.00	-39.981	-71.720	
17.00	-41.981	-86.339	
18.00	-45.063	-92.409	
19.00	-47.237	-135.533	
20.00	-47.172	167.511	
21.00	-44.450	81.399	
22.00	-41.054	29.005	
23.00	-41.187	90.103	
24.00	-40.860	94.686	
25.00	-40.102	65.883	
26.00	-41.956	108.285	
27.00	-42.780	87.384	
28.00	-46.128	99.747	
29.00	-49.830	127.137	
30.00	-56.099	126.468	
31.00	-62.830	6.204	
32.00	-61.938	-67.465	
33.00	-52.537	-56.012	
34.00	-52.756	-94.904	
35.00	-51.162	-92.371	
36.00	-50.350	-85.137	
37.00	-49.901	-103.057	
38.00	-48.964	-87.791	
39.00	-49.355	-104.836	
40.00	-50.585	-95.660	
41.00	-51.431	-73.574	
42.00	-51.667	-54.914	
43.00	-50.365	-20.163	
44.00	-51.270	-30.571	
45.00	-49.349	-47.781	
46.00	-46.576	-13.223	
47.00	-45.984	-60.750	
48.00	-42.779	-11.611	
49.00	-41.987	-16.754	
50.00	-41.528	9.316	
51.00	-41.605	-5.758	
52.00	-42.604	-0.608	
53.00	-42.435	0.137	
54.00	-42.080	-19.648	
55.00	-42.011	-25.810	
56.00	-42.878	6.781	
57.00	-43.091	-21.212	
58.00	-43.677	-8.378	
59.00	-45.631	-33.421	
60.00	-45.727	-23.334	
61.00	-46.125	-34.146	
62.00	-46.396	-42.635	
63.00	-45.596	-6.827	
64.00	-45.701	-34.193	
65.00	-45.092	2.220	
66.00	-44.816	31.900	
67.00	-41.722	5.960	
68.00	-39.785	28.421	
69.00	-38.697	35.750	
70.00	-37.969	39.299	
71.00	-37.979	82.082	
72.00	-38.149	114.015	
73.00	-38.641	109.902	
74.00	-39.980	-134.300	
75.00	-41.188	-141.174	
76.00	-43.685	-143.017	
77.00	-44.399	-79.187	
78.00	-51.036	-107.342	
79.00	-50.187	-37.776	
80.00	-50.155	-8.786	
81.00	-47.344	35.702	
82.00	-47.173	73.256	
83.00	-47.956	97.143	
84.00	-46.825	93.572	
85.00	-49.601	142.719	
86.00	-48.030	115.609	
87.00	-52.229	-144.027	
88.00	-49.226	-94.450	
89.00	-46.805	-96.966	
90.00	-43.649	-48.967	
91.00	-41.434	-17.313	
92.00	-40.404	-15.035	
93.00	-38.973	23.648	
94.00	-38.451	48.294	
95.00	-38.527	47.918	
96.00	-39.316	41.815	
97.00	-40.060	73.138	
98.00	-41.168	32.313	
99.00	-42.528	130.973	
100.00	-45.837	79.691	
101.00	-48.231	71.605	
102.00	-51.661	166.017	
103.00	-46.309	156.874	
104.00	-43.320	-136.185	
105.00	-40.275	-137.410	
106.00	-38.436	-164.211	
107.00	-36.838	-70.137	
108.00	-36.138	-83.488	
109.00	-35.190	-59.516	
110.00	-34.424	-22.085	
111.00	-34.099	1.599	
112.00	-34.212	-50.324	
113.00	-34.452	-9.284	
114.00	-35.128	28.558	
115.00	-36.035	66.798	
116.00	-37.387	61.199	
117.00	-38.559	103.373	
118.00	-39.114	124.881	
119.00	-38.520	167.907	
120.00	-37.144	-160.069	
121.00	-35.640	-162.561	
122.00	-34.531	-131.711	
123.00	-33.764	-160.008	
124.00	-33.160	-117.127	
125.00	-33.700	-158.281	
126.00	-33.181	-100.967	
127.00	-33.715	-105.804	
128.00	-33.817	-61.060	
129.00	-34.876	-63.152	
130.00	-35.823	-27.739	
131.00	-37.108	-51.144	
132.00	-39.501	-33.609	
133.00	-41.033	-17.919	
134.00	-44.318	5.953	
135.00	-47.987	-20.715	
136.00	-47.340	-41.483	
137.00	-45.419	-145.857	
138.00	-40.941	-80.956	
139.00	-39.472	-123.384	
140.00	-38.406	-135.711	
141.00	-36.607	-52.243	
142.00	-36.351	-100.126	
143.00	-34.897	-11.116	
144.00	-34.550	-11.773	
145.00	-34.366	-1.077	
146.00	-33.822	36.324	
147.00	-33.882	33.733	
148.00	-33.580	52.634	
149.00	-33.475	52.563	
150.00	-33.157	64.966	
151.00	-33.032	107.047	
152.00	-33.402	89.642	
153.00	-34.059	134.240	
154.00	-35.449	88.113	
155.00	-36.876	100.372	
156.00	-38.176	102.536	
157.00	-40.815	70.956	
158.00	-40.766	110.545	
159.00	-45.212	41.814	
160.00	-44.057	53.400	
161.00	-46.362	18.951	
162.00	-46.800	-4.793	
163.00	-47.490	-2.398	
164.00	-47.771	-22.209	
165.00	-49.374	63.070	
166.00	-53.157	81.460	
167.00	-69.569	-173.693	
168.00	-55.380	154.846	
169.00	-49.981	-178.120	
170.00	-45.265	-159.125	
171.00	-41.765	-172.692	
172.00	-38.531	-166.286	
173.00	-36.318	-161.551	
174.00	-34.144	-158.526	
175.00	-32.115	-149.775	
176.00	-30.359	-140.860	
177.00	-28.623	-129.949	
178.00	-27.272	-134.406	
179.00	-26.178	-141.392	
180.00	-25.292	-137.546	
181.00	-24.582	-132.731	
182.00	-24.043	-148.876	
183.00	-23.508	-174.062	
184.00	-22.948	-151.273	
185.00	-22.519	-167.232	
186.00	-22.152	-167.307	
187.00	-21.728	-165.546	
188.00	-21.508	160.242	
189.00	-21.139	-170.801	
190.00	-20.933	162.382	
191.00	-20.662	-175.031	
192.00	-20.708	154.742	
193.00	-20.653	152.118	
194.00	-20.538	-171.369	
195.00	-20.695	140.818	
196.00	-20.754	-176.006	
197.00	-21.041	142.818	
198.00	-21.285	139.693	
199.00	-21.647	139.438	
200.00	-22.078	104.833	
201.00	-22.668	129.929	
202.00	-23.423	107.771	
203.00	-24.333	89.615	
204.00	-25.455	91.901	
205.00	-26.804	51.292	
206.00	-28.311	46.791	
207.00	-29.686	35.219	
208.00	-30.707	11.645	
209.00	-31.570	1.379	
210.00	-32.296	-9.369	
211.00	-32.807	-37.671	
212.00	-33.946	-44.933	
213.00	-35.856	-74.751	
214.00	-39.088	-65.460	
215.00	-47.816	-105.796	
216.00	-49.952	129.828	
217.00	-39.148	83.841	
218.00	-35.096	71.403	
219.00	-32.782	86.594	
220.00	-30.494	39.526	
221.00	-29.451	42.735	
222.00	-28.539	22.725	
223.00	-27.972	-1.185	
224.00	-27.825	-21.568	
225.00	-27.852	-44.420	
226.00	-28.110	-51.657	
227.00	-28.297	-61.577	
228.00	-28.338	-85.440	
229.00	-28.379	-68.424	
230.00	-28.421	-88.159	
231.00	-28.575	-100.070	
232.00	-28.987	-120.776	
233.00	-29.496	-165.096	
234.00	-29.924	-140.249	
235.00	-30.550	155.881	
236.00	-31.120	157.151	
237.00	-31.518	157.813	
238.00	-32.278	117.533	
239.00	-32.906	94.597	
240.00	-33.686	118.873	
241.00	-35.186	61.166	
242.00	-36.095	73.709	
243.00	-37.209	30.277	
244.00	-38.095	6.690	
245.00	-38.149	17.783	
246.00	-38.897	-84.646	
247.00	-39.290	-55.683	
248.00	-39.045	-107.102	
249.00	-39.075	-109.549	
250.00	-38.566	-145.465	
251.00	-37.013	-170.198	
252.00	-36.461	-173.146	
253.00	-35.225	165.946	
254.00	-34.699	146.383	
255.00	-34.641	166.065	
256.00	-34.805	134.380	
257.00	-35.316	157.630	
258.00	-36.476	108.466	
259.00	-37.847	92.235	
260.00	-39.352	81.438	
261.00	-40.998	26.838	
262.00	-41.088	33.501	
263.00	-40.073	-13.230	
264.00	-38.579	-37.219	
265.00	-37.170	-81.316	
266.00	-36.199	-111.990	
267.00	-35.860	-130.259	
268.00	-35.621	-163.519	
269.00	-36.188	-153.391	
270.00	-36.804	-168.574	
271.00	-38.096	-168.405	
272.00	-39.606	-149.067	
273.00	-41.465	171.545	
274.00	-43.937	-123.264	
275.00	-45.444	-143.524	
276.00	-44.828	-86.249	
277.00	-42.145	-70.765	
278.00	-39.839	-62.092	
279.00	-38.129	-48.908	
280.00	-37.089	-67.558	
281.00	-36.619	-85.207	
282.00	-36.240	-96.907	
283.00	-36.343	-115.136	
284.00	-36.691	-104.297	
285.00	-37.256	-136.709	
286.00	-38.398	-128.174	
287.00	-39.724	-142.872	
288.00	-42.120	-118.529	
289.00	-44.937	-141.019	
290.00	-48.317	-103.166	
291.00	-47.777	-56.775	
292.00	-45.710	-44.005	
293.00	-42.699	-39.088	
294.00	-40.400	-9.775	
295.00	-39.247	-31.629	
296.00	-38.167	-18.617	
297.00	-37.778	-20.484	
298.00	-37.621	-24.139	
299.00	-37.440	-7.234	
300.00	-37.610	-24.351	
301.00	-37.773	-28.156	
302.00	-37.756	-15.472	
303.00	-37.770	-17.371	
304.00	-38.196	-12.144	
305.00	-38.808	-12.089	
306.00	-39.875	-1.250	
307.00	-41.433	-7.926	
308.00	-43.186	19.563	
309.00	-42.998	48.604	
310.00	-40.266	32.813	
311.00	-38.201	59.905	
312.00	-36.094	39.778	
313.00	-34.919	42.065	
314.00	-34.230	51.620	
315.00	-33.799	11.866	
316.00	-34.106	48.743	
317.00	-34.502	13.546	
318.00	-35.105	15.726	
319.00	-35.743	21.173	
320.00	-36.374	16.946	
321.00	-37.150	24.392	
322.00	-37.814	9.362	
323.00	-39.084	25.075	
324.00	-40.692	10.295	
325.00	-42.089	25.746	
326.00	-43.045	36.718	
327.00	-43.003	34.217	
328.00	-43.379	40.723	
329.00	-44.377	73.714	
330.00	-45.332	44.229	
331.00	-46.710	51.879	
332.00	-47.205	86.588	
333.00	-47.099	74.513	
334.00	-45.549	103.493	
335.00	-45.173	74.714	
336.00	-45.256	77.957	
337.00	-45.528	66.423	
338.00	-46.458	69.373	
339.00	-46.517	58.555	
340.00	-46.773	60.847	
341.00	-47.561	66.556	
342.00	-48.383	84.455	
343.00	-54.041	67.499	
344.00	-57.708	138.253	
345.00	-47.440	173.461	
346.00	-42.461	179.924	
347.00	-39.335	-175.262	
348.00	-36.962	176.018	
349.00	-35.397	174.737	
350.00	-34.299	-175.659	
351.00	-33.052	168.962	
352.00	-32.423	-169.964	
353.00	-31.733	177.823	
354.00	-31.367	-161.550	
355.00	-30.793	-160.156	
356.00	-30.129	-153.085	
357.00	-29.490	-146.128	
358.00	-28.918	-144.611	
359.00	-28.551	-147.287	
Frequency	2500.00	MHz	
Channel	test		
Scan Axis name	Azimuth  [deg]		
Scan Axis	Amplitude	Phase	
			
0.00	-28.055	94.671	
1.00	-28.233	106.623	
2.00	-28.395	65.589	
3.00	-29.431	123.901	
4.00	-30.286	120.548	
5.00	-31.452	108.445	
6.00	-33.308	140.092	
7.00	-34.822	118.083	
8.00	-36.500	134.770	
9.00	-37.414	143.427	
10.00	-37.348	149.752	
11.00	-37.488	179.067	
12.00	-36.453	136.233	
13.00	-36.844	171.899	
14.00	-36.223	131.722	
15.00	-37.470	146.797	
16.00	-39.191	161.782	
17.00	-40.807	147.520	
18.00	-43.520	140.071	
19.00	-44.983	100.158	
20.00	-44.923	53.381	
21.00	-44.143	-24.846	
22.00	-42.094	-86.315	
23.00	-41.264	-20.202	
24.00	-40.519	-18.888	
25.00	-40.245	-46.397	
26.00	-41.044	-5.626	
27.00	-42.194	-24.824	
28.00	-44.805	-10.143	
29.00	-48.157	5.947	
30.00	-52.833	2.305	
31.00	-61.545	-7.541	
32.00	-63.898	-160.115	
33.00	-53.545	-168.740	
34.00	-54.563	140.380	
35.00	-52.989	136.638	
36.00	-52.672	155.735	
37.00	-52.301	125.840	
38.00	-52.503	148.544	
39.00	-51.338	124.807	
40.00	-52.247	115.817	
41.00	-55.688	161.381	
42.00	-56.784	169.691	
43.00	-54.304	-122.698	
44.00	-54.878	-134.119	
45.00	-54.444	-178.436	
46.00	-48.880	-123.685	
47.00	-47.835	159.655	
48.00	-45.608	-132.134	
49.00	-44.335	-141.290	
50.00	-43.570	-107.448	
51.00	-43.955	-131.084	
52.00	-44.243	-124.728	
53.00	-44.730	-129.886	
54.00	-44.122	-152.915	
55.00	-43.904	-165.596	
56.00	-43.315	-121.733	
57.00	-43.755	-160.702	
58.00	-44.902	-142.594	
59.00	-45.698	173.182	
60.00	-46.245	-146.951	
61.00	-46.848	-156.405	
62.00	-47.507	-166.008	
63.00	-45.866	-118.524	
64.00	-47.056	-174.445	
65.00	-48.259	-121.710	
66.00	-47.228	-81.463	
67.00	-42.835	-113.068	
68.00	-41.597	-86.395	
69.00	-40.243	-76.898	
70.00	-38.562	-79.909	
71.00	-38.946	-29.757	
72.00	-38.616	1.277	
73.00	-39.091	-1.339	
74.00	-39.356	112.491	
75.00	-40.645	106.629	
76.00	-42.372	112.218	
77.00	-42.619	169.470	
78.00	-45.997	151.073	
79.00	-45.893	-165.951	
80.00	-46.668	-153.456	
81.00	-47.361	-106.891	
82.00	-47.805	-64.957	
83.00	-48.570	-35.889	
84.00	-48.792	-51.689	
85.00	-51.790	9.014	
86.00	-51.379	-7.709	
87.00	-55.002	110.965	
88.00	-50.234	163.721	
89.00	-47.323	156.193	
90.00	-43.693	-162.868	
91.00	-41.770	-128.563	
92.00	-40.574	-128.159	
93.00	-39.437	-88.197	
94.00	-38.649	-66.209	
95.00	-38.889	-70.107	
96.00	-39.047	-78.035	
97.00	-40.117	-46.153	
98.00	-41.768	-90.378	
99.00	-43.811	5.951	
100.00	-48.046	-40.316	
101.00	-52.419	-39.258	
102.00	-52.856	104.415	
103.00	-45.839	61.848	
104.00	-42.433	114.556	
105.00	-39.536	106.541	
106.00	-38.342	86.314	
107.00	-36.812	179.076	
108.00	-35.724	165.398	
109.00	-35.008	-170.027	
110.00	-34.228	-136.978	
111.00	-33.930	-113.879	
112.00	-34.459	-170.212	
113.00	-34.662	-125.485	
114.00	-35.306	-87.673	
115.00	-35.985	-50.741	
116.00	-37.498	-54.413	
117.00	-38.347	-15.038	
118.00	-38.993	4.335	
119.00	-38.530	48.325	
120.00	-37.236	79.382	
121.00	-35.669	77.421	
122.00	-34.698	108.515	
123.00	-33.604	81.110	
124.00	-33.167	120.013	
125.00	-33.071	83.405	
126.00	-33.202	135.624	
127.00	-33.611	130.888	
128.00	-34.469	176.104	
129.00	-35.223	174.297	
130.00	-36.695	-149.107	
131.00	-37.412	-178.312	
132.00	-39.961	-160.208	
133.00	-41.854	-144.512	
134.00	-45.351	-111.114	
135.00	-48.417	-143.941	
136.00	-47.016	-153.097	
137.00	-43.772	101.590	
138.00	-40.439	165.845	
139.00	-38.708	119.997	
140.00	-37.870	111.591	
141.00	-36.742	-167.782	
142.00	-35.835	144.620	
143.00	-35.057	-124.294	
144.00	-34.816	-127.916	
145.00	-34.561	-116.368	
146.00	-34.108	-77.151	
147.00	-34.157	-82.170	
148.00	-34.049	-60.994	
149.00	-33.938	-63.561	
150.00	-33.862	-48.996	
151.00	-33.681	-9.103	
152.00	-34.182	-25.374	
153.00	-34.793	16.762	
154.00	-36.204	-28.052	
155.00	-37.593	-14.680	
156.00	-39.040	-15.015	
157.00	-41.247	-50.255	
158.00	-41.518	-12.815	
159.00	-44.402	-80.298	
160.00	-43.220	-70.827	
161.00	-44.374	-101.048	
162.00	-44.242	-116.916	
163.00	-44.387	-111.027	
164.00	-44.518	-123.976	
165.00	-44.286	-61.133	
166.00	-45.719	-56.678	
167.00	-50.479	-85.321	
168.00	-49.791	-44.208	
169.00	-60.880	-26.683	
170.00	-51.329	56.908	
171.00	-44.485	58.786	
172.00	-40.369	71.400	
173.00	-37.508	82.936	
174.00	-34.749	88.006	
175.00	-32.504	95.856	
176.00	-30.613	106.504	
177.00	-28.866	115.177	
178.00	-27.383	111.899	
179.00	-26.186	104.408	
180.00	-25.286	109.596	
181.00	-24.530	113.941	
182.00	-23.948	97.608	
183.00	-23.413	71.736	
184.00	-22.908	95.007	
185.00	-22.518	78.002	
186.00	-22.142	79.463	
187.00	-21.707	79.762	
188.00	-21.445	46.541	
189.00	-21.018	74.757	
190.00	-20.730	48.005	
191.00	-20.439	71.535	
192.00	-20.451	40.622	
193.00	-20.415	40.996	
194.00	-20.406	75.708	
195.00	-20.573	29.344	
196.00	-20.703	72.653	
197.00	-21.001	30.541	
198.00	-21.316	29.126	
199.00	-21.757	27.033	
200.00	-22.212	-6.113	
201.00	-22.848	18.454	
202.00	-23.609	-4.436	
203.00	-24.586	-21.605	
204.00	-25.767	-19.627	
205.00	-27.258	-59.638	
206.00	-28.901	-63.637	
207.00	-30.526	-75.853	
208.00	-31.793	-101.452	
209.00	-32.808	-112.975	
210.00	-33.542	-126.338	
211.00	-33.851	-156.857	
212.00	-34.825	-166.604	
213.00	-36.300	159.510	
214.00	-39.232	166.825	
215.00	-45.370	108.522	
216.00	-45.994	38.098	
217.00	-39.190	-20.606	
218.00	-35.290	-34.879	
219.00	-32.939	-23.594	
220.00	-31.027	-72.270	
221.00	-29.928	-70.346	
222.00	-29.070	-91.848	
223.00	-28.462	-117.148	
224.00	-28.315	-138.307	
225.00	-28.198	-161.857	
226.00	-28.428	-169.646	
227.00	-28.541	-179.460	
228.00	-28.464	156.218	
229.00	-28.579	174.746	
230.00	-28.653	154.044	
231.00	-28.858	143.659	
232.00	-29.303	121.516	
233.00	-29.797	78.623	
234.00	-30.469	102.498	
235.00	-31.033	37.945	
236.00	-31.714	39.356	
237.00	-32.186	39.272	
238.00	-32.818	-1.769	
239.00	-33.349	-23.200	
240.00	-34.303	-1.174	
241.00	-35.528	-58.357	
242.00	-36.372	-45.532	
243.00	-37.407	-87.819	
244.00	-38.191	-107.853	
245.00	-38.332	-99.660	
246.00	-39.689	163.976	
247.00	-39.888	-164.856	
248.00	-40.633	141.608	
249.00	-41.277	139.615	
250.00	-40.582	96.329	
251.00	-38.606	69.612	
252.00	-37.665	64.756	
253.00	-36.286	44.327	
254.00	-35.457	26.721	
255.00	-35.254	44.933	
256.00	-35.105	14.713	
257.00	-35.466	37.482	
258.00	-36.483	-8.885	
259.00	-37.613	-21.882	
260.00	-39.137	-31.174	
261.00	-41.518	-80.286	
262.00	-41.516	-73.368	
263.00	-41.351	-123.262	
264.00	-40.120	-150.898	
265.00	-38.183	158.505	
266.00	-36.504	128.114	
267.00	-35.597	110.383	
268.00	-35.164	79.451	
269.00	-35.395	90.408	
270.00	-35.778	76.115	
271.00	-36.722	78.511	
272.00	-37.763	92.586	
273.00	-39.395	56.568	
274.00	-41.485	112.190	
275.00	-42.827	86.612	
276.00	-43.441	134.266	
277.00	-42.266	152.764	
278.00	-40.598	168.998	
279.00	-38.848	-176.989	
280.00	-37.455	167.518	
281.00	-36.431	151.468	
282.00	-35.899	141.440	
283.00	-35.671	124.133	
284.00	-35.729	133.762	
285.00	-36.109	104.228	
286.00	-36.920	111.815	
287.00	-37.976	97.771	
288.00	-39.711	118.556	
289.00	-42.220	97.330	
290.00	-44.902	122.617	
291.00	-47.669	153.810	
292.00	-45.979	174.554	
293.00	-43.768	-169.965	
294.00	-41.851	-137.377	
295.00	-40.018	-158.180	
296.00	-39.167	-144.307	
297.00	-38.582	-147.129	
298.00	-38.384	-148.024	
299.00	-38.460	-130.145	
300.00	-38.358	-147.270	
301.00	-38.435	-150.393	
302.00	-38.729	-135.803	
303.00	-38.758	-138.341	
304.00	-39.328	-130.538	
305.00	-39.857	-130.425	
306.00	-41.199	-117.147	
307.00	-42.143	-126.621	
308.00	-43.953	-91.904	
309.00	-43.287	-63.540	
310.00	-40.812	-83.694	
311.00	-38.413	-54.497	
312.00	-36.759	-76.585	
313.00	-35.511	-72.360	
314.00	-34.860	-62.295	
315.00	-34.627	-103.440	
316.00	-34.749	-62.455	
317.00	-35.330	-98.747	
318.00	-35.798	-94.035	
319.00	-36.392	-88.438	
320.00	-36.903	-91.339	
321.00	-37.476	-83.057	
322.00	-38.200	-98.996	
323.00	-39.333	-82.953	
324.00	-40.903	-100.209	
325.00	-42.556	-83.695	
326.00	-43.373	-75.322	
327.00	-44.160	-75.667	
328.00	-44.749	-68.408	
329.00	-45.356	-30.554	
330.00	-47.281	-54.542	
331.00	-48.080	-38.659	
332.00	-46.939	-7.247	
333.00	-46.253	-20.061	
334.00	-44.375	0.597	
335.00	-44.542	-27.864	
336.00	-44.647	-23.229	
337.00	-45.307	-35.321	
338.00	-45.726	-29.656	
339.00	-46.213	-42.519	
340.00	-46.445	-41.710	
341.00	-46.970	-39.938	
342.00	-47.179	-25.265	
343.00	-53.721	-34.804	
344.00	-55.223	32.035	
345.00	-46.151	54.810	
346.00	-41.633	61.743	
347.00	-38.901	65.985	
348.00	-36.540	58.479	
349.00	-35.098	57.938	
350.00	-33.964	67.397	
351.00	-32.808	53.004	
352.00	-32.263	73.723	
353.00	-31.516	62.051	
354.00	-31.182	83.352	
355.00	-30.547	84.108	
356.00	-29.950	91.687	
357.00	-29.360	97.926	
358.00	-28.840	99.312	
359.00	-28.519	96.023	
Frequency	2525.00	MHz	
Channel	test		
Scan Axis name	Azimuth  [deg]		
Scan Axis	Amplitude	Phase	
			
0.00	-28.784	-93.021	
1.00	-29.161	-81.196	
2.00	-29.657	-121.071	
3.00	-30.711	-60.925	
4.00	-31.586	-63.539	
5.00	-32.667	-71.810	
6.00	-34.167	-39.190	
7.00	-34.600	-60.110	
8.00	-35.379	-48.020	
9.00	-35.414	-47.368	
10.00	-35.528	-49.827	
11.00	-35.807	-28.164	
12.00	-35.240	-75.237	
13.00	-35.950	-43.870	
14.00	-35.822	-88.314	
15.00	-36.214	-73.792	
16.00	-37.528	-61.539	
17.00	-38.535	-72.254	
18.00	-39.736	-71.432	
19.00	-41.103	-99.171	
20.00	-42.214	-129.786	
21.00	-43.761	164.188	
22.00	-46.210	111.595	
23.00	-44.415	166.336	
24.00	-43.607	161.761	
25.00	-43.975	135.377	
26.00	-43.400	-175.193	
27.00	-44.550	174.562	
28.00	-44.601	-149.191	
29.00	-44.355	-110.301	
30.00	-43.363	-93.515	
31.00	-42.611	-129.300	
32.00	-41.168	-68.222	
33.00	-40.613	-72.723	
34.00	-40.915	-84.427	
35.00	-41.351	-87.794	
36.00	-41.571	-66.379	
37.00	-42.627	-73.650	
38.00	-43.113	-59.620	
39.00	-44.653	-75.323	
40.00	-45.062	-87.802	
41.00	-46.129	-62.355	
42.00	-47.642	-63.943	
43.00	-47.862	-28.062	
44.00	-49.293	-25.222	
45.00	-51.504	-42.951	
46.00	-48.673	8.533	
47.00	-49.876	-46.819	
48.00	-47.701	1.429	
49.00	-46.088	-5.175	
50.00	-46.185	14.479	
51.00	-45.203	-4.949	
52.00	-45.436	-2.003	
53.00	-44.882	-5.424	
54.00	-44.827	-25.462	
55.00	-43.910	-37.008	
56.00	-42.173	12.779	
57.00	-42.813	-28.141	
58.00	-42.381	-6.081	
59.00	-43.087	-46.056	
60.00	-42.938	3.804	
61.00	-43.644	-5.895	
62.00	-44.532	-15.099	
63.00	-43.668	22.644	
64.00	-46.949	-44.349	
65.00	-49.536	-6.744	
66.00	-53.194	12.555	
67.00	-53.353	27.264	
68.00	-51.437	87.696	
69.00	-47.783	97.302	
70.00	-44.422	103.255	
71.00	-43.899	158.120	
72.00	-43.567	-168.343	
73.00	-42.811	-159.268	
74.00	-39.411	-44.462	
75.00	-39.206	-49.359	
76.00	-38.763	-46.592	
77.00	-37.923	0.607	
78.00	-38.036	-30.812	
79.00	-37.837	2.143	
80.00	-37.930	-6.394	
81.00	-38.531	34.453	
82.00	-39.055	64.765	
83.00	-40.012	79.744	
84.00	-40.963	51.142	
85.00	-42.891	82.040	
86.00	-44.078	27.370	
87.00	-45.761	56.109	
88.00	-45.324	40.914	
89.00	-42.827	12.016	
90.00	-40.832	33.491	
91.00	-39.887	58.268	
92.00	-38.393	50.742	
93.00	-37.771	89.387	
94.00	-37.539	107.646	
95.00	-37.622	99.577	
96.00	-38.267	83.604	
97.00	-39.026	113.589	
98.00	-40.007	60.684	
99.00	-41.991	162.743	
100.00	-46.143	74.544	
101.00	-51.605	9.133	
102.00	-54.508	-5.310	
103.00	-46.092	-84.977	
104.00	-41.603	-39.067	
105.00	-39.062	-61.266	
106.00	-36.737	-83.765	
107.00	-35.636	-0.036	
108.00	-34.597	-20.056	
109.00	-33.986	4.330	
110.00	-33.788	37.882	
111.00	-33.740	58.349	
112.00	-34.221	4.888	
113.00	-34.776	47.031	
114.00	-35.932	85.716	
115.00	-37.452	122.429	
116.00	-38.811	118.345	
117.00	-40.694	165.789	
118.00	-40.589	-170.332	
119.00	-39.507	-124.700	
120.00	-37.612	-98.881	
121.00	-36.648	-100.784	
122.00	-35.382	-73.959	
123.00	-35.082	-99.881	
124.00	-35.002	-62.166	
125.00	-35.003	-101.977	
126.00	-35.394	-42.507	
127.00	-35.972	-48.085	
128.00	-36.015	-0.297	
129.00	-36.817	-4.816	
130.00	-37.548	28.513	
131.00	-38.871	-5.285	
132.00	-40.464	5.470	
133.00	-41.038	11.664	
134.00	-40.746	26.545	
135.00	-39.799	9.321	
136.00	-38.314	13.893	
137.00	-38.659	-59.339	
138.00	-35.949	-4.529	
139.00	-35.900	-47.469	
140.00	-35.349	-51.587	
141.00	-33.774	19.990	
142.00	-33.766	-29.040	
143.00	-32.708	54.605	
144.00	-32.936	49.723	
145.00	-33.155	59.114	
146.00	-33.505	93.261	
147.00	-33.923	87.439	
148.00	-34.609	107.432	
149.00	-35.004	103.637	
150.00	-35.774	118.816	
151.00	-36.420	157.412	
152.00	-37.754	139.191	
153.00	-39.198	179.905	
154.00	-40.900	124.700	
155.00	-43.101	132.349	
156.00	-43.949	118.988	
157.00	-44.045	73.254	
158.00	-43.201	110.625	
159.00	-42.482	37.601	
160.00	-41.188	61.357	
161.00	-40.774	37.930	
162.00	-40.715	34.612	
163.00	-40.927	42.269	
164.00	-40.349	32.022	
165.00	-41.822	87.927	
166.00	-43.254	84.252	
167.00	-45.188	40.183	
168.00	-48.925	58.862	
169.00	-47.627	-23.381	
170.00	-45.819	-27.427	
171.00	-42.507	-60.649	
172.00	-39.376	-65.899	
173.00	-36.580	-66.652	
174.00	-34.059	-68.414	
175.00	-32.094	-65.188	
176.00	-30.296	-57.091	
177.00	-28.856	-52.050	
178.00	-27.464	-56.519	
179.00	-26.232	-65.857	
180.00	-25.143	-61.181	
181.00	-24.254	-57.457	
182.00	-23.568	-73.679	
183.00	-23.065	-98.617	
184.00	-22.562	-74.086	
185.00	-22.174	-91.659	
186.00	-21.814	-86.934	
187.00	-21.483	-87.064	
188.00	-21.307	-118.008	
189.00	-20.985	-89.437	
190.00	-20.844	-116.001	
191.00	-20.620	-91.728	
192.00	-20.667	-123.011	
193.00	-20.711	-119.391	
194.00	-20.720	-85.503	
195.00	-21.124	-129.420	
196.00	-21.358	-85.359	
197.00	-22.062	-127.604	
198.00	-22.614	-126.865	
199.00	-23.316	-130.090	
200.00	-24.269	-163.217	
201.00	-25.052	-138.821	
202.00	-26.130	-163.887	
203.00	-27.256	178.241	
204.00	-28.490	-179.721	
205.00	-30.150	139.911	
206.00	-32.185	138.750	
207.00	-34.665	129.117	
208.00	-37.545	103.084	
209.00	-40.433	85.000	
210.00	-42.178	54.632	
211.00	-41.856	7.740	
212.00	-41.064	-13.862	
213.00	-41.017	-57.696	
214.00	-41.198	-54.830	
215.00	-42.618	-122.494	
216.00	-41.114	-143.078	
217.00	-38.145	170.118	
218.00	-35.324	152.712	
219.00	-33.598	161.331	
220.00	-32.025	113.641	
221.00	-31.180	114.931	
222.00	-30.463	93.454	
223.00	-30.033	67.814	
224.00	-29.806	47.472	
225.00	-30.031	23.736	
226.00	-30.339	17.313	
227.00	-30.645	7.360	
228.00	-30.934	-18.978	
229.00	-30.898	1.452	
230.00	-31.024	-20.897	
231.00	-31.190	-28.785	
232.00	-31.783	-51.670	
233.00	-32.462	-92.006	
234.00	-33.672	-63.446	
235.00	-34.797	-130.253	
236.00	-36.114	-125.981	
237.00	-37.483	-124.358	
238.00	-38.759	-175.300	
239.00	-39.770	160.833	
240.00	-42.521	175.606	
241.00	-42.844	112.908	
242.00	-43.309	110.407	
243.00	-42.914	65.074	
244.00	-41.962	48.346	
245.00	-40.790	58.771	
246.00	-41.821	-21.913	
247.00	-41.572	18.138	
248.00	-43.671	-22.684	
249.00	-45.408	-10.937	
250.00	-49.072	-56.401	
251.00	-50.777	-109.436	
252.00	-48.230	-138.907	
253.00	-44.691	-167.931	
254.00	-41.614	176.741	
255.00	-41.188	-163.799	
256.00	-39.621	167.810	
257.00	-39.979	-165.662	
258.00	-39.295	149.183	
259.00	-39.711	140.764	
260.00	-40.632	136.074	
261.00	-41.462	100.507	
262.00	-42.864	113.461	
263.00	-43.762	75.761	
264.00	-44.198	49.421	
265.00	-44.282	-6.283	
266.00	-42.888	-47.816	
267.00	-41.553	-71.758	
268.00	-40.906	-108.877	
269.00	-40.278	-100.032	
270.00	-40.289	-119.781	
271.00	-40.420	-115.016	
272.00	-41.392	-104.493	
273.00	-42.109	-147.068	
274.00	-44.264	-86.811	
275.00	-45.967	-130.462	
276.00	-47.936	-83.206	
277.00	-48.251	-58.824	
278.00	-46.287	-35.848	
279.00	-43.970	-15.673	
280.00	-41.927	-32.688	
281.00	-40.624	-49.736	
282.00	-39.793	-61.127	
283.00	-39.321	-80.768	
284.00	-39.429	-70.798	
285.00	-39.627	-107.302	
286.00	-40.373	-100.543	
287.00	-41.552	-119.801	
288.00	-44.244	-104.885	
289.00	-46.946	-137.931	
290.00	-53.846	-126.156	
291.00	-74.064	34.024	
292.00	-52.907	18.395	
293.00	-47.197	16.675	
294.00	-44.736	38.438	
295.00	-43.264	7.717	
296.00	-42.673	19.487	
297.00	-42.604	12.091	
298.00	-42.884	7.090	
299.00	-43.698	21.321	
300.00	-45.304	5.645	
301.00	-46.132	10.430	
302.00	-46.416	39.866	
303.00	-46.191	43.995	
304.00	-45.545	62.177	
305.00	-45.241	65.652	
306.00	-44.777	85.430	
307.00	-44.904	77.612	
308.00	-43.882	106.026	
309.00	-42.344	119.154	
310.00	-40.505	94.565	
311.00	-39.065	118.095	
312.00	-37.897	97.147	
313.00	-37.080	102.843	
314.00	-36.667	114.054	
315.00	-36.282	80.215	
316.00	-36.395	122.316	
317.00	-35.953	88.440	
318.00	-35.793	95.800	
319.00	-35.656	98.864	
320.00	-35.495	95.143	
321.00	-35.990	99.026	
322.00	-36.354	82.151	
323.00	-37.564	96.827	
324.00	-38.625	78.110	
325.00	-39.928	91.366	
326.00	-41.024	91.362	
327.00	-41.572	86.763	
328.00	-42.745	89.651	
329.00	-44.738	121.016	
330.00	-44.810	93.958	
331.00	-45.544	103.245	
332.00	-46.052	127.164	
333.00	-45.579	108.502	
334.00	-45.300	130.575	
335.00	-44.161	97.712	
336.00	-43.830	102.076	
337.00	-43.311	89.636	
338.00	-42.747	93.357	
339.00	-42.367	77.663	
340.00	-42.369	77.616	
341.00	-42.928	78.569	
342.00	-44.259	94.349	
343.00	-47.300	42.053	
344.00	-53.358	41.464	
345.00	-54.969	-75.485	
346.00	-47.327	-106.435	
347.00	-42.797	-109.676	
348.00	-39.634	-119.480	
349.00	-37.339	-120.021	
350.00	-35.702	-109.946	
351.00	-34.162	-124.787	
352.00	-33.136	-102.470	
353.00	-32.151	-115.732	
354.00	-31.251	-94.875	
355.00	-30.487	-97.629	
356.00	-29.836	-91.787	
357.00	-29.310	-87.781	
358.00	-29.035	-86.767	
359.00	-28.916	-90.857	
Frequency	2550.00	MHz	
Channel	test		
Scan Axis name	Azimuth  [deg]		
Scan Axis	Amplitude	Phase	
			
0.00	-32.625	102.723	
1.00	-33.232	118.163	
2.00	-33.591	83.707	
3.00	-35.053	152.896	
4.00	-35.300	153.829	
5.00	-35.415	151.283	
6.00	-35.401	-172.208	
7.00	-35.171	161.720	
8.00	-34.880	170.769	
9.00	-34.786	165.652	
10.00	-34.884	158.932	
11.00	-35.396	177.751	
12.00	-36.073	126.470	
13.00	-37.325	158.738	
14.00	-38.265	109.662	
15.00	-39.907	122.557	
16.00	-41.365	135.859	
17.00	-43.039	124.453	
18.00	-45.780	119.985	
19.00	-48.721	91.119	
20.00	-50.640	41.579	
21.00	-48.014	-39.336	
22.00	-45.465	-83.497	
23.00	-47.471	-28.945	
24.00	-47.170	-32.650	
25.00	-45.116	-54.109	
26.00	-45.697	-4.595	
27.00	-44.480	-14.921	
28.00	-44.540	21.078	
29.00	-43.840	56.138	
30.00	-43.065	66.974	
31.00	-43.123	27.934	
32.00	-41.063	83.986	
33.00	-40.973	81.603	
34.00	-40.224	60.030	
35.00	-40.732	60.158	
36.00	-40.901	81.749	
37.00	-41.632	75.028	
38.00	-41.819	91.381	
39.00	-42.201	74.247	
40.00	-42.936	69.066	
41.00	-43.279	90.741	
42.00	-44.785	84.437	
43.00	-45.968	121.627	
44.00	-48.014	114.883	
45.00	-50.198	102.600	
46.00	-50.320	165.693	
47.00	-51.513	120.420	
48.00	-50.012	178.888	
49.00	-49.036	170.759	
50.00	-47.825	-167.792	
51.00	-48.372	176.434	
52.00	-48.293	174.997	
53.00	-48.003	165.260	
54.00	-46.414	138.030	
55.00	-44.936	130.568	
56.00	-42.573	170.928	
57.00	-42.229	134.853	
58.00	-41.225	155.785	
59.00	-41.456	120.733	
60.00	-41.371	168.113	
61.00	-42.299	158.215	
62.00	-42.962	149.857	
63.00	-43.194	-179.641	
64.00	-44.901	110.023	
65.00	-45.333	130.284	
66.00	-47.031	124.030	
67.00	-50.524	77.194	
68.00	-51.062	71.306	
69.00	-51.720	29.249	
70.00	-50.436	-12.811	
71.00	-46.391	36.485	
72.00	-43.814	53.758	
73.00	-42.352	59.615	
74.00	-39.564	153.421	
75.00	-39.045	143.022	
76.00	-38.450	144.596	
77.00	-38.129	-171.239	
78.00	-37.514	154.931	
79.00	-37.573	-172.412	
80.00	-37.387	175.542	
81.00	-38.634	-143.350	
82.00	-39.744	-113.452	
83.00	-40.329	-98.255	
84.00	-41.442	-125.778	
85.00	-42.741	-99.403	
86.00	-43.611	-163.979	
87.00	-44.363	-127.433	
88.00	-42.964	-142.996	
89.00	-40.494	-165.095	
90.00	-38.738	-143.125	
91.00	-37.700	-117.683	
92.00	-36.702	-125.915	
93.00	-36.078	-86.833	
94.00	-35.662	-72.008	
95.00	-35.687	-81.677	
96.00	-36.260	-95.322	
97.00	-37.140	-70.283	
98.00	-38.691	-126.973	
99.00	-40.548	-29.494	
100.00	-43.637	-124.311	
101.00	-45.743	-179.386	
102.00	-45.277	-155.584	
103.00	-43.970	128.528	
104.00	-39.911	155.224	
105.00	-38.100	135.545	
106.00	-36.626	107.288	
107.00	-35.184	-173.132	
108.00	-34.436	168.203	
109.00	-34.304	-170.124	
110.00	-34.185	-142.084	
111.00	-34.586	-125.248	
112.00	-35.120	-179.153	
113.00	-36.290	-137.312	
114.00	-38.244	-104.427	
115.00	-41.405	-71.125	
116.00	-45.002	-73.509	
117.00	-49.065	-10.055	
118.00	-48.034	41.563	
119.00	-43.813	94.935	
120.00	-41.039	117.148	
121.00	-39.178	108.518	
122.00	-37.702	135.718	
123.00	-37.642	105.937	
124.00	-36.702	142.978	
125.00	-37.177	104.947	
126.00	-36.760	159.406	
127.00	-37.289	153.097	
128.00	-37.681	-163.305	
129.00	-38.633	-173.535	
130.00	-39.830	-143.932	
131.00	-40.488	172.939	
132.00	-41.310	174.447	
133.00	-41.134	168.815	
134.00	-39.073	-171.432	
135.00	-37.449	178.904	
136.00	-35.989	-166.583	
137.00	-35.329	123.178	
138.00	-34.131	-175.904	
139.00	-33.594	139.912	
140.00	-32.844	139.357	
141.00	-31.795	-153.790	
142.00	-31.666	159.074	
143.00	-31.203	-119.725	
144.00	-31.535	-127.028	
145.00	-31.918	-118.423	
146.00	-32.443	-85.752	
147.00	-33.278	-94.718	
148.00	-34.117	-76.083	
149.00	-35.070	-83.406	
150.00	-36.462	-67.163	
151.00	-37.845	-31.753	
152.00	-39.699	-49.064	
153.00	-41.702	-12.291	
154.00	-43.828	-69.466	
155.00	-45.775	-71.120	
156.00	-45.301	-86.694	
157.00	-45.048	-132.583	
158.00	-42.615	-85.969	
159.00	-42.279	-158.424	
160.00	-41.111	-119.425	
161.00	-40.521	-141.354	
162.00	-40.211	-134.327	
163.00	-40.075	-123.501	
164.00	-40.233	-128.733	
165.00	-39.887	-62.439	
166.00	-40.739	-61.814	
167.00	-42.975	-83.673	
168.00	-46.267	-20.996	
169.00	-52.296	-23.199	
170.00	-49.686	77.732	
171.00	-43.635	84.090	
172.00	-39.880	103.744	
173.00	-36.784	115.367	
174.00	-34.242	120.694	
175.00	-32.237	127.007	
176.00	-30.716	138.340	
177.00	-29.194	143.352	
178.00	-28.014	140.683	
179.00	-26.924	130.107	
180.00	-25.894	135.157	
181.00	-24.957	138.341	
182.00	-24.075	120.789	
183.00	-23.342	96.178	
184.00	-22.809	122.200	
185.00	-22.372	103.595	
186.00	-21.901	110.071	
187.00	-21.512	108.824	
188.00	-21.164	79.343	
189.00	-20.874	108.944	
190.00	-20.710	83.043	
191.00	-20.608	108.794	
192.00	-20.583	76.154	
193.00	-20.596	82.214	
194.00	-20.610	114.816	
195.00	-20.825	72.400	
196.00	-21.090	117.111	
197.00	-21.698	74.592	
198.00	-22.247	77.426	
199.00	-22.968	73.221	
200.00	-23.910	42.704	
201.00	-24.812	67.076	
202.00	-25.961	42.373	
203.00	-27.174	24.921	
204.00	-28.340	26.024	
205.00	-29.792	-13.184	
206.00	-31.289	-11.748	
207.00	-33.265	-16.996	
208.00	-35.738	-31.208	
209.00	-39.029	-32.712	
210.00	-43.996	-37.425	
211.00	-53.231	-86.172	
212.00	-52.446	145.791	
213.00	-45.613	99.760	
214.00	-41.988	108.713	
215.00	-41.208	54.429	
216.00	-39.681	55.120	
217.00	-38.047	9.314	
218.00	-36.221	-6.984	
219.00	-34.730	-1.224	
220.00	-32.801	-51.776	
221.00	-32.026	-50.475	
222.00	-31.115	-73.101	
223.00	-30.480	-99.051	
224.00	-30.079	-120.827	
225.00	-30.091	-142.165	
226.00	-30.226	-149.337	
227.00	-30.523	-157.869	
228.00	-30.799	178.132	
229.00	-31.159	-161.724	
230.00	-31.147	174.383	
231.00	-31.226	167.080	
232.00	-31.501	144.109	
233.00	-31.907	109.975	
234.00	-32.729	137.128	
235.00	-34.043	81.278	
236.00	-35.222	89.363	
237.00	-36.727	96.175	
238.00	-39.393	60.003	
239.00	-42.450	46.286	
240.00	-45.087	82.421	
241.00	-52.441	18.928	
242.00	-60.815	131.712	
243.00	-53.097	-154.362	
244.00	-48.268	-153.666	
245.00	-45.785	-137.063	
246.00	-44.451	170.433	
247.00	-43.187	-151.064	
248.00	-44.124	-168.987	
249.00	-43.903	-145.456	
250.00	-44.386	-152.643	
251.00	-45.803	-146.235	
252.00	-45.741	-129.444	
253.00	-47.898	-125.430	
254.00	-48.303	-109.876	
255.00	-49.912	-78.920	
256.00	-47.825	-80.820	
257.00	-49.584	-45.980	
258.00	-46.115	-74.462	
259.00	-45.569	-72.958	
260.00	-45.592	-75.867	
261.00	-44.789	-101.156	
262.00	-45.320	-90.393	
263.00	-44.667	-119.452	
264.00	-44.198	-132.813	
265.00	-45.013	-169.242	
266.00	-45.272	156.638	
267.00	-44.869	130.932	
268.00	-44.715	92.841	
269.00	-43.993	101.331	
270.00	-43.988	79.938	
271.00	-43.577	84.962	
272.00	-43.964	95.857	
273.00	-45.448	52.671	
274.00	-44.447	116.914	
275.00	-47.557	71.473	
276.00	-47.006	113.712	
277.00	-46.660	128.921	
278.00	-44.935	143.929	
279.00	-43.509	160.860	
280.00	-42.606	144.798	
281.00	-42.390	129.814	
282.00	-42.145	120.232	
283.00	-42.759	101.247	
284.00	-42.532	111.537	
285.00	-44.178	73.430	
286.00	-45.784	84.467	
287.00	-48.505	63.985	
288.00	-52.947	89.293	
289.00	-83.367	1.535	
290.00	-55.387	-135.860	
291.00	-48.952	-143.213	
292.00	-45.612	-152.318	
293.00	-43.837	-159.060	
294.00	-42.444	-140.442	
295.00	-42.033	-166.084	
296.00	-42.130	-155.042	
297.00	-42.408	-159.742	
298.00	-43.322	-162.186	
299.00	-45.541	-147.701	
300.00	-46.326	-147.308	
301.00	-46.494	-135.102	
302.00	-45.644	-109.210	
303.00	-44.529	-107.071	
304.00	-43.532	-91.576	
305.00	-42.399	-89.694	
306.00	-41.369	-72.707	
307.00	-40.199	-84.965	
308.00	-39.285	-66.812	
309.00	-38.373	-63.101	
310.00	-37.334	-92.582	
311.00	-36.817	-72.188	
312.00	-36.361	-93.539	
313.00	-36.215	-85.032	
314.00	-36.159	-73.201	
315.00	-35.833	-105.091	
316.00	-36.179	-62.653	
317.00	-35.671	-95.696	
318.00	-35.546	-86.890	
319.00	-35.643	-84.083	
320.00	-35.587	-85.118	
321.00	-35.865	-79.642	
322.00	-36.040	-93.407	
323.00	-36.577	-78.621	
324.00	-36.972	-97.198	
325.00	-37.666	-86.226	
326.00	-38.502	-88.988	
327.00	-39.231	-94.907	
328.00	-40.362	-93.808	
329.00	-41.850	-62.523	
330.00	-41.637	-90.924	
331.00	-42.327	-83.644	
332.00	-42.846	-67.882	
333.00	-43.205	-83.586	
334.00	-44.063	-61.451	
335.00	-43.602	-88.242	
336.00	-43.808	-79.906	
337.00	-43.478	-92.917	
338.00	-43.391	-91.849	
339.00	-43.379	-111.831	
340.00	-43.713	-115.291	
341.00	-44.540	-117.721	
342.00	-45.764	-106.304	
343.00	-47.550	-164.634	
344.00	-49.250	-157.617	
345.00	-48.945	147.035	
346.00	-47.862	128.661	
347.00	-45.444	114.810	
348.00	-42.446	94.985	
349.00	-40.399	89.763	
350.00	-38.997	95.965	
351.00	-37.228	80.115	
352.00	-36.082	99.521	
353.00	-34.702	85.000	
354.00	-33.888	103.182	
355.00	-33.107	98.656	
356.00	-32.580	103.639	
357.00	-32.269	107.141	
358.00	-32.080	108.638	
359.00	-32.072	105.398	
Frequency	2575.00	MHz	
Channel	test		
Scan Axis name	Azimuth  [deg]		
Scan Axis	Amplitude	Phase	
			
0.00	-33.328	-62.583	
1.00	-33.516	-46.352	
2.00	-32.720	-83.130	
3.00	-33.706	-10.441	
4.00	-33.249	-16.258	
5.00	-32.941	-22.887	
6.00	-33.037	7.948	
7.00	-32.740	-23.901	
8.00	-32.906	-18.930	
9.00	-33.030	-27.756	
10.00	-33.583	-37.516	
11.00	-34.190	-20.872	
12.00	-34.889	-74.211	
13.00	-36.277	-43.142	
14.00	-37.217	-95.366	
15.00	-38.223	-76.213	
16.00	-39.711	-67.665	
17.00	-41.003	-73.688	
18.00	-42.562	-69.928	
19.00	-44.381	-86.215	
20.00	-44.989	-113.710	
21.00	-45.524	-177.925	
22.00	-47.826	144.992	
23.00	-46.994	-167.403	
24.00	-45.561	-173.931	
25.00	-45.029	158.195	
26.00	-42.804	-158.624	
27.00	-42.115	-176.513	
28.00	-40.939	-149.719	
29.00	-39.744	-126.278	
30.00	-39.300	-119.139	
31.00	-38.898	-160.732	
32.00	-38.457	-108.853	
33.00	-38.291	-120.667	
34.00	-38.546	-134.969	
35.00	-38.822	-138.425	
36.00	-39.195	-118.426	
37.00	-39.631	-126.268	
38.00	-39.975	-112.147	
39.00	-40.675	-131.019	
40.00	-40.880	-142.992	
41.00	-40.917	-119.918	
42.00	-41.911	-128.944	
43.00	-42.684	-93.362	
44.00	-44.152	-101.746	
45.00	-45.971	-115.694	
46.00	-46.318	-66.875	
47.00	-47.760	-106.785	
48.00	-47.075	-48.953	
49.00	-46.299	-52.299	
50.00	-46.292	-21.654	
51.00	-46.083	-35.709	
52.00	-46.194	-25.898	
53.00	-46.433	-30.421	
54.00	-45.690	-51.819	
55.00	-44.665	-61.804	
56.00	-43.250	-33.208	
57.00	-42.101	-67.832	
58.00	-41.616	-47.090	
59.00	-41.811	-83.223	
60.00	-41.725	-34.093	
61.00	-41.799	-45.395	
62.00	-42.168	-53.689	
63.00	-43.290	-30.104	
64.00	-43.522	-97.290	
65.00	-43.654	-80.900	
66.00	-44.426	-81.146	
67.00	-44.975	-131.545	
68.00	-46.798	-119.818	
69.00	-49.571	-130.194	
70.00	-49.625	-154.719	
71.00	-48.397	-116.795	
72.00	-47.927	-109.063	
73.00	-46.665	-100.864	
74.00	-45.567	-8.327	
75.00	-43.966	-19.297	
76.00	-42.169	-14.865	
77.00	-41.688	32.054	
78.00	-39.858	-10.545	
79.00	-39.389	24.360	
80.00	-38.779	6.614	
81.00	-38.913	50.283	
82.00	-39.257	76.761	
83.00	-39.559	82.626	
84.00	-40.179	52.918	
85.00	-40.868	74.949	
86.00	-40.992	11.369	
87.00	-40.957	56.966	
88.00	-39.949	45.883	
89.00	-38.517	20.905	
90.00	-37.393	43.834	
91.00	-36.200	67.381	
92.00	-35.485	55.447	
93.00	-35.083	93.539	
94.00	-34.944	105.125	
95.00	-35.116	93.078	
96.00	-35.426	75.413	
97.00	-36.142	98.190	
98.00	-37.040	39.658	
99.00	-37.679	135.035	
100.00	-39.365	38.319	
101.00	-40.266	-6.919	
102.00	-40.458	42.111	
103.00	-39.907	-34.088	
104.00	-39.179	1.800	
105.00	-38.801	-29.810	
106.00	-37.373	-62.194	
107.00	-37.602	23.501	
108.00	-37.663	-4.715	
109.00	-37.940	13.730	
110.00	-38.722	44.363	
111.00	-39.933	56.432	
112.00	-41.166	-13.704	
113.00	-44.290	20.338	
114.00	-48.657	44.393	
115.00	-53.066	25.279	
116.00	-51.794	-46.775	
117.00	-46.701	-47.960	
118.00	-44.108	-59.508	
119.00	-42.260	-36.883	
120.00	-41.404	-31.094	
121.00	-40.546	-39.854	
122.00	-40.656	-23.946	
123.00	-40.707	-53.691	
124.00	-41.084	-18.275	
125.00	-41.243	-63.524	
126.00	-42.876	-8.561	
127.00	-44.049	-21.675	
128.00	-45.435	18.322	
129.00	-46.558	-5.420	
130.00	-47.294	-1.968	
131.00	-45.790	-60.723	
132.00	-42.387	-58.450	
133.00	-40.179	-48.904	
134.00	-37.793	-14.974	
135.00	-36.300	-14.434	
136.00	-35.032	2.977	
137.00	-34.634	-62.799	
138.00	-33.617	3.661	
139.00	-33.281	-43.428	
140.00	-32.773	-41.278	
141.00	-31.920	24.708	
142.00	-31.896	-22.790	
143.00	-31.598	58.676	
144.00	-31.901	49.457	
145.00	-32.203	57.439	
146.00	-32.773	86.598	
147.00	-33.396	75.694	
148.00	-34.365	90.803	
149.00	-35.241	80.831	
150.00	-36.533	94.661	
151.00	-38.065	122.793	
152.00	-39.169	105.982	
153.00	-40.715	137.260	
154.00	-41.349	89.713	
155.00	-42.131	94.614	
156.00	-42.143	87.412	
157.00	-42.843	53.018	
158.00	-41.089	95.848	
159.00	-42.415	31.042	
160.00	-40.561	73.103	
161.00	-40.483	52.443	
162.00	-39.622	58.510	
163.00	-39.075	68.673	
164.00	-38.896	63.441	
165.00	-37.837	121.632	
166.00	-37.878	119.188	
167.00	-38.710	95.884	
168.00	-39.487	139.695	
169.00	-42.280	106.192	
170.00	-47.183	143.963	
171.00	-58.459	-171.035	
172.00	-47.292	-63.500	
173.00	-40.653	-51.994	
174.00	-36.721	-43.946	
175.00	-33.933	-37.752	
176.00	-31.691	-22.886	
177.00	-30.084	-18.022	
178.00	-28.675	-18.370	
179.00	-27.559	-28.801	
180.00	-26.457	-23.147	
181.00	-25.521	-20.919	
182.00	-24.802	-39.223	
183.00	-24.085	-64.156	
184.00	-23.495	-36.676	
185.00	-23.109	-55.634	
186.00	-22.624	-46.840	
187.00	-22.265	-49.295	
188.00	-21.951	-78.360	
189.00	-21.701	-49.216	
190.00	-21.538	-75.614	
191.00	-21.432	-49.130	
192.00	-21.461	-83.760	
193.00	-21.494	-75.892	
194.00	-21.543	-45.419	
195.00	-21.724	-88.208	
196.00	-21.985	-42.980	
197.00	-22.479	-87.778	
198.00	-23.034	-83.065	
199.00	-23.685	-88.841	
200.00	-24.561	-117.429	
201.00	-25.504	-92.299	
202.00	-26.693	-116.248	
203.00	-27.925	-131.619	
204.00	-29.214	-129.918	
205.00	-30.819	-167.043	
206.00	-32.467	-164.620	
207.00	-34.464	-166.372	
208.00	-37.225	-175.812	
209.00	-40.354	-166.082	
210.00	-44.681	-148.966	
211.00	-47.233	-121.618	
212.00	-43.695	-84.292	
213.00	-40.649	-99.721	
214.00	-38.494	-76.487	
215.00	-37.953	-119.273	
216.00	-37.258	-110.464	
217.00	-37.575	-148.150	
218.00	-36.927	-163.157	
219.00	-36.002	-160.951	
220.00	-35.055	144.250	
221.00	-34.293	143.611	
222.00	-33.486	118.556	
223.00	-32.848	90.048	
224.00	-32.271	68.387	
225.00	-32.209	47.303	
226.00	-32.362	42.929	
227.00	-32.846	36.678	
228.00	-33.512	12.548	
229.00	-34.183	34.795	
230.00	-34.714	8.432	
231.00	-34.625	-0.362	
232.00	-34.724	-26.388	
233.00	-34.578	-60.867	
234.00	-34.987	-33.185	
235.00	-35.751	-88.261	
236.00	-36.399	-78.045	
237.00	-37.038	-66.729	
238.00	-38.288	-103.665	
239.00	-40.088	-105.828	
240.00	-40.545	-71.450	
241.00	-43.809	-110.968	
242.00	-44.324	-75.735	
243.00	-48.967	-82.364	
244.00	-51.418	-58.184	
245.00	-52.666	-7.778	
246.00	-47.627	-18.415	
247.00	-46.344	26.820	
248.00	-43.929	12.358	
249.00	-43.230	33.636	
250.00	-42.153	18.539	
251.00	-42.368	16.347	
252.00	-42.395	24.071	
253.00	-43.666	12.132	
254.00	-45.126	5.153	
255.00	-46.276	30.195	
256.00	-48.566	4.392	
257.00	-49.391	34.524	
258.00	-52.752	-4.598	
259.00	-53.946	-1.150	
260.00	-54.260	3.922	
261.00	-52.611	-17.610	
262.00	-50.212	6.165	
263.00	-48.048	-15.005	
264.00	-45.895	-23.917	
265.00	-45.173	-53.853	
266.00	-43.969	-77.691	
267.00	-42.481	-95.724	
268.00	-41.810	-126.277	
269.00	-41.165	-115.165	
270.00	-40.999	-133.780	
271.00	-40.809	-127.226	
272.00	-40.999	-122.991	
273.00	-41.579	-155.478	
274.00	-42.127	-107.312	
275.00	-43.516	-149.685	
276.00	-44.294	-116.940	
277.00	-45.374	-109.588	
278.00	-45.361	-91.748	
279.00	-44.989	-70.437	
280.00	-44.331	-82.829	
281.00	-43.553	-97.498	
282.00	-43.053	-103.281	
283.00	-43.057	-120.221	
284.00	-43.470	-109.902	
285.00	-44.015	-141.805	
286.00	-45.952	-136.346	
287.00	-48.015	-157.119	
288.00	-51.386	-149.797	
289.00	-58.930	175.990	
290.00	-58.262	72.526	
291.00	-51.115	39.912	
292.00	-47.936	17.899	
293.00	-45.523	6.271	
294.00	-44.294	31.034	
295.00	-43.284	-0.917	
296.00	-43.013	15.746	
297.00	-43.377	9.270	
298.00	-43.994	4.327	
299.00	-45.358	24.237	
300.00	-45.805	10.181	
301.00	-46.468	11.538	
302.00	-46.667	43.268	
303.00	-47.328	45.752	
304.00	-46.016	72.252	
305.00	-45.041	78.939	
306.00	-43.131	100.488	
307.00	-42.029	85.444	
308.00	-40.511	105.112	
309.00	-39.338	108.699	
310.00	-38.471	78.846	
311.00	-37.805	100.158	
312.00	-37.412	79.628	
313.00	-37.056	88.544	
314.00	-37.027	99.193	
315.00	-36.911	67.195	
316.00	-37.202	108.802	
317.00	-36.939	74.073	
318.00	-37.170	84.457	
319.00	-37.336	87.007	
320.00	-37.544	89.308	
321.00	-37.890	95.933	
322.00	-37.832	85.974	
323.00	-38.284	102.944	
324.00	-38.327	84.977	
325.00	-38.654	96.458	
326.00	-39.014	91.795	
327.00	-39.179	83.789	
328.00	-39.874	82.878	
329.00	-40.919	109.441	
330.00	-40.787	77.156	
331.00	-41.361	79.599	
332.00	-42.439	92.443	
333.00	-42.895	75.151	
334.00	-43.690	96.045	
335.00	-43.592	68.619	
336.00	-43.639	76.560	
337.00	-43.556	61.017	
338.00	-43.924	65.038	
339.00	-44.156	44.124	
340.00	-44.795	43.507	
341.00	-45.762	40.132	
342.00	-46.521	52.883	
343.00	-46.701	-5.994	
344.00	-46.840	4.514	
345.00	-45.021	-40.790	
346.00	-44.062	-45.984	
347.00	-42.783	-55.250	
348.00	-40.907	-72.149	
349.00	-39.371	-77.864	
350.00	-38.106	-69.565	
351.00	-36.354	-87.503	
352.00	-35.642	-69.617	
353.00	-34.406	-85.945	
354.00	-34.022	-68.214	
355.00	-33.363	-74.073	
356.00	-32.989	-68.727	
357.00	-32.743	-65.220	
358.00	-32.632	-62.644	
359.00	-32.535	-66.482	
Frequency	2600.00	MHz	
Channel	test		
Scan Axis name	Azimuth  [deg]		
Scan Axis	Amplitude	Phase	
			
0.00	-33.191	132.302	
1.00	-32.726	145.922	
2.00	-31.692	103.969	
3.00	-32.087	174.931	
4.00	-31.662	162.980	
5.00	-31.619	154.949	
6.00	-31.915	-177.319	
7.00	-32.286	149.525	
8.00	-33.034	154.430	
9.00	-33.774	145.158	
10.00	-34.854	136.235	
11.00	-36.148	152.284	
12.00	-37.158	97.514	
13.00	-39.405	128.800	
14.00	-40.426	74.385	
15.00	-41.831	90.769	
16.00	-42.523	98.976	
17.00	-43.098	94.293	
18.00	-43.742	97.898	
19.00	-44.427	85.123	
20.00	-44.611	53.862	
21.00	-43.648	-13.108	
22.00	-44.287	-49.137	
23.00	-46.266	6.729	
24.00	-46.189	-2.458	
25.00	-44.647	-35.523	
26.00	-44.510	-0.767	
27.00	-42.457	-23.301	
28.00	-41.385	2.872	
29.00	-40.360	22.730	
30.00	-39.876	32.112	
31.00	-39.977	-8.817	
32.00	-39.893	43.414	
33.00	-40.348	32.397	
34.00	-40.356	15.215	
35.00	-40.960	12.296	
36.00	-41.602	29.826	
37.00	-42.273	22.000	
38.00	-42.591	32.445	
39.00	-43.059	15.059	
40.00	-43.012	3.310	
41.00	-42.575	25.888	
42.00	-42.939	17.565	
43.00	-42.705	51.590	
44.00	-42.787	41.584	
45.00	-43.519	27.082	
46.00	-42.985	79.101	
47.00	-43.350	24.516	
48.00	-43.558	92.268	
49.00	-42.686	86.965	
50.00	-43.037	124.732	
51.00	-42.907	106.715	
52.00	-44.184	128.964	
53.00	-45.690	131.790	
54.00	-45.844	108.182	
55.00	-46.375	96.322	
56.00	-45.653	124.248	
57.00	-44.583	84.848	
58.00	-44.015	107.159	
59.00	-43.309	65.168	
60.00	-44.413	135.872	
61.00	-45.893	127.174	
62.00	-47.105	125.630	
63.00	-50.081	163.682	
64.00	-51.042	68.158	
65.00	-56.888	105.587	
66.00	-59.941	133.604	
67.00	-56.085	85.055	
68.00	-57.258	153.867	
69.00	-54.684	172.546	
70.00	-52.393	133.741	
71.00	-50.139	-161.919	
72.00	-49.019	-159.970	
73.00	-47.889	-170.583	
74.00	-44.340	-83.824	
75.00	-44.297	-118.517	
76.00	-42.757	-134.222	
77.00	-41.172	-99.994	
78.00	-40.733	-158.247	
79.00	-39.717	-127.274	
80.00	-39.237	-156.587	
81.00	-38.764	-115.312	
82.00	-38.642	-94.388	
83.00	-38.842	-92.440	
84.00	-39.135	-129.321	
85.00	-39.107	-107.740	
86.00	-39.462	-172.293	
87.00	-38.381	-119.865	
88.00	-37.570	-127.716	
89.00	-36.903	-150.119	
90.00	-36.321	-126.553	
91.00	-35.672	-101.952	
92.00	-35.615	-116.662	
93.00	-35.794	-75.940	
94.00	-36.048	-67.039	
95.00	-36.846	-83.495	
96.00	-37.754	-104.830	
97.00	-38.514	-92.902	
98.00	-39.014	-159.614	
99.00	-39.429	-67.846	
100.00	-38.806	-176.288	
101.00	-37.860	149.309	
102.00	-36.929	-160.014	
103.00	-36.038	138.511	
104.00	-35.643	179.146	
105.00	-35.382	156.351	
106.00	-35.462	132.492	
107.00	-35.878	-143.534	
108.00	-36.633	-164.301	
109.00	-38.042	-140.892	
110.00	-40.222	-108.823	
111.00	-44.136	-89.626	
112.00	-47.750	-149.581	
113.00	-56.995	-34.305	
114.00	-49.327	64.227	
115.00	-43.019	105.215	
116.00	-40.734	94.583	
117.00	-39.669	122.901	
118.00	-38.520	120.831	
119.00	-37.972	151.374	
120.00	-37.758	162.825	
121.00	-38.287	158.769	
122.00	-38.289	-179.713	
123.00	-39.609	159.616	
124.00	-40.411	-166.998	
125.00	-41.015	160.254	
126.00	-42.796	-139.972	
127.00	-43.993	-137.854	
128.00	-48.314	-81.228	
129.00	-51.324	-61.751	
130.00	-50.804	35.697	
131.00	-47.223	23.316	
132.00	-43.221	59.477	
133.00	-40.532	91.011	
134.00	-38.061	135.151	
135.00	-36.764	141.070	
136.00	-35.890	162.806	
137.00	-35.430	99.781	
138.00	-34.806	170.942	
139.00	-34.155	122.359	
140.00	-33.776	129.936	
141.00	-33.371	-165.731	
142.00	-32.956	148.872	
143.00	-33.465	-128.187	
144.00	-33.729	-137.595	
145.00	-34.226	-130.336	
146.00	-34.944	-101.794	
147.00	-35.644	-117.025	
148.00	-36.429	-104.465	
149.00	-37.418	-121.226	
150.00	-38.750	-109.526	
151.00	-39.972	-84.600	
152.00	-40.727	-103.742	
153.00	-41.216	-68.474	
154.00	-41.630	-115.399	
155.00	-41.911	-97.783	
156.00	-41.595	-92.647	
157.00	-41.769	-120.836	
158.00	-41.101	-57.500	
159.00	-40.520	-125.114	
160.00	-39.962	-74.925	
161.00	-38.844	-100.559	
162.00	-38.292	-91.908	
163.00	-37.713	-86.327	
164.00	-38.181	-89.676	
165.00	-37.932	-35.616	
166.00	-38.328	-46.801	
167.00	-39.074	-74.141	
168.00	-40.601	-36.372	
169.00	-42.708	-80.095	
170.00	-48.808	-59.746	
171.00	-54.134	-152.656	
172.00	-45.435	161.210	
173.00	-40.016	155.153	
174.00	-36.378	157.161	
175.00	-33.730	160.194	
176.00	-31.430	173.200	
177.00	-29.587	176.198	
178.00	-28.014	177.087	
179.00	-26.829	166.070	
180.00	-25.775	172.804	
181.00	-24.860	175.874	
182.00	-24.187	158.734	
183.00	-23.519	135.236	
184.00	-22.937	163.814	
185.00	-22.490	144.429	
186.00	-22.038	154.559	
187.00	-21.773	150.845	
188.00	-21.570	123.243	
189.00	-21.395	152.761	
190.00	-21.382	126.523	
191.00	-21.366	153.823	
192.00	-21.500	117.397	
193.00	-21.623	127.442	
194.00	-21.715	155.885	
195.00	-22.021	113.404	
196.00	-22.308	159.219	
197.00	-22.887	112.477	
198.00	-23.441	118.897	
199.00	-24.113	111.169	
200.00	-24.819	83.297	
201.00	-25.758	109.537	
202.00	-26.812	85.307	
203.00	-28.000	70.973	
204.00	-29.359	72.751	
205.00	-30.624	34.865	
206.00	-32.181	37.829	
207.00	-33.780	34.124	
208.00	-35.635	22.208	
209.00	-37.834	25.826	
210.00	-40.740	27.341	
211.00	-43.339	19.073	
212.00	-45.691	45.824	
213.00	-44.844	45.103	
214.00	-43.473	88.777	
215.00	-41.539	49.984	
216.00	-40.954	70.599	
217.00	-40.141	35.425	
218.00	-39.520	28.060	
219.00	-38.573	30.973	
220.00	-37.111	-18.507	
221.00	-36.354	-18.288	
222.00	-35.461	-41.880	
223.00	-34.766	-68.006	
224.00	-34.078	-90.511	
225.00	-33.771	-110.550	
226.00	-33.579	-113.891	
227.00	-33.692	-118.432	
228.00	-34.127	-138.266	
229.00	-34.449	-112.136	
230.00	-35.415	-138.167	
231.00	-35.870	-147.516	
232.00	-36.324	179.066	
233.00	-36.250	139.783	
234.00	-36.328	162.800	
235.00	-36.195	99.557	
236.00	-36.366	104.546	
237.00	-36.456	110.081	
238.00	-36.467	65.931	
239.00	-36.728	56.714	
240.00	-37.089	84.143	
241.00	-37.355	35.110	
242.00	-38.381	61.668	
243.00	-40.120	28.360	
244.00	-42.194	26.699	
245.00	-45.034	31.234	
246.00	-53.036	-46.577	
247.00	-51.933	-61.791	
248.00	-50.740	-149.168	
249.00	-47.471	-134.811	
250.00	-45.429	-174.571	
251.00	-45.227	178.973	
252.00	-45.514	-179.768	
253.00	-46.776	157.752	
254.00	-47.763	140.778	
255.00	-49.462	163.470	
256.00	-50.395	121.472	
257.00	-52.771	150.258	
258.00	-52.399	89.593	
259.00	-54.078	94.734	
260.00	-55.437	108.045	
261.00	-52.804	109.780	
262.00	-52.031	152.153	
263.00	-47.982	137.068	
264.00	-45.212	132.760	
265.00	-43.277	102.603	
266.00	-41.938	80.885	
267.00	-40.725	63.754	
268.00	-40.141	34.422	
269.00	-39.887	43.274	
270.00	-40.059	23.424	
271.00	-39.843	30.843	
272.00	-40.477	32.502	
273.00	-41.353	-0.830	
274.00	-41.852	46.600	
275.00	-43.584	2.981	
276.00	-44.848	36.483	
277.00	-46.497	43.488	
278.00	-47.597	63.838	
279.00	-47.529	86.924	
280.00	-47.104	77.078	
281.00	-46.351	64.618	
282.00	-45.729	61.414	
283.00	-45.853	46.742	
284.00	-46.143	54.638	
285.00	-47.841	25.622	
286.00	-49.645	33.445	
287.00	-54.725	17.782	
288.00	-64.492	31.920	
289.00	-61.449	169.921	
290.00	-51.005	-166.594	
291.00	-47.723	-176.948	
292.00	-45.143	173.442	
293.00	-43.810	165.908	
294.00	-42.738	-170.415	
295.00	-42.210	160.305	
296.00	-41.901	175.602	
297.00	-42.178	169.279	
298.00	-42.884	168.009	
299.00	-44.208	-176.036	
300.00	-44.556	173.728	
301.00	-45.503	169.836	
302.00	-46.026	-160.929	
303.00	-46.595	-154.768	
304.00	-46.417	-129.579	
305.00	-45.346	-116.633	
306.00	-43.938	-95.201	
307.00	-42.435	-106.703	
308.00	-41.046	-84.051	
309.00	-39.909	-81.919	
310.00	-38.823	-112.991	
311.00	-38.330	-90.685	
312.00	-37.842	-113.596	
313.00	-37.777	-102.989	
314.00	-37.756	-94.139	
315.00	-37.455	-124.768	
316.00	-38.017	-81.264	
317.00	-37.939	-116.848	
318.00	-38.064	-105.097	
319.00	-38.291	-104.035	
320.00	-38.722	-100.866	
321.00	-38.923	-95.710	
322.00	-38.854	-104.917	
323.00	-38.894	-88.340	
324.00	-38.657	-106.963	
325.00	-38.717	-95.955	
326.00	-38.802	-101.788	
327.00	-38.978	-110.672	
328.00	-39.441	-112.109	
329.00	-40.587	-84.649	
330.00	-40.201	-119.018	
331.00	-40.644	-116.155	
332.00	-41.081	-103.431	
333.00	-41.146	-123.786	
334.00	-41.747	-102.510	
335.00	-41.802	-134.059	
336.00	-42.297	-128.230	
337.00	-42.694	-143.448	
338.00	-43.179	-140.874	
339.00	-43.715	-161.079	
340.00	-44.384	-163.068	
341.00	-45.243	-165.734	
342.00	-46.185	-156.445	
343.00	-45.508	144.455	
344.00	-45.657	156.484	
345.00	-44.142	118.089	
346.00	-43.684	119.249	
347.00	-43.288	116.408	
348.00	-42.355	103.603	
349.00	-41.519	101.429	
350.00	-40.834	110.157	
351.00	-39.051	94.138	
352.00	-38.357	113.633	
353.00	-37.016	99.429	
354.00	-36.600	119.618	
355.00	-35.773	114.983	
356.00	-35.239	122.035	
357.00	-34.541	125.912	
358.00	-33.880	128.902	
359.00	-33.272	125.200	
Frequency	2625.00	MHz	
Channel	test		
Scan Axis name	Azimuth  [deg]		
Scan Axis	Amplitude	Phase	
			
0.00	-33.190	-34.792	
1.00	-33.088	-25.353	
2.00	-32.312	-69.324	
3.00	-33.314	-1.559	
4.00	-33.274	-16.437	
5.00	-33.637	-22.828	
6.00	-34.419	4.044	
7.00	-34.654	-26.807	
8.00	-35.689	-17.820	
9.00	-36.577	-25.843	
10.00	-38.248	-31.140	
11.00	-40.031	-17.007	
12.00	-42.204	-69.794	
13.00	-45.256	-47.764	
14.00	-47.389	-110.555	
15.00	-47.412	-110.712	
16.00	-44.839	-124.032	
17.00	-42.990	-129.809	
18.00	-41.594	-125.637	
19.00	-40.939	-136.143	
20.00	-40.288	-159.511	
21.00	-40.333	139.970	
22.00	-40.639	107.316	
23.00	-40.288	178.285	
24.00	-40.102	176.465	
25.00	-40.366	151.704	
26.00	-40.366	-163.736	
27.00	-40.414	170.498	
28.00	-40.171	-162.393	
29.00	-39.931	-146.649	
30.00	-39.699	-139.195	
31.00	-39.858	176.552	
32.00	-40.226	-126.639	
33.00	-40.537	-141.128	
34.00	-41.398	-153.640	
35.00	-41.765	-158.345	
36.00	-41.879	-140.192	
37.00	-42.453	-145.993	
38.00	-42.730	-134.825	
39.00	-43.019	-154.206	
40.00	-42.791	-166.028	
41.00	-42.564	-148.370	
42.00	-41.725	-165.105	
43.00	-41.221	-132.847	
44.00	-40.742	-156.149	
45.00	-40.353	-173.057	
46.00	-40.301	-123.492	
47.00	-39.788	179.627	
48.00	-40.169	-111.407	
49.00	-39.802	-118.712	
50.00	-40.282	-79.376	
51.00	-39.890	-95.766	
52.00	-40.614	-71.082	
53.00	-41.356	-62.452	
54.00	-42.056	-74.602	
55.00	-42.912	-70.574	
56.00	-44.119	-20.787	
57.00	-44.792	-64.107	
58.00	-45.251	-35.081	
59.00	-45.547	-78.039	
60.00	-44.750	12.249	
61.00	-44.795	2.915	
62.00	-44.324	14.780	
63.00	-42.749	64.844	
64.00	-43.481	-11.819	
65.00	-41.236	34.385	
66.00	-40.748	31.355	
67.00	-40.556	-28.428	
68.00	-39.992	-18.159	
69.00	-39.278	-20.627	
70.00	-38.199	-47.516	
71.00	-37.220	4.810	
72.00	-36.433	5.226	
73.00	-36.055	8.167	
74.00	-34.593	92.643	
75.00	-34.961	65.337	
76.00	-34.778	57.092	
77.00	-34.527	89.660	
78.00	-35.068	38.273	
79.00	-35.263	63.538	
80.00	-35.809	33.098	
81.00	-35.904	67.812	
82.00	-36.187	81.105	
83.00	-36.653	79.455	
84.00	-36.448	41.155	
85.00	-35.889	63.013	
86.00	-35.860	3.092	
87.00	-34.730	59.859	
88.00	-34.011	52.298	
89.00	-33.713	36.709	
90.00	-33.371	61.141	
91.00	-33.366	86.510	
92.00	-33.907	73.828	
93.00	-34.466	115.279	
94.00	-35.406	123.392	
95.00	-36.862	108.935	
96.00	-38.509	86.675	
97.00	-40.849	95.843	
98.00	-42.433	25.145	
99.00	-42.508	107.269	
100.00	-41.254	-12.600	
101.00	-39.171	-44.860	
102.00	-37.611	7.395	
103.00	-36.281	-54.113	
104.00	-35.856	-10.461	
105.00	-35.289	-36.228	
106.00	-35.553	-55.109	
107.00	-36.458	31.031	
108.00	-36.791	6.361	
109.00	-38.889	33.723	
110.00	-41.187	72.843	
111.00	-44.232	100.736	
112.00	-48.764	38.252	
113.00	-51.921	150.877	
114.00	-46.515	-138.413	
115.00	-43.259	-102.643	
116.00	-41.213	-112.459	
117.00	-39.772	-81.086	
118.00	-39.073	-81.939	
119.00	-38.630	-53.129	
120.00	-38.494	-42.888	
121.00	-38.571	-45.287	
122.00	-39.296	-30.011	
123.00	-39.466	-49.729	
124.00	-40.283	-16.551	
125.00	-40.480	-50.603	
126.00	-42.876	3.201	
127.00	-44.200	-3.316	
128.00	-50.318	42.309	
129.00	-56.320	36.135	
130.00	-56.686	-112.952	
131.00	-50.230	-152.618	
132.00	-44.240	-132.105	
133.00	-41.326	-106.657	
134.00	-38.942	-66.883	
135.00	-37.803	-59.006	
136.00	-37.114	-39.994	
137.00	-36.731	-98.378	
138.00	-36.278	-28.360	
139.00	-35.702	-74.493	
140.00	-35.379	-61.474	
141.00	-35.252	0.652	
142.00	-34.890	-40.012	
143.00	-35.622	46.954	
144.00	-35.641	39.864	
145.00	-36.033	50.249	
146.00	-36.940	80.097	
147.00	-37.342	62.573	
148.00	-38.660	73.133	
149.00	-39.266	50.867	
150.00	-40.513	58.130	
151.00	-41.134	76.781	
152.00	-40.442	58.309	
153.00	-40.248	96.746	
154.00	-39.093	51.882	
155.00	-38.623	74.812	
156.00	-37.506	81.953	
157.00	-36.910	54.868	
158.00	-36.294	120.893	
159.00	-35.496	50.885	
160.00	-34.876	108.230	
161.00	-34.219	80.161	
162.00	-33.731	93.066	
163.00	-33.610	99.878	
164.00	-34.150	101.537	
165.00	-34.292	160.445	
166.00	-35.064	151.465	
167.00	-36.354	130.022	
168.00	-38.093	172.211	
169.00	-41.073	133.874	
170.00	-46.812	-178.327	
171.00	-58.287	-96.920	
172.00	-44.135	-31.723	
173.00	-38.668	-23.337	
174.00	-35.280	-13.981	
175.00	-32.779	-9.224	
176.00	-30.613	6.952	
177.00	-28.901	8.968	
178.00	-27.462	11.723	
179.00	-26.296	1.304	
180.00	-25.194	9.983	
181.00	-24.193	12.971	
182.00	-23.397	-3.499	
183.00	-22.639	-26.434	
184.00	-22.049	3.162	
185.00	-21.606	-17.059	
186.00	-21.187	-5.073	
187.00	-20.906	-10.017	
188.00	-20.636	-35.939	
189.00	-20.367	-7.136	
190.00	-20.208	-32.788	
191.00	-20.133	-5.062	
192.00	-20.260	-42.104	
193.00	-20.399	-29.786	
194.00	-20.514	-3.086	
195.00	-20.787	-44.078	
196.00	-21.037	2.005	
197.00	-21.572	-45.154	
198.00	-22.140	-36.760	
199.00	-22.815	-45.776	
200.00	-23.612	-72.184	
201.00	-24.495	-46.146	
202.00	-25.551	-70.681	
203.00	-26.779	-83.974	
204.00	-28.176	-82.711	
205.00	-29.818	-120.463	
206.00	-31.660	-118.801	
207.00	-33.855	-125.279	
208.00	-36.362	-140.276	
209.00	-39.624	-144.989	
210.00	-43.911	-157.110	
211.00	-48.881	162.033	
212.00	-53.923	108.628	
213.00	-53.810	5.232	
214.00	-47.567	7.978	
215.00	-45.008	-63.186	
216.00	-42.808	-50.389	
217.00	-41.216	-96.282	
218.00	-40.050	-106.830	
219.00	-38.991	-108.336	
220.00	-37.147	-158.827	
221.00	-36.181	-159.902	
222.00	-35.172	177.301	
223.00	-34.707	151.951	
224.00	-34.449	128.434	
225.00	-34.402	107.889	
226.00	-34.201	100.416	
227.00	-34.264	92.884	
228.00	-34.696	71.241	
229.00	-34.693	95.678	
230.00	-35.594	68.180	
231.00	-36.296	60.620	
232.00	-37.168	24.688	
233.00	-37.343	-15.346	
234.00	-37.122	3.977	
235.00	-37.218	-61.352	
236.00	-37.288	-56.243	
237.00	-37.592	-52.571	
238.00	-37.935	-101.537	
239.00	-38.236	-113.011	
240.00	-38.777	-92.060	
241.00	-38.576	-150.374	
242.00	-39.399	-124.404	
243.00	-39.819	-166.310	
244.00	-40.988	-171.480	
245.00	-42.925	-165.229	
246.00	-44.440	105.026	
247.00	-45.537	130.643	
248.00	-46.758	74.025	
249.00	-46.164	78.057	
250.00	-46.773	30.918	
251.00	-46.207	17.355	
252.00	-46.459	15.741	
253.00	-47.023	-3.068	
254.00	-48.112	-21.834	
255.00	-48.470	-5.795	
256.00	-50.725	-42.692	
257.00	-52.165	-11.690	
258.00	-55.792	-74.622	
259.00	-58.826	-60.310	
260.00	-61.058	-26.620	
261.00	-56.835	-25.738	
262.00	-53.059	17.694	
263.00	-49.564	-9.093	
264.00	-46.815	-20.007	
265.00	-44.174	-59.766	
266.00	-42.974	-82.945	
267.00	-41.743	-103.763	
268.00	-40.614	-135.502	
269.00	-40.601	-124.566	
270.00	-40.256	-146.437	
271.00	-40.565	-138.257	
272.00	-40.897	-138.775	
273.00	-41.293	-170.453	
274.00	-42.579	-126.961	
275.00	-43.294	-171.699	
276.00	-44.495	-141.930	
277.00	-45.894	-134.265	
278.00	-46.709	-115.815	
279.00	-46.686	-93.267	
280.00	-46.758	-101.619	
281.00	-46.045	-111.970	
282.00	-45.235	-116.253	
283.00	-44.804	-129.972	
284.00	-44.814	-118.528	
285.00	-44.933	-150.828	
286.00	-46.009	-136.962	
287.00	-47.760	-150.910	
288.00	-48.925	-127.029	
289.00	-52.578	-145.822	
290.00	-55.642	-103.763	
291.00	-53.191	-61.388	
292.00	-51.171	-51.437	
293.00	-48.553	-49.234	
294.00	-47.714	-24.504	
295.00	-46.898	-45.158	
296.00	-47.033	-30.540	
297.00	-47.310	-32.453	
298.00	-48.381	-29.297	
299.00	-49.399	-10.708	
300.00	-50.532	-18.111	
301.00	-50.702	-14.224	
302.00	-51.028	23.005	
303.00	-50.264	27.666	
304.00	-48.409	49.359	
305.00	-46.978	59.804	
306.00	-45.681	81.525	
307.00	-44.264	69.957	
308.00	-42.865	91.535	
309.00	-41.575	93.500	
310.00	-40.115	65.625	
311.00	-39.572	89.464	
312.00	-38.637	66.885	
313.00	-38.393	79.248	
314.00	-37.986	88.063	
315.00	-37.414	57.190	
316.00	-37.409	97.674	
317.00	-37.032	57.188	
318.00	-37.291	66.754	
319.00	-37.726	64.881	
320.00	-38.388	67.903	
321.00	-39.206	72.855	
322.00	-39.582	65.047	
323.00	-40.252	81.481	
324.00	-40.294	64.057	
325.00	-40.831	76.364	
326.00	-41.507	71.013	
327.00	-41.955	67.784	
328.00	-43.028	71.160	
329.00	-43.748	106.202	
330.00	-42.888	72.502	
331.00	-42.996	78.403	
332.00	-43.850	89.110	
333.00	-44.682	64.700	
334.00	-46.129	88.246	
335.00	-47.511	53.575	
336.00	-48.589	64.489	
337.00	-49.869	39.159	
338.00	-50.223	38.172	
339.00	-50.188	-3.352	
340.00	-49.220	-12.620	
341.00	-48.383	-17.961	
342.00	-48.658	-5.215	
343.00	-45.874	-53.240	
344.00	-46.301	-30.600	
345.00	-44.095	-58.385	
346.00	-43.632	-47.018	
347.00	-43.126	-42.070	
348.00	-42.073	-44.684	
349.00	-41.093	-42.637	
350.00	-40.372	-28.672	
351.00	-38.653	-45.751	
352.00	-38.558	-24.849	
353.00	-37.016	-42.711	
354.00	-37.017	-22.839	
355.00	-35.941	-31.555	
356.00	-35.455	-26.501	
357.00	-34.908	-27.604	
358.00	-34.419	-29.152	
359.00	-33.823	-37.422	
Frequency	2650.00	MHz	
Channel	test		
Scan Axis name	Azimuth  [deg]		
Scan Axis	Amplitude	Phase	
			
0.00	-34.306	149.142	
1.00	-34.239	157.083	
2.00	-33.898	112.968	
3.00	-34.623	-177.472	
4.00	-34.658	167.857	
5.00	-34.947	165.293	
6.00	-35.608	-167.659	
7.00	-36.053	162.790	
8.00	-36.941	171.015	
9.00	-37.967	164.600	
10.00	-40.071	162.776	
11.00	-42.892	-178.136	
12.00	-48.177	137.968	
13.00	-62.633	141.582	
14.00	-56.125	-44.340	
15.00	-47.344	-3.397	
16.00	-44.229	8.311	
17.00	-42.383	10.121	
18.00	-41.050	18.723	
19.00	-40.453	10.001	
20.00	-39.866	-11.642	
21.00	-38.899	-71.037	
22.00	-38.961	-97.698	
23.00	-39.507	-33.619	
24.00	-39.681	-37.312	
25.00	-39.238	-63.088	
26.00	-39.754	-19.513	
27.00	-39.193	-45.651	
28.00	-39.369	-17.273	
29.00	-39.565	-1.929	
30.00	-39.795	6.622	
31.00	-39.641	-42.306	
32.00	-40.268	26.024	
33.00	-41.373	4.992	
34.00	-41.660	-7.276	
35.00	-42.557	-15.822	
36.00	-42.483	2.601	
37.00	-42.291	-8.233	
38.00	-41.286	5.544	
39.00	-41.063	-10.718	
40.00	-40.647	-24.210	
41.00	-39.711	1.766	
42.00	-39.409	-15.507	
43.00	-38.635	21.685	
44.00	-38.295	-4.166	
45.00	-37.840	-20.875	
46.00	-37.410	33.130	
47.00	-37.034	-26.914	
48.00	-37.101	52.091	
49.00	-37.109	44.273	
50.00	-37.339	83.976	
51.00	-37.608	64.760	
52.00	-37.970	88.914	
53.00	-38.602	93.943	
54.00	-38.857	79.088	
55.00	-39.338	85.844	
56.00	-39.802	136.549	
57.00	-39.656	98.582	
58.00	-39.764	134.161	
59.00	-39.353	93.807	
60.00	-39.141	-175.307	
61.00	-38.969	170.135	
62.00	-38.418	-173.473	
63.00	-36.822	-127.356	
64.00	-37.409	149.008	
65.00	-36.290	-160.546	
66.00	-35.947	-164.899	
67.00	-35.888	138.861	
68.00	-35.619	148.849	
69.00	-35.309	146.416	
70.00	-35.144	120.773	
71.00	-34.865	174.910	
72.00	-34.627	172.029	
73.00	-34.400	176.241	
74.00	-33.730	-100.956	
75.00	-33.774	-131.237	
76.00	-33.766	-139.599	
77.00	-33.762	-105.856	
78.00	-33.983	-160.055	
79.00	-34.238	-132.149	
80.00	-34.521	-164.628	
81.00	-34.971	-125.989	
82.00	-35.364	-111.096	
83.00	-35.537	-109.992	
84.00	-35.716	-149.797	
85.00	-35.386	-126.021	
86.00	-34.877	176.119	
87.00	-34.391	-125.821	
88.00	-33.889	-134.428	
89.00	-33.519	-147.716	
90.00	-33.498	-122.262	
91.00	-33.539	-94.790	
92.00	-34.082	-106.381	
93.00	-34.916	-60.862	
94.00	-35.903	-51.293	
95.00	-37.544	-61.810	
96.00	-39.584	-77.527	
97.00	-42.373	-61.018	
98.00	-46.385	-130.909	
99.00	-53.028	-49.984	
100.00	-46.849	153.522	
101.00	-43.807	125.047	
102.00	-41.642	161.667	
103.00	-40.123	107.679	
104.00	-39.847	152.550	
105.00	-39.311	129.294	
106.00	-39.153	116.210	
107.00	-40.236	-157.282	
108.00	-40.995	177.288	
109.00	-42.488	-146.570	
110.00	-44.577	-104.787	
111.00	-46.349	-72.507	
112.00	-48.417	-119.505	
113.00	-48.036	-40.576	
114.00	-45.251	12.527	
115.00	-43.422	51.433	
116.00	-43.467	37.762	
117.00	-42.482	66.832	
118.00	-42.242	62.366	
119.00	-41.876	94.229	
120.00	-42.031	104.472	
121.00	-42.851	97.866	
122.00	-43.028	117.107	
123.00	-44.200	92.105	
124.00	-44.659	117.229	
125.00	-43.972	80.058	
126.00	-46.453	125.583	
127.00	-47.360	101.801	
128.00	-48.380	112.701	
129.00	-47.490	80.800	
130.00	-45.140	86.601	
131.00	-43.400	42.297	
132.00	-40.666	45.672	
133.00	-39.365	65.492	
134.00	-38.248	98.720	
135.00	-37.829	102.989	
136.00	-37.702	120.167	
137.00	-36.821	52.346	
138.00	-38.258	127.029	
139.00	-37.023	71.177	
140.00	-37.503	85.811	
141.00	-38.985	149.296	
142.00	-38.569	109.127	
143.00	-40.070	-149.742	
144.00	-40.320	-152.882	
145.00	-40.110	-136.121	
146.00	-39.535	-104.978	
147.00	-40.655	-123.547	
148.00	-40.910	-114.979	
149.00	-42.703	-142.128	
150.00	-43.587	-134.737	
151.00	-44.457	-121.775	
152.00	-44.456	-144.496	
153.00	-43.233	-106.471	
154.00	-43.100	-153.395	
155.00	-42.236	-121.490	
156.00	-41.018	-112.009	
157.00	-40.667	-136.212	
158.00	-38.733	-63.509	
159.00	-38.490	-136.067	
160.00	-36.566	-70.494	
161.00	-35.787	-101.029	
162.00	-34.935	-86.515	
163.00	-34.530	-80.390	
164.00	-35.036	-74.780	
165.00	-34.847	-15.734	
166.00	-35.697	-23.452	
167.00	-37.169	-38.633	
168.00	-38.685	6.401	
169.00	-41.626	-16.403	
170.00	-44.599	46.604	
171.00	-44.472	76.761	
172.00	-40.775	121.706	
173.00	-37.928	138.916	
174.00	-35.509	156.309	
175.00	-33.515	165.798	
176.00	-31.802	-172.824	
177.00	-30.232	-168.856	
178.00	-28.932	-162.361	
179.00	-27.625	-171.056	
180.00	-26.508	-160.271	
181.00	-25.525	-156.598	
182.00	-24.651	-172.542	
183.00	-23.805	164.731	
184.00	-23.186	-164.701	
185.00	-22.503	174.244	
186.00	-22.009	-172.212	
187.00	-21.644	-178.193	
188.00	-21.246	157.182	
189.00	-20.988	-174.949	
190.00	-20.739	158.924	
191.00	-20.634	-173.014	
192.00	-20.685	149.171	
193.00	-20.825	164.257	
194.00	-20.962	-170.810	
195.00	-21.240	149.828	
196.00	-21.476	-164.576	
197.00	-22.047	147.918	
198.00	-22.655	158.615	
199.00	-23.393	148.687	
200.00	-24.316	124.261	
201.00	-25.168	151.118	
202.00	-26.408	127.358	
203.00	-27.811	116.618	
204.00	-29.488	119.787	
205.00	-31.830	83.836	
206.00	-34.393	90.249	
207.00	-37.722	90.673	
208.00	-42.359	84.327	
209.00	-49.398	115.132	
210.00	-51.691	-162.331	
211.00	-45.729	-145.346	
212.00	-42.216	-141.828	
213.00	-41.008	-170.033	
214.00	-39.602	-151.746	
215.00	-40.019	158.902	
216.00	-39.386	172.941	
217.00	-41.134	130.220	
218.00	-41.564	122.556	
219.00	-41.625	113.786	
220.00	-41.581	47.353	
221.00	-40.161	42.025	
222.00	-38.551	10.562	
223.00	-37.326	-18.853	
224.00	-36.483	-44.830	
225.00	-35.580	-67.079	
226.00	-35.130	-73.741	
227.00	-34.844	-81.607	
228.00	-34.543	-102.240	
229.00	-35.195	-76.740	
230.00	-35.264	-105.382	
231.00	-35.670	-111.057	
232.00	-35.798	-145.321	
233.00	-35.516	-178.823	
234.00	-35.432	-165.844	
235.00	-35.424	136.919	
236.00	-35.246	139.244	
237.00	-35.247	141.875	
238.00	-35.572	94.688	
239.00	-35.932	83.700	
240.00	-35.824	104.618	
241.00	-37.106	42.405	
242.00	-37.146	71.340	
243.00	-38.381	22.520	
244.00	-39.495	18.574	
245.00	-41.046	26.543	
246.00	-41.977	-80.419	
247.00	-44.428	-44.524	
248.00	-44.344	-110.826	
249.00	-45.046	-111.157	
250.00	-44.005	-156.469	
251.00	-43.256	-178.187	
252.00	-42.857	171.242	
253.00	-42.082	144.162	
254.00	-41.744	124.578	
255.00	-40.772	135.103	
256.00	-41.017	103.479	
257.00	-40.365	125.694	
258.00	-41.905	72.812	
259.00	-42.403	71.199	
260.00	-43.774	64.035	
261.00	-46.359	39.748	
262.00	-47.942	65.570	
263.00	-53.276	52.617	
264.00	-58.354	95.243	
265.00	-52.933	129.739	
266.00	-49.075	110.744	
267.00	-46.953	94.705	
268.00	-45.242	67.104	
269.00	-44.474	81.292	
270.00	-44.227	61.357	
271.00	-44.016	74.097	
272.00	-43.936	73.249	
273.00	-44.525	44.257	
274.00	-43.930	94.282	
275.00	-44.774	48.079	
276.00	-44.322	78.913	
277.00	-44.541	77.520	
278.00	-44.282	85.908	
279.00	-44.040	92.476	
280.00	-44.433	73.112	
281.00	-44.954	53.556	
282.00	-45.345	42.105	
283.00	-46.190	23.636	
284.00	-47.953	31.462	
285.00	-49.387	-6.224	
286.00	-53.109	7.935	
287.00	-58.205	-18.889	
288.00	-71.600	-20.648	
289.00	-60.021	163.745	
290.00	-53.849	179.802	
291.00	-50.785	168.697	
292.00	-48.995	149.562	
293.00	-47.664	144.078	
294.00	-48.362	166.555	
295.00	-48.065	144.038	
296.00	-49.462	159.664	
297.00	-50.484	161.718	
298.00	-50.910	-177.870	
299.00	-50.453	-154.176	
300.00	-48.710	-159.682	
301.00	-46.857	-166.602	
302.00	-46.165	-145.267	
303.00	-45.480	-154.565	
304.00	-45.137	-144.987	
305.00	-45.523	-144.747	
306.00	-45.848	-123.565	
307.00	-45.265	-133.321	
308.00	-44.519	-102.511	
309.00	-42.978	-96.605	
310.00	-41.082	-124.506	
311.00	-40.232	-99.446	
312.00	-39.482	-125.780	
313.00	-38.848	-113.263	
314.00	-38.530	-109.115	
315.00	-37.745	-143.103	
316.00	-38.146	-104.262	
317.00	-37.917	-147.230	
318.00	-38.580	-137.764	
319.00	-39.273	-143.104	
320.00	-40.648	-140.487	
321.00	-42.103	-134.909	
322.00	-43.292	-138.527	
323.00	-44.106	-113.987	
324.00	-43.719	-126.838	
325.00	-44.195	-108.868	
326.00	-44.029	-112.770	
327.00	-44.529	-116.664	
328.00	-44.627	-114.081	
329.00	-45.392	-78.523	
330.00	-43.892	-115.668	
331.00	-44.220	-109.809	
332.00	-44.668	-96.895	
333.00	-45.187	-116.292	
334.00	-45.979	-92.453	
335.00	-46.222	-123.438	
336.00	-46.556	-115.775	
337.00	-46.539	-133.612	
338.00	-47.108	-135.252	
339.00	-47.651	-159.702	
340.00	-47.975	-163.286	
341.00	-47.830	-163.775	
342.00	-47.151	-151.724	
343.00	-45.649	158.427	
344.00	-44.517	-178.621	
345.00	-43.146	145.637	
346.00	-42.519	154.367	
347.00	-41.679	155.662	
348.00	-40.797	149.211	
349.00	-39.736	150.036	
350.00	-38.827	162.516	
351.00	-37.649	145.532	
352.00	-37.235	166.392	
353.00	-36.572	148.224	
354.00	-36.388	168.594	
355.00	-35.828	157.978	
356.00	-35.545	162.724	
357.00	-35.157	160.143	
358.00	-34.991	158.091	
359.00	-34.694	148.909	
Frequency	2675.00	MHz	
Channel	test		
Scan Axis name	Azimuth  [deg]		
Scan Axis	Amplitude	Phase	
			
0.00	-36.009	-1.170	
1.00	-35.881	9.467	
2.00	-35.596	-36.541	
3.00	-36.547	41.331	
4.00	-36.543	23.167	
5.00	-36.722	21.258	
6.00	-37.112	47.456	
7.00	-37.403	17.784	
8.00	-38.171	29.580	
9.00	-38.888	24.976	
10.00	-40.238	30.568	
11.00	-41.573	57.979	
12.00	-42.619	25.496	
13.00	-43.088	88.776	
14.00	-44.005	57.742	
15.00	-42.732	107.067	
16.00	-42.296	134.924	
17.00	-42.075	146.579	
18.00	-41.836	159.327	
19.00	-41.428	158.744	
20.00	-40.955	143.329	
21.00	-40.580	91.101	
22.00	-40.973	63.660	
23.00	-41.213	122.731	
24.00	-41.262	118.388	
25.00	-41.563	93.508	
26.00	-41.083	134.702	
27.00	-40.857	106.295	
28.00	-40.410	137.062	
29.00	-40.094	148.044	
30.00	-39.932	155.973	
31.00	-40.491	112.440	
32.00	-40.172	170.043	
33.00	-40.301	150.227	
34.00	-40.722	136.709	
35.00	-40.625	129.186	
36.00	-39.757	146.303	
37.00	-39.194	138.446	
38.00	-38.142	153.366	
39.00	-37.842	137.784	
40.00	-37.281	128.346	
41.00	-36.602	156.182	
42.00	-36.734	140.873	
43.00	-36.451	179.274	
44.00	-37.090	155.101	
45.00	-37.260	141.953	
46.00	-37.422	-169.381	
47.00	-37.929	136.945	
48.00	-38.258	-147.540	
49.00	-38.508	-155.784	
50.00	-39.548	-116.144	
51.00	-39.876	-135.470	
52.00	-41.069	-112.574	
53.00	-41.753	-108.528	
54.00	-42.045	-126.898	
55.00	-42.400	-116.679	
56.00	-43.225	-62.340	
57.00	-42.663	-95.887	
58.00	-42.329	-52.241	
59.00	-41.829	-89.852	
60.00	-40.277	5.738	
61.00	-39.897	-7.685	
62.00	-38.820	11.569	
63.00	-37.320	54.252	
64.00	-37.802	-26.962	
65.00	-36.737	21.296	
66.00	-36.456	13.949	
67.00	-36.795	-42.731	
68.00	-36.585	-34.821	
69.00	-36.417	-37.792	
70.00	-36.424	-68.389	
71.00	-35.914	-11.492	
72.00	-35.781	-19.150	
73.00	-35.431	-15.307	
74.00	-34.265	66.656	
75.00	-34.305	35.079	
76.00	-34.048	29.060	
77.00	-33.635	64.392	
78.00	-33.985	10.379	
79.00	-33.974	42.375	
80.00	-34.506	11.259	
81.00	-34.903	55.250	
82.00	-35.509	74.859	
83.00	-36.250	77.208	
84.00	-36.978	39.620	
85.00	-37.368	63.482	
86.00	-37.797	-1.039	
87.00	-37.322	59.783	
88.00	-37.277	47.015	
89.00	-37.016	31.528	
90.00	-36.648	56.606	
91.00	-36.600	84.869	
92.00	-37.197	71.793	
93.00	-37.445	118.244	
94.00	-38.476	128.120	
95.00	-40.057	119.197	
96.00	-42.343	106.613	
97.00	-45.459	127.739	
98.00	-50.641	75.998	
99.00	-53.181	167.643	
100.00	-56.370	-49.803	
101.00	-49.057	-79.852	
102.00	-49.217	-20.355	
103.00	-44.641	-85.029	
104.00	-43.892	-29.749	
105.00	-42.739	-58.274	
106.00	-43.098	-71.767	
107.00	-44.390	26.928	
108.00	-44.649	5.796	
109.00	-44.748	45.130	
110.00	-44.510	93.166	
111.00	-44.118	118.028	
112.00	-45.243	56.829	
113.00	-43.444	118.338	
114.00	-42.236	153.468	
115.00	-41.333	-176.331	
116.00	-41.554	173.451	
117.00	-41.526	-160.443	
118.00	-42.008	-163.719	
119.00	-42.563	-137.682	
120.00	-42.615	-135.232	
121.00	-44.355	-130.004	
122.00	-45.251	-125.759	
123.00	-46.746	-132.523	
124.00	-48.456	-115.279	
125.00	-50.509	-133.097	
126.00	-50.171	-114.979	
127.00	-50.979	-128.870	
128.00	-47.092	-126.445	
129.00	-45.495	-146.137	
130.00	-43.088	-125.937	
131.00	-41.732	-161.314	
132.00	-40.500	-152.134	
133.00	-38.915	-129.347	
134.00	-38.246	-98.547	
135.00	-38.034	-95.004	
136.00	-38.573	-81.592	
137.00	-38.454	-136.526	
138.00	-39.654	-65.155	
139.00	-38.949	-115.184	
140.00	-39.294	-97.014	
141.00	-40.538	-39.490	
142.00	-39.946	-73.728	
143.00	-41.821	22.605	
144.00	-41.129	13.740	
145.00	-41.078	29.674	
146.00	-40.914	62.652	
147.00	-41.399	36.802	
148.00	-42.420	48.637	
149.00	-43.748	14.311	
150.00	-46.025	30.027	
151.00	-47.970	44.698	
152.00	-51.281	15.373	
153.00	-53.927	69.688	
154.00	-57.836	-3.207	
155.00	-57.535	91.836	
156.00	-52.780	117.531	
157.00	-48.994	93.484	
158.00	-43.200	162.424	
159.00	-42.136	80.645	
160.00	-39.170	143.235	
161.00	-38.457	103.548	
162.00	-37.693	118.463	
163.00	-37.286	121.632	
164.00	-37.236	128.666	
165.00	-37.093	-173.472	
166.00	-37.778	177.757	
167.00	-38.808	167.141	
168.00	-39.589	-147.724	
169.00	-40.824	-169.344	
170.00	-41.731	-118.133	
171.00	-41.594	-113.955	
172.00	-41.722	-76.625	
173.00	-40.821	-53.192	
174.00	-39.682	-23.427	
175.00	-37.548	-5.563	
176.00	-35.666	24.289	
177.00	-33.452	28.777	
178.00	-31.860	38.353	
179.00	-30.291	28.226	
180.00	-28.867	40.588	
181.00	-27.642	44.063	
182.00	-26.531	27.376	
183.00	-25.512	4.383	
184.00	-24.851	35.799	
185.00	-24.089	11.961	
186.00	-23.521	26.122	
187.00	-22.976	17.926	
188.00	-22.445	-6.152	
189.00	-22.161	21.562	
190.00	-21.881	-4.897	
191.00	-21.770	23.749	
192.00	-21.630	-15.788	
193.00	-21.763	1.891	
194.00	-21.811	25.514	
195.00	-21.961	-12.555	
196.00	-22.262	33.417	
197.00	-22.662	-15.114	
198.00	-23.182	-2.482	
199.00	-23.794	-13.989	
200.00	-24.574	-37.210	
201.00	-25.369	-10.897	
202.00	-26.346	-36.033	
203.00	-27.532	-46.231	
204.00	-28.965	-43.486	
205.00	-30.986	-77.969	
206.00	-33.168	-71.142	
207.00	-35.840	-72.114	
208.00	-39.435	-80.136	
209.00	-44.239	-63.435	
210.00	-52.043	-14.826	
211.00	-47.353	35.020	
212.00	-42.635	47.832	
213.00	-40.580	18.834	
214.00	-38.896	40.971	
215.00	-38.604	-12.585	
216.00	-37.775	4.666	
217.00	-37.965	-35.350	
218.00	-37.933	-38.105	
219.00	-38.126	-42.003	
220.00	-38.058	-98.937	
221.00	-37.329	-106.062	
222.00	-36.250	-137.073	
223.00	-35.380	-166.159	
224.00	-34.827	168.996	
225.00	-34.446	145.873	
226.00	-34.185	137.376	
227.00	-33.878	127.963	
228.00	-33.709	105.073	
229.00	-33.791	130.642	
230.00	-34.121	101.218	
231.00	-34.577	96.841	
232.00	-35.352	58.535	
233.00	-35.716	22.504	
234.00	-35.786	33.452	
235.00	-35.684	-33.094	
236.00	-35.706	-32.277	
237.00	-35.694	-31.196	
238.00	-35.678	-87.222	
239.00	-35.598	-96.784	
240.00	-35.912	-78.733	
241.00	-35.884	-140.355	
242.00	-36.476	-115.358	
243.00	-36.932	-162.870	
244.00	-37.794	-167.364	
245.00	-38.846	-167.191	
246.00	-40.735	102.644	
247.00	-41.193	135.685	
248.00	-42.568	76.167	
249.00	-43.568	84.139	
250.00	-44.064	23.491	
251.00	-44.450	1.806	
252.00	-44.128	-16.973	
253.00	-43.507	-52.745	
254.00	-41.758	-74.737	
255.00	-40.765	-70.080	
256.00	-39.698	-100.568	
257.00	-38.877	-80.307	
258.00	-39.234	-131.434	
259.00	-39.391	-130.684	
260.00	-40.289	-140.761	
261.00	-42.463	-167.687	
262.00	-42.941	-143.356	
263.00	-46.647	-168.908	
264.00	-54.228	-173.955	
265.00	-58.815	-31.111	
266.00	-50.181	-53.919	
267.00	-46.751	-77.899	
268.00	-45.149	-108.977	
269.00	-43.823	-101.629	
270.00	-42.867	-126.231	
271.00	-42.546	-115.815	
272.00	-42.454	-120.599	
273.00	-42.774	-152.767	
274.00	-42.423	-111.565	
275.00	-43.480	-161.056	
276.00	-43.706	-133.794	
277.00	-44.374	-141.020	
278.00	-45.098	-137.431	
279.00	-45.625	-132.337	
280.00	-46.743	-156.040	
281.00	-47.795	175.885	
282.00	-49.252	156.744	
283.00	-49.616	119.392	
284.00	-50.837	113.909	
285.00	-49.366	60.983	
286.00	-48.566	51.365	
287.00	-47.326	19.246	
288.00	-46.287	26.793	
289.00	-44.931	-15.292	
290.00	-43.878	-3.366	
291.00	-43.384	-17.342	
292.00	-43.608	-31.792	
293.00	-43.988	-39.804	
294.00	-44.807	-17.993	
295.00	-46.042	-44.440	
296.00	-47.722	-26.306	
297.00	-49.326	-22.217	
298.00	-49.878	-3.700	
299.00	-50.124	21.030	
300.00	-48.244	16.122	
301.00	-47.311	6.337	
302.00	-47.000	24.090	
303.00	-47.146	17.888	
304.00	-47.561	26.609	
305.00	-47.926	32.002	
306.00	-48.065	55.028	
307.00	-46.783	47.426	
308.00	-45.350	74.180	
309.00	-43.970	72.215	
310.00	-42.787	44.646	
311.00	-42.184	64.362	
312.00	-41.467	36.823	
313.00	-41.750	49.577	
314.00	-41.921	52.075	
315.00	-41.766	20.997	
316.00	-43.074	60.556	
317.00	-43.061	18.698	
318.00	-44.735	32.413	
319.00	-46.129	35.047	
320.00	-47.768	51.591	
321.00	-47.903	74.994	
322.00	-45.795	74.991	
323.00	-44.927	97.066	
324.00	-43.549	74.840	
325.00	-43.702	89.473	
326.00	-44.156	81.389	
327.00	-44.150	76.894	
328.00	-45.758	80.929	
329.00	-46.542	116.971	
330.00	-47.116	75.301	
331.00	-48.031	87.075	
332.00	-49.560	101.627	
333.00	-50.422	85.492	
334.00	-50.768	117.143	
335.00	-51.629	80.847	
336.00	-51.855	85.068	
337.00	-52.638	61.952	
338.00	-52.765	56.392	
339.00	-52.207	35.749	
340.00	-50.446	39.682	
341.00	-48.872	48.414	
342.00	-47.211	63.827	
343.00	-46.800	4.086	
344.00	-46.058	28.998	
345.00	-45.135	-16.517	
346.00	-44.842	-4.188	
347.00	-44.143	-4.428	
348.00	-43.026	-16.261	
349.00	-41.958	-17.305	
350.00	-40.939	-6.491	
351.00	-39.653	-24.350	
352.00	-39.151	-0.228	
353.00	-38.019	-17.852	
354.00	-37.698	7.086	
355.00	-36.976	-2.922	
356.00	-36.758	4.995	
357.00	-36.444	4.580	
358.00	-36.148	6.138	
359.00	-35.903	-1.684	
Frequency	2690.00	MHz	
Channel	test		
Scan Axis name	Azimuth  [deg]		
Scan Axis	Amplitude	Phase	
			
0.00	-35.515	116.552	
1.00	-35.188	126.920	
2.00	-34.805	82.685	
3.00	-35.401	159.091	
4.00	-35.196	139.423	
5.00	-35.247	138.389	
6.00	-35.667	162.356	
7.00	-35.844	130.861	
8.00	-36.606	141.263	
9.00	-37.193	134.348	
10.00	-38.256	137.409	
11.00	-39.745	161.151	
12.00	-40.493	123.985	
13.00	-42.261	-177.550	
14.00	-42.598	141.478	
15.00	-43.585	-161.949	
16.00	-44.697	-134.176	
17.00	-44.894	-116.981	
18.00	-44.924	-99.615	
19.00	-45.116	-98.998	
20.00	-44.455	-116.018	
21.00	-42.889	-171.210	
22.00	-43.155	165.373	
23.00	-46.435	-146.716	
24.00	-47.145	-162.127	
25.00	-46.123	169.278	
26.00	-45.576	-155.309	
27.00	-44.120	178.564	
28.00	-43.470	-151.190	
29.00	-42.779	-138.711	
30.00	-42.701	-127.246	
31.00	-42.885	-174.182	
32.00	-42.269	-109.781	
33.00	-42.124	-133.986	
34.00	-41.517	-144.676	
35.00	-41.309	-151.751	
36.00	-40.209	-134.375	
37.00	-39.511	-139.621	
38.00	-38.662	-122.555	
39.00	-38.207	-136.421	
40.00	-37.657	-144.481	
41.00	-37.623	-115.136	
42.00	-37.541	-128.819	
43.00	-38.220	-87.319	
44.00	-38.598	-112.794	
45.00	-38.900	-119.919	
46.00	-40.264	-68.675	
47.00	-39.762	-119.035	
48.00	-41.470	-35.293	
49.00	-41.745	-43.916	
50.00	-43.144	2.708	
51.00	-44.144	-19.344	
52.00	-45.724	10.199	
53.00	-47.499	12.415	
54.00	-48.509	-13.575	
55.00	-49.392	-7.318	
56.00	-48.991	51.019	
57.00	-47.820	17.888	
58.00	-46.028	68.252	
59.00	-44.351	33.930	
60.00	-41.222	134.891	
61.00	-39.788	116.003	
62.00	-38.388	136.756	
63.00	-36.503	175.616	
64.00	-36.876	95.006	
65.00	-35.835	142.424	
66.00	-35.867	133.970	
67.00	-36.375	77.235	
68.00	-36.244	86.011	
69.00	-36.432	83.719	
70.00	-36.942	51.757	
71.00	-36.738	109.254	
72.00	-37.090	94.225	
73.00	-36.452	97.774	
74.00	-35.134	172.886	
75.00	-34.708	138.835	
76.00	-34.223	134.106	
77.00	-33.693	167.736	
78.00	-33.639	116.504	
79.00	-33.544	149.117	
80.00	-33.832	120.524	
81.00	-34.297	167.030	
82.00	-35.132	-171.956	
83.00	-36.049	-166.470	
84.00	-37.118	158.846	
85.00	-38.520	-176.593	
86.00	-39.518	121.223	
87.00	-40.287	175.262	
88.00	-40.389	155.416	
89.00	-39.782	138.908	
90.00	-39.334	159.824	
91.00	-38.884	-170.884	
92.00	-39.168	173.586	
93.00	-39.077	-137.579	
94.00	-40.066	-127.953	
95.00	-41.225	-137.314	
96.00	-42.836	-146.769	
97.00	-45.481	-121.801	
98.00	-48.569	-165.248	
99.00	-53.087	-53.969	
100.00	-69.052	-70.487	
101.00	-54.137	-3.643	
102.00	-51.386	50.941	
103.00	-46.648	1.548	
104.00	-44.935	63.912	
105.00	-43.581	33.498	
106.00	-42.872	24.942	
107.00	-43.223	123.257	
108.00	-43.898	94.962	
109.00	-43.240	137.716	
110.00	-42.980	179.195	
111.00	-42.730	-162.478	
112.00	-43.358	137.910	
113.00	-42.681	-160.331	
114.00	-42.019	-125.964	
115.00	-41.831	-93.764	
116.00	-42.777	-107.022	
117.00	-43.339	-78.495	
118.00	-44.779	-83.550	
119.00	-45.663	-55.002	
120.00	-46.719	-51.612	
121.00	-51.322	-51.971	
122.00	-53.737	-47.431	
123.00	-71.823	-40.001	
124.00	-67.320	-156.198	
125.00	-56.958	108.790	
126.00	-60.593	-145.507	
127.00	-58.797	-140.443	
128.00	-49.474	-57.780	
129.00	-47.051	-68.233	
130.00	-43.634	-30.742	
131.00	-42.172	-66.356	
132.00	-40.714	-48.293	
133.00	-39.336	-21.913	
134.00	-38.605	14.438	
135.00	-38.596	21.264	
136.00	-38.982	37.529	
137.00	-38.516	-22.105	
138.00	-39.120	56.341	
139.00	-38.397	-2.636	
140.00	-38.621	18.349	
141.00	-39.466	73.254	
142.00	-39.324	36.683	
143.00	-40.627	127.956	
144.00	-40.532	117.530	
145.00	-40.786	132.544	
146.00	-41.244	165.272	
147.00	-41.982	142.989	
148.00	-43.356	157.324	
149.00	-45.209	124.685	
150.00	-48.586	148.660	
151.00	-55.103	174.488	
152.00	-75.446	-137.391	
153.00	-57.634	-36.571	
154.00	-55.224	-69.701	
155.00	-51.010	-61.270	
156.00	-48.372	-63.430	
157.00	-46.551	-108.994	
158.00	-42.823	-50.998	
159.00	-41.109	-140.483	
160.00	-39.351	-84.154	
161.00	-38.536	-126.742	
162.00	-38.220	-112.311	
163.00	-37.773	-109.140	
164.00	-37.345	-105.028	
165.00	-37.907	-42.921	
166.00	-38.244	-55.857	
167.00	-39.059	-68.461	
168.00	-39.751	-26.418	
169.00	-41.165	-53.032	
170.00	-42.068	-2.972	
171.00	-43.376	-10.099	
172.00	-44.674	26.776	
173.00	-45.307	55.356	
174.00	-44.151	99.285	
175.00	-40.887	122.061	
176.00	-37.879	154.593	
177.00	-35.307	155.544	
178.00	-33.470	166.731	
179.00	-31.537	154.782	
180.00	-29.907	166.177	
181.00	-28.570	168.042	
182.00	-27.389	150.859	
183.00	-26.443	127.934	
184.00	-25.732	159.385	
185.00	-24.944	133.839	
186.00	-24.306	150.013	
187.00	-23.770	139.642	
188.00	-23.317	116.851	
189.00	-23.102	143.477	
190.00	-22.827	116.730	
191.00	-22.681	145.239	
192.00	-22.493	104.220	
193.00	-22.558	124.447	
194.00	-22.581	145.659	
195.00	-22.714	108.737	
196.00	-22.942	154.350	
197.00	-23.349	104.243	
198.00	-23.799	118.083	
199.00	-24.370	104.326	
200.00	-25.119	81.776	
201.00	-25.841	107.058	
202.00	-26.803	80.543	
203.00	-27.876	69.728	
204.00	-29.171	70.539	
205.00	-30.998	35.402	
206.00	-33.038	42.369	
207.00	-35.470	40.286	
208.00	-38.731	31.096	
209.00	-43.754	46.177	
210.00	-51.557	87.250	
211.00	-47.989	145.422	
212.00	-42.614	161.071	
213.00	-40.331	131.614	
214.00	-38.342	154.963	
215.00	-37.964	100.650	
216.00	-37.064	120.362	
217.00	-37.148	77.370	
218.00	-37.045	78.018	
219.00	-37.364	72.489	
220.00	-37.653	16.464	
221.00	-37.240	7.450	
222.00	-36.336	-25.966	
223.00	-35.480	-57.204	
224.00	-34.894	-84.079	
225.00	-34.159	-108.014	
226.00	-33.830	-117.239	
227.00	-33.320	-127.036	
228.00	-32.922	-150.064	
229.00	-32.892	-122.705	
230.00	-33.036	-153.719	
231.00	-33.433	-155.301	
232.00	-33.936	164.954	
233.00	-34.270	134.778	
234.00	-34.849	144.657	
235.00	-34.974	82.216	
236.00	-35.271	82.705	
237.00	-35.612	82.577	
238.00	-35.804	28.347	
239.00	-36.109	20.376	
240.00	-36.364	34.389	
241.00	-37.027	-26.331	
242.00	-37.326	-1.008	
243.00	-38.617	-50.566	
244.00	-39.603	-54.233	
245.00	-40.681	-55.676	
246.00	-42.396	-158.903	
247.00	-43.735	-123.070	
248.00	-43.216	172.641	
249.00	-44.545	-178.225	
250.00	-43.585	131.431	
251.00	-44.361	114.556	
252.00	-44.886	101.366	
253.00	-44.885	57.389	
254.00	-44.189	36.192	
255.00	-42.766	36.715	
256.00	-41.803	3.533	
257.00	-40.621	25.330	
258.00	-40.973	-29.926	
259.00	-40.866	-28.034	
260.00	-41.452	-38.189	
261.00	-42.748	-64.956	
262.00	-43.684	-36.999	
263.00	-46.095	-61.378	
264.00	-50.777	-68.063	
265.00	-62.771	-81.089	
266.00	-58.005	10.371	
267.00	-51.349	-1.332	
268.00	-48.393	-28.278	
269.00	-46.875	-12.763	
270.00	-45.805	-37.140	
271.00	-45.540	-22.462	
272.00	-45.322	-30.439	
273.00	-45.658	-60.516	
274.00	-45.956	-17.895	
275.00	-46.649	-69.767	
276.00	-47.602	-42.067	
277.00	-48.356	-49.337	
278.00	-49.466	-46.530	
279.00	-50.471	-45.947	
280.00	-52.188	-71.188	
281.00	-54.140	-101.115	
282.00	-55.606	-131.322	
283.00	-57.182	-170.296	
284.00	-53.727	-179.920	
285.00	-51.841	121.233	
286.00	-49.528	127.593	
287.00	-47.737	101.194	
288.00	-46.252	119.940	
289.00	-45.271	78.402	
290.00	-44.551	94.929	
291.00	-44.519	86.375	
292.00	-44.808	71.057	
293.00	-44.956	66.487	
294.00	-45.762	92.828	
295.00	-47.025	65.807	
296.00	-47.572	89.497	
297.00	-48.359	88.326	
298.00	-48.458	99.920	
299.00	-48.382	115.577	
300.00	-47.868	105.667	
301.00	-47.776	87.883	
302.00	-48.340	108.151	
303.00	-50.882	90.000	
304.00	-53.969	100.219	
305.00	-58.317	132.391	
306.00	-55.410	-163.901	
307.00	-49.591	-175.347	
308.00	-47.302	-156.155	
309.00	-45.074	-169.171	
310.00	-43.769	159.514	
311.00	-43.490	174.688	
312.00	-42.586	145.948	
313.00	-42.693	155.236	
314.00	-42.627	154.250	
315.00	-42.553	121.400	
316.00	-43.816	154.639	
317.00	-44.009	111.902	
318.00	-45.963	119.507	
319.00	-48.586	113.257	
320.00	-52.957	133.289	
321.00	-55.491	172.656	
322.00	-50.678	-172.048	
323.00	-48.461	-150.220	
324.00	-45.548	-176.521	
325.00	-45.339	-160.730	
326.00	-44.680	-169.752	
327.00	-44.444	-174.971	
328.00	-45.144	-170.983	
329.00	-46.274	-138.796	
330.00	-46.185	178.287	
331.00	-47.740	-173.559	
332.00	-48.949	-159.511	
333.00	-49.692	-179.300	
334.00	-50.912	-153.673	
335.00	-51.571	162.248	
336.00	-52.187	166.469	
337.00	-52.093	137.796	
338.00	-50.470	137.105	
339.00	-48.934	118.221	
340.00	-47.217	132.330	
341.00	-45.664	141.718	
342.00	-44.374	161.203	
343.00	-44.243	113.423	
344.00	-43.719	141.834	
345.00	-43.437	106.348	
346.00	-43.218	123.493	
347.00	-42.721	124.359	
348.00	-41.952	115.742	
349.00	-41.408	115.482	
350.00	-40.466	124.132	
351.00	-39.524	103.932	
352.00	-38.865	124.107	
353.00	-37.951	103.691	
354.00	-37.574	126.872	
355.00	-36.953	114.894	
356.00	-36.609	123.140	
357.00	-36.220	121.769	
358.00	-35.890	123.287	
359.00	-35.481	114.188	
