Test Title:	Alpha Wireless Indoor Range						
Date:	02/11/2017						
Time:	17:01						
Operator Name:	FL						
Comment:	Version 2 Run 2
Cable length changed						
Caib. File Name:	C:\Program Files\Midas 2.01d\Calibration Files\test sigma 180900.cal						
							
[Scan Axis] Name: 	Azimuth  [deg]Start: 	0.000000	Stop	359.000000	Increment	1.000000[Step Axis] Name: 	Start: 	0.000000	Stop	0.000000	Increment	0.000000[Tert] Name: 	None [Forth] Name: 	None  [ Freq.]  (List) 	MHz.	1694.000000	1710.000000	1800.000000	1850.000000	1950.000000	2050.000000	2170.000000	2300.000000	2350.000000	2400.000000	2450.000000	2496.000000	2550.000000	2600.000000	2650.000000	2700.000000
 [Switch]  	None [Channel]  	test			 [ Beam] 	None			
Database:			
First Question			
2nd			
3rd			
4th			
			
Frequency	1694.00	MHz	
Channel	test		
Scan Axis name	Azimuth  [deg]		
Scan Axis	Amplitude	Phase	
			
0.00	-67.752	60.589	
1.00	-67.370	61.599	
2.00	-64.838	49.058	
3.00	-64.540	29.629	
4.00	-63.451	24.362	
5.00	-62.097	3.245	
6.00	-61.153	-6.987	
7.00	-60.821	-15.686	
8.00	-59.551	-19.475	
9.00	-60.082	-28.892	
10.00	-61.189	-30.121	
11.00	-59.111	-32.022	
12.00	-57.627	-28.436	
13.00	-58.393	-23.839	
14.00	-58.174	-24.675	
15.00	-57.515	-13.389	
16.00	-57.104	-10.820	
17.00	-57.434	-9.292	
18.00	-57.112	-6.390	
19.00	-56.654	-0.358	
20.00	-57.222	5.884	
21.00	-58.715	10.707	
22.00	-59.256	19.316	
23.00	-59.363	22.461	
24.00	-61.201	31.610	
25.00	-62.628	38.863	
26.00	-63.995	57.810	
27.00	-67.185	60.732	
28.00	-66.870	79.943	
29.00	-67.740	99.653	
30.00	-65.256	112.354	
31.00	-62.891	120.939	
32.00	-62.120	126.246	
33.00	-61.644	132.804	
34.00	-61.982	141.166	
35.00	-61.654	150.500	
36.00	-62.381	159.407	
37.00	-63.830	-178.190	
38.00	-66.472	-155.544	
39.00	-65.155	-129.903	
40.00	-65.023	-102.403	
41.00	-62.462	-93.739	
42.00	-62.531	-75.366	
43.00	-62.434	-56.851	
44.00	-61.230	-49.643	
45.00	-60.733	-31.283	
46.00	-61.543	-13.891	
47.00	-62.109	2.352	
48.00	-59.729	14.176	
49.00	-59.952	27.991	
50.00	-58.573	44.084	
51.00	-58.594	61.006	
52.00	-58.083	66.444	
53.00	-58.086	76.430	
54.00	-58.821	88.804	
55.00	-59.848	102.104	
56.00	-61.665	121.986	
57.00	-63.373	135.712	
58.00	-64.936	168.324	
59.00	-64.186	-159.443	
60.00	-64.243	-130.270	
61.00	-62.757	-113.595	
62.00	-62.472	-102.585	
63.00	-64.428	-73.729	
64.00	-64.658	-64.097	
65.00	-64.911	-35.609	
66.00	-66.995	0.222	
67.00	-67.040	52.128	
68.00	-64.434	83.325	
69.00	-61.712	111.509	
70.00	-58.553	127.358	
71.00	-55.972	142.435	
72.00	-55.071	149.254	
73.00	-53.187	163.251	
74.00	-52.793	174.723	
75.00	-51.915	-175.612	
76.00	-51.451	-164.787	
77.00	-51.178	-156.694	
78.00	-50.873	-148.728	
79.00	-51.150	-141.947	
80.00	-51.552	-135.002	
81.00	-51.663	-126.539	
82.00	-52.662	-121.469	
83.00	-53.157	-114.925	
84.00	-54.481	-108.600	
85.00	-55.860	-98.997	
86.00	-56.448	-92.724	
87.00	-57.709	-85.383	
88.00	-60.837	-88.748	
89.00	-63.577	-62.091	
90.00	-59.171	-70.330	
91.00	-62.815	-76.268	
92.00	-66.911	-58.139	
93.00	-63.239	28.524	
94.00	-80.697	-46.940	
95.00	-64.218	37.497	
96.00	-59.026	6.078	
97.00	-59.895	8.299	
98.00	-63.268	53.848	
99.00	-60.324	56.293	
100.00	-59.192	47.683	
101.00	-59.108	62.579	
102.00	-58.480	69.712	
103.00	-59.418	76.139	
104.00	-61.374	85.840	
105.00	-62.560	91.247	
106.00	-68.967	119.646	
107.00	-82.405	178.091	
108.00	-66.795	-95.096	
109.00	-61.408	-75.645	
110.00	-57.651	-69.442	
111.00	-55.521	-54.195	
112.00	-53.805	-43.367	
113.00	-52.767	-32.503	
114.00	-52.064	-19.077	
115.00	-51.485	-5.261	
116.00	-51.342	11.701	
117.00	-50.651	29.946	
118.00	-50.144	48.816	
119.00	-49.469	68.445	
120.00	-48.676	83.529	
121.00	-47.832	99.497	
122.00	-47.156	117.777	
123.00	-46.612	130.944	
124.00	-46.169	148.442	
125.00	-46.112	161.816	
126.00	-46.219	176.538	
127.00	-46.278	-165.216	
128.00	-46.404	-150.136	
129.00	-46.988	-132.256	
130.00	-47.202	-113.240	
131.00	-47.255	-91.373	
132.00	-46.993	-72.373	
133.00	-47.066	-56.536	
134.00	-47.055	-39.733	
135.00	-47.501	-22.351	
136.00	-47.901	-10.608	
137.00	-49.461	4.674	
138.00	-51.909	12.835	
139.00	-55.483	23.982	
140.00	-64.940	30.876	
141.00	-62.879	-131.568	
142.00	-53.819	-126.139	
143.00	-49.052	-118.239	
144.00	-46.849	-110.184	
145.00	-45.127	-102.179	
146.00	-44.021	-94.497	
147.00	-43.604	-86.349	
148.00	-43.620	-78.179	
149.00	-44.367	-69.082	
150.00	-45.596	-59.369	
151.00	-47.688	-49.459	
152.00	-50.767	-32.373	
153.00	-54.838	3.255	
154.00	-56.029	69.987	
155.00	-51.030	109.949	
156.00	-48.141	124.327	
157.00	-46.205	134.495	
158.00	-45.075	142.832	
159.00	-44.658	147.950	
160.00	-45.209	151.953	
161.00	-46.436	151.213	
162.00	-48.281	147.686	
163.00	-50.911	133.507	
164.00	-52.440	103.535	
165.00	-50.860	78.466	
166.00	-49.328	65.903	
167.00	-47.790	59.001	
168.00	-48.416	57.562	
169.00	-50.049	60.743	
170.00	-54.911	54.915	
171.00	-67.495	-80.642	
172.00	-50.587	-102.523	
173.00	-44.730	-104.991	
174.00	-41.477	-103.700	
175.00	-39.211	-101.341	
176.00	-38.000	-98.706	
177.00	-37.280	-94.692	
178.00	-37.499	-91.160	
179.00	-38.541	-84.945	
180.00	-40.849	-74.463	
181.00	-44.132	-50.858	
182.00	-45.242	3.910	
183.00	-40.862	40.800	
184.00	-36.567	56.270	
185.00	-33.628	63.379	
186.00	-31.606	66.780	
187.00	-30.106	68.861	
188.00	-29.130	70.146	
189.00	-28.580	70.581	
190.00	-28.396	71.102	
191.00	-28.505	71.342	
192.00	-29.082	71.326	
193.00	-30.001	71.642	
194.00	-31.304	72.204	
195.00	-33.187	73.908	
196.00	-35.679	77.117	
197.00	-39.267	83.902	
198.00	-43.701	100.187	
199.00	-47.255	147.305	
200.00	-45.302	-173.173	
201.00	-42.712	-155.293	
202.00	-41.358	-147.282	
203.00	-41.050	-142.950	
204.00	-41.592	-137.472	
205.00	-42.579	-128.416	
206.00	-44.062	-115.397	
207.00	-45.204	-95.015	
208.00	-45.148	-72.642	
209.00	-43.470	-57.137	
210.00	-42.034	-48.418	
211.00	-41.029	-44.991	
212.00	-40.370	-43.804	
213.00	-40.124	-44.949	
214.00	-40.413	-47.022	
215.00	-40.953	-50.552	
216.00	-42.049	-52.202	
217.00	-43.799	-55.552	
218.00	-45.378	-55.904	
219.00	-48.437	-55.040	
220.00	-51.627	-46.406	
221.00	-55.541	-19.301	
222.00	-57.241	16.499	
223.00	-53.327	36.399	
224.00	-51.372	46.937	
225.00	-50.893	46.060	
226.00	-50.929	44.369	
227.00	-51.893	38.571	
228.00	-52.978	36.162	
229.00	-56.184	32.669	
230.00	-60.633	27.462	
231.00	-84.387	-7.963	
232.00	-61.983	-179.210	
233.00	-55.492	177.455	
234.00	-53.290	168.397	
235.00	-50.721	160.440	
236.00	-49.508	152.466	
237.00	-48.465	143.510	
238.00	-46.908	135.255	
239.00	-46.099	125.794	
240.00	-45.795	117.902	
241.00	-45.730	109.492	
242.00	-45.224	99.324	
243.00	-45.337	90.051	
244.00	-45.301	77.358	
245.00	-45.437	69.252	
246.00	-45.494	57.664	
247.00	-45.857	45.944	
248.00	-46.215	32.443	
249.00	-46.571	19.944	
250.00	-46.330	6.805	
251.00	-46.330	-5.535	
252.00	-46.555	-19.108	
253.00	-46.534	-30.967	
254.00	-46.648	-44.093	
255.00	-46.921	-56.768	
256.00	-47.345	-68.522	
257.00	-47.655	-80.943	
258.00	-47.923	-93.945	
259.00	-48.648	-106.548	
260.00	-49.023	-119.349	
261.00	-49.873	-133.832	
262.00	-50.347	-147.208	
263.00	-51.312	-162.502	
264.00	-52.124	-176.464	
265.00	-53.021	168.060	
266.00	-54.184	149.714	
267.00	-55.084	125.476	
268.00	-55.194	104.197	
269.00	-54.925	79.864	
270.00	-54.301	60.107	
271.00	-53.361	41.199	
272.00	-52.890	28.557	
273.00	-52.580	12.395	
274.00	-53.036	-1.336	
275.00	-52.799	-16.660	
276.00	-53.265	-32.458	
277.00	-53.632	-50.046	
278.00	-54.040	-70.900	
279.00	-54.475	-90.871	
280.00	-53.921	-111.190	
281.00	-53.758	-127.521	
282.00	-53.439	-147.546	
283.00	-53.323	-167.641	
284.00	-53.253	-179.020	
285.00	-53.244	163.647	
286.00	-52.910	144.922	
287.00	-53.849	124.459	
288.00	-54.234	104.157	
289.00	-54.841	88.921	
290.00	-56.195	70.730	
291.00	-57.244	45.346	
292.00	-57.950	23.912	
293.00	-58.339	-8.197	
294.00	-57.978	-32.293	
295.00	-55.968	-56.821	
296.00	-56.206	-70.490	
297.00	-55.954	-85.830	
298.00	-55.276	-93.686	
299.00	-56.688	-99.935	
300.00	-57.364	-101.832	
301.00	-60.455	-111.775	
302.00	-61.583	-107.326	
303.00	-64.615	-99.116	
304.00	-67.145	-80.054	
305.00	-70.949	-59.057	
306.00	-73.253	-71.174	
307.00	-79.522	-97.895	
308.00	-76.616	-159.633	
309.00	-70.457	151.793	
310.00	-62.564	139.089	
311.00	-60.883	129.654	
312.00	-58.928	120.238	
313.00	-57.382	114.617	
314.00	-57.028	103.304	
315.00	-57.416	94.336	
316.00	-58.085	78.492	
317.00	-59.511	63.744	
318.00	-61.406	45.603	
319.00	-63.034	21.021	
320.00	-64.388	-9.613	
321.00	-64.777	-41.514	
322.00	-63.494	-68.613	
323.00	-61.632	-89.769	
324.00	-60.401	-106.307	
325.00	-59.646	-117.773	
326.00	-58.843	-125.207	
327.00	-58.063	-131.140	
328.00	-57.921	-140.036	
329.00	-57.662	-147.289	
330.00	-57.556	-150.016	
331.00	-58.367	-155.312	
332.00	-59.545	-169.684	
333.00	-61.550	-179.547	
334.00	-64.751	159.593	
335.00	-65.418	115.810	
336.00	-65.404	81.797	
337.00	-63.402	55.834	
338.00	-62.414	45.078	
339.00	-61.165	37.029	
340.00	-61.356	38.371	
341.00	-60.612	31.481	
342.00	-61.943	46.148	
343.00	-60.230	49.923	
344.00	-59.763	53.165	
345.00	-58.520	60.968	
346.00	-60.517	52.006	
347.00	-59.975	56.338	
348.00	-60.489	41.549	
349.00	-62.944	20.811	
350.00	-65.298	18.010	
351.00	-64.198	4.912	
352.00	-66.298	-11.652	
353.00	-66.973	-37.884	
354.00	-68.720	-46.134	
355.00	-75.662	-59.230	
356.00	-72.174	-52.292	
357.00	-79.688	-14.741	
358.00	-76.252	42.800	
359.00	-70.156	80.286	
Frequency	1710.00	MHz	
Channel	test		
Scan Axis name	Azimuth  [deg]		
Scan Axis	Amplitude	Phase	
			
0.00	-71.734	-99.886	
1.00	-62.180	-138.615	
2.00	-66.033	-125.844	
3.00	-67.451	-146.082	
4.00	-73.683	-96.342	
5.00	-72.956	-102.635	
6.00	-62.776	-114.769	
7.00	-62.040	-144.552	
8.00	-66.292	-126.594	
9.00	-67.124	-120.444	
10.00	-66.831	-107.341	
11.00	-70.698	-91.741	
12.00	-71.911	-58.015	
13.00	-84.711	-171.142	
14.00	-71.953	-21.134	
15.00	-64.558	-40.097	
16.00	-69.791	-22.910	
17.00	-65.801	-58.820	
18.00	-71.029	-66.038	
19.00	-69.619	-65.112	
20.00	-69.399	-80.621	
21.00	-61.940	-67.356	
22.00	-62.164	-101.615	
23.00	-65.186	-74.179	
24.00	-62.168	-91.547	
25.00	-59.548	-95.044	
26.00	-59.971	-94.071	
27.00	-57.731	-86.853	
28.00	-61.296	-84.652	
29.00	-61.557	-90.731	
30.00	-67.390	-92.724	
31.00	-64.859	-84.023	
32.00	-77.464	3.927	
33.00	-73.939	-82.265	
34.00	-72.581	76.928	
35.00	-70.069	55.790	
36.00	-70.380	147.039	
37.00	-62.903	168.571	
38.00	-65.054	-179.181	
39.00	-61.104	-175.579	
40.00	-59.598	-168.171	
41.00	-57.001	-164.019	
42.00	-58.599	-174.528	
43.00	-59.203	-159.289	
44.00	-58.645	-166.006	
45.00	-59.186	-174.843	
46.00	-60.303	-178.401	
47.00	-59.639	-176.489	
48.00	-61.674	137.126	
49.00	-59.761	146.621	
50.00	-59.610	119.905	
51.00	-59.720	122.180	
52.00	-58.057	117.392	
53.00	-56.844	121.032	
54.00	-56.606	117.499	
55.00	-55.060	116.868	
56.00	-55.262	125.540	
57.00	-55.417	132.935	
58.00	-55.549	144.020	
59.00	-54.712	155.237	
60.00	-55.322	160.983	
61.00	-55.990	177.033	
62.00	-56.917	-176.108	
63.00	-58.036	-168.184	
64.00	-60.677	-151.078	
65.00	-61.086	-156.763	
66.00	-66.032	-161.779	
67.00	-68.924	148.839	
68.00	-71.669	119.368	
69.00	-67.510	103.094	
70.00	-62.790	94.728	
71.00	-60.978	100.143	
72.00	-59.867	91.978	
73.00	-62.434	124.072	
74.00	-59.976	105.875	
75.00	-60.412	123.206	
76.00	-59.719	120.333	
77.00	-59.686	119.229	
78.00	-60.506	127.153	
79.00	-60.200	121.260	
80.00	-59.929	120.523	
81.00	-60.728	106.753	
82.00	-61.716	106.327	
83.00	-60.463	112.937	
84.00	-59.629	113.306	
85.00	-59.478	114.596	
86.00	-60.516	122.157	
87.00	-58.402	136.959	
88.00	-57.901	133.050	
89.00	-57.795	166.989	
90.00	-58.640	169.906	
91.00	-56.271	-179.155	
92.00	-58.745	171.746	
93.00	-58.772	-124.889	
94.00	-56.686	-159.583	
95.00	-55.914	-114.855	
96.00	-55.373	-111.676	
97.00	-58.198	-132.664	
98.00	-57.805	-81.529	
99.00	-57.128	-64.758	
100.00	-58.392	-54.902	
101.00	-59.427	-26.854	
102.00	-58.803	-0.940	
103.00	-57.882	12.045	
104.00	-58.395	31.955	
105.00	-59.555	53.462	
106.00	-60.531	43.852	
107.00	-60.864	64.741	
108.00	-62.553	61.461	
109.00	-67.679	62.278	
110.00	-77.551	23.309	
111.00	-68.043	-19.989	
112.00	-61.809	-46.652	
113.00	-58.252	-41.509	
114.00	-56.201	-25.344	
115.00	-53.970	-12.108	
116.00	-53.038	-3.333	
117.00	-51.497	5.639	
118.00	-51.875	21.052	
119.00	-50.302	38.550	
120.00	-50.307	53.383	
121.00	-49.173	67.415	
122.00	-48.775	85.335	
123.00	-48.724	101.482	
124.00	-48.523	118.896	
125.00	-48.156	135.166	
126.00	-47.996	157.046	
127.00	-47.984	173.658	
128.00	-47.543	-170.219	
129.00	-47.481	-155.257	
130.00	-47.202	-139.900	
131.00	-47.562	-123.610	
132.00	-47.942	-107.919	
133.00	-48.326	-93.023	
134.00	-49.546	-81.337	
135.00	-51.019	-70.944	
136.00	-53.644	-64.121	
137.00	-57.976	-58.627	
138.00	-65.235	-106.048	
139.00	-57.257	-170.983	
140.00	-51.283	-166.825	
141.00	-47.627	-163.629	
142.00	-44.988	-153.481	
143.00	-43.073	-144.516	
144.00	-41.593	-134.703	
145.00	-40.163	-125.666	
146.00	-39.708	-114.639	
147.00	-39.429	-105.640	
148.00	-39.218	-94.224	
149.00	-39.396	-83.493	
150.00	-40.042	-71.336	
151.00	-40.657	-55.147	
152.00	-41.518	-40.530	
153.00	-42.286	-21.773	
154.00	-42.693	4.770	
155.00	-42.774	26.908	
156.00	-42.520	48.856	
157.00	-41.594	67.334	
158.00	-41.152	81.272	
159.00	-40.886	92.551	
160.00	-41.219	101.957	
161.00	-42.114	109.179	
162.00	-43.712	114.470	
163.00	-46.730	114.758	
164.00	-51.407	105.481	
165.00	-55.855	56.112	
166.00	-52.340	9.471	
167.00	-48.367	-6.618	
168.00	-46.593	-8.768	
169.00	-45.877	-11.632	
170.00	-46.797	-16.719	
171.00	-49.108	-28.617	
172.00	-51.827	-59.276	
173.00	-50.179	-107.834	
174.00	-45.858	-131.024	
175.00	-42.544	-141.245	
176.00	-40.350	-145.542	
177.00	-39.431	-148.084	
178.00	-39.317	-152.213	
179.00	-40.061	-159.027	
180.00	-42.053	-172.280	
181.00	-43.999	155.794	
182.00	-42.716	113.080	
183.00	-38.175	86.561	
184.00	-34.645	75.456	
185.00	-31.953	69.556	
186.00	-29.928	66.164	
187.00	-28.403	63.247	
188.00	-27.367	61.534	
189.00	-26.635	59.956	
190.00	-26.274	59.025	
191.00	-26.191	57.914	
192.00	-26.454	57.381	
193.00	-27.002	57.373	
194.00	-27.906	57.623	
195.00	-29.163	58.684	
196.00	-30.823	60.989	
197.00	-32.928	64.987	
198.00	-35.572	72.454	
199.00	-38.604	85.851	
200.00	-41.298	108.004	
201.00	-42.389	136.188	
202.00	-42.184	157.974	
203.00	-42.028	171.992	
204.00	-42.552	-176.545	
205.00	-43.966	-165.985	
206.00	-46.179	-148.491	
207.00	-48.088	-121.031	
208.00	-47.004	-83.992	
209.00	-44.236	-62.607	
210.00	-41.991	-54.595	
211.00	-40.367	-50.887	
212.00	-39.430	-51.527	
213.00	-39.111	-54.628	
214.00	-39.365	-59.288	
215.00	-39.902	-64.691	
216.00	-40.875	-72.025	
217.00	-41.836	-80.540	
218.00	-43.593	-91.719	
219.00	-45.060	-105.251	
220.00	-46.969	-122.363	
221.00	-49.008	-142.490	
222.00	-49.762	-168.139	
223.00	-50.453	168.161	
224.00	-50.394	146.824	
225.00	-50.231	132.403	
226.00	-50.824	119.206	
227.00	-51.419	108.433	
228.00	-52.539	100.075	
229.00	-54.596	92.259	
230.00	-56.345	87.232	
231.00	-60.150	81.234	
232.00	-63.623	96.352	
233.00	-63.035	123.519	
234.00	-59.235	128.153	
235.00	-56.552	125.749	
236.00	-53.361	116.528	
237.00	-51.138	108.673	
238.00	-48.968	96.998	
239.00	-47.280	87.858	
240.00	-45.776	79.675	
241.00	-44.601	70.395	
242.00	-43.486	61.792	
243.00	-42.789	52.669	
244.00	-42.170	44.268	
245.00	-41.580	34.777	
246.00	-41.433	25.477	
247.00	-41.150	13.938	
248.00	-41.435	5.685	
249.00	-41.658	-4.761	
250.00	-41.856	-16.177	
251.00	-42.034	-28.843	
252.00	-42.636	-40.807	
253.00	-42.953	-54.208	
254.00	-43.451	-67.241	
255.00	-43.550	-82.139	
256.00	-43.900	-97.879	
257.00	-43.845	-110.053	
258.00	-44.081	-123.194	
259.00	-44.091	-137.073	
260.00	-44.506	-149.647	
261.00	-44.739	-162.661	
262.00	-45.103	-176.000	
263.00	-45.440	171.831	
264.00	-46.203	158.871	
265.00	-46.743	143.256	
266.00	-47.111	130.494	
267.00	-47.510	114.460	
268.00	-48.063	102.755	
269.00	-48.386	89.444	
270.00	-49.523	73.674	
271.00	-50.262	59.220	
272.00	-51.430	42.219	
273.00	-53.278	19.249	
274.00	-53.900	-0.623	
275.00	-54.409	-26.817	
276.00	-54.764	-52.291	
277.00	-53.568	-79.008	
278.00	-53.182	-96.193	
279.00	-52.456	-112.535	
280.00	-52.290	-131.284	
281.00	-52.537	-153.538	
282.00	-52.422	-169.874	
283.00	-52.670	174.346	
284.00	-52.482	153.770	
285.00	-52.497	129.194	
286.00	-53.133	110.781	
287.00	-52.936	82.565	
288.00	-52.219	61.698	
289.00	-52.435	35.990	
290.00	-52.513	16.785	
291.00	-52.767	-1.108	
292.00	-52.176	-19.454	
293.00	-51.465	-41.724	
294.00	-51.883	-57.800	
295.00	-51.636	-77.873	
296.00	-51.646	-88.830	
297.00	-52.033	-109.738	
298.00	-52.439	-123.153	
299.00	-52.534	-140.039	
300.00	-52.783	-155.105	
301.00	-54.275	-171.457	
302.00	-55.715	173.144	
303.00	-56.883	154.384	
304.00	-57.093	136.825	
305.00	-60.180	114.391	
306.00	-58.752	99.599	
307.00	-61.919	100.464	
308.00	-62.493	117.678	
309.00	-62.274	68.020	
310.00	-64.152	71.501	
311.00	-62.378	37.489	
312.00	-64.352	55.343	
313.00	-63.440	56.035	
314.00	-67.610	59.211	
315.00	-62.693	10.294	
316.00	-67.286	20.008	
317.00	-65.986	49.317	
318.00	-71.740	-144.138	
319.00	-67.472	150.705	
320.00	-62.021	145.505	
321.00	-61.377	134.907	
322.00	-60.081	132.403	
323.00	-59.057	121.063	
324.00	-58.394	104.298	
325.00	-59.348	99.063	
326.00	-60.556	83.340	
327.00	-60.089	89.203	
328.00	-61.565	82.396	
329.00	-65.174	116.185	
330.00	-77.274	103.355	
331.00	-68.053	143.520	
332.00	-69.826	163.967	
333.00	-67.104	124.151	
334.00	-69.455	167.351	
335.00	-65.671	135.336	
336.00	-74.406	130.352	
337.00	-68.245	174.135	
338.00	-66.988	176.011	
339.00	-67.103	-153.745	
340.00	-71.159	157.697	
341.00	-63.081	-166.815	
342.00	-66.675	106.633	
343.00	-65.749	79.690	
344.00	-65.133	69.748	
345.00	-63.404	27.737	
346.00	-58.456	20.442	
347.00	-57.072	16.080	
348.00	-54.629	-15.891	
349.00	-54.861	-16.173	
350.00	-55.648	-33.985	
351.00	-56.436	-31.943	
352.00	-55.667	-42.050	
353.00	-54.507	-63.758	
354.00	-56.362	-73.832	
355.00	-59.330	-66.972	
356.00	-60.189	-102.021	
357.00	-60.677	-108.521	
358.00	-60.841	-64.475	
359.00	-61.416	-109.531	
Frequency	1800.00	MHz	
Channel	test		
Scan Axis name	Azimuth  [deg]		
Scan Axis	Amplitude	Phase	
			
0.00	-59.954	14.348	
1.00	-61.460	1.689	
2.00	-64.850	2.185	
3.00	-68.441	-1.769	
4.00	-71.560	-23.108	
5.00	-77.242	-46.618	
6.00	-99.533	125.742	
7.00	-75.982	174.530	
8.00	-73.352	-173.145	
9.00	-72.886	-170.101	
10.00	-72.292	-167.172	
11.00	-68.510	-170.837	
12.00	-69.749	-158.584	
13.00	-69.686	-150.254	
14.00	-67.372	-149.052	
15.00	-66.763	-152.530	
16.00	-64.221	-151.510	
17.00	-62.216	-145.788	
18.00	-60.466	-147.538	
19.00	-59.715	-147.565	
20.00	-58.285	-143.529	
21.00	-58.122	-141.605	
22.00	-58.609	-134.535	
23.00	-61.507	-133.197	
24.00	-64.240	-133.044	
25.00	-69.699	-120.276	
26.00	-78.745	-15.502	
27.00	-69.864	17.674	
28.00	-65.147	33.089	
29.00	-62.203	51.888	
30.00	-61.176	49.576	
31.00	-60.823	53.841	
32.00	-61.804	61.333	
33.00	-63.766	83.219	
34.00	-64.644	110.635	
35.00	-63.987	139.202	
36.00	-62.336	170.513	
37.00	-60.350	-167.514	
38.00	-59.899	-147.866	
39.00	-59.142	-138.259	
40.00	-58.983	-128.501	
41.00	-59.643	-118.330	
42.00	-60.993	-105.166	
43.00	-62.005	-91.816	
44.00	-62.669	-77.427	
45.00	-64.559	-59.607	
46.00	-63.861	-29.276	
47.00	-62.131	-19.575	
48.00	-60.441	-8.035	
49.00	-58.654	6.154	
50.00	-57.754	14.262	
51.00	-57.436	26.780	
52.00	-57.121	37.142	
53.00	-57.237	50.850	
54.00	-57.179	66.757	
55.00	-58.204	87.019	
56.00	-58.697	110.576	
57.00	-58.501	136.695	
58.00	-57.617	155.956	
59.00	-57.392	-179.970	
60.00	-57.924	-163.122	
61.00	-57.551	-144.874	
62.00	-58.527	-125.682	
63.00	-59.338	-108.410	
64.00	-61.147	-87.918	
65.00	-62.197	-57.680	
66.00	-63.650	-20.992	
67.00	-62.392	7.596	
68.00	-60.900	28.424	
69.00	-59.703	43.051	
70.00	-58.273	54.720	
71.00	-59.325	56.658	
72.00	-58.597	65.300	
73.00	-60.696	62.124	
74.00	-61.534	51.967	
75.00	-61.510	47.751	
76.00	-60.683	34.566	
77.00	-59.388	30.327	
78.00	-59.062	27.194	
79.00	-58.430	30.313	
80.00	-57.347	41.701	
81.00	-57.872	50.710	
82.00	-57.675	57.975	
83.00	-56.035	73.143	
84.00	-56.450	88.675	
85.00	-56.451	102.659	
86.00	-55.423	120.081	
87.00	-56.843	128.404	
88.00	-55.747	137.454	
89.00	-56.652	168.888	
90.00	-55.302	-163.586	
91.00	-56.588	-151.931	
92.00	-54.072	-153.308	
93.00	-55.833	-117.624	
94.00	-54.869	-88.100	
95.00	-53.105	-79.171	
96.00	-52.064	-58.073	
97.00	-50.632	-38.499	
98.00	-49.370	-29.353	
99.00	-48.844	-15.806	
100.00	-48.366	-0.827	
101.00	-48.465	12.828	
102.00	-48.176	29.910	
103.00	-48.425	40.051	
104.00	-48.739	55.464	
105.00	-49.537	71.059	
106.00	-50.280	90.058	
107.00	-51.030	111.979	
108.00	-51.448	132.825	
109.00	-51.572	161.780	
110.00	-51.504	-174.186	
111.00	-51.107	-145.659	
112.00	-50.262	-123.862	
113.00	-49.287	-97.427	
114.00	-47.952	-72.406	
115.00	-46.508	-51.561	
116.00	-45.281	-32.070	
117.00	-43.716	-14.213	
118.00	-42.565	4.634	
119.00	-41.579	19.968	
120.00	-40.442	36.254	
121.00	-39.791	51.557	
122.00	-39.213	68.002	
123.00	-38.708	82.581	
124.00	-38.263	100.633	
125.00	-37.828	117.147	
126.00	-37.407	133.222	
127.00	-36.941	150.924	
128.00	-36.401	167.036	
129.00	-36.053	-176.963	
130.00	-35.841	-162.881	
131.00	-35.832	-147.164	
132.00	-35.892	-132.647	
133.00	-36.161	-116.724	
134.00	-36.652	-100.929	
135.00	-37.272	-82.917	
136.00	-37.886	-64.134	
137.00	-38.623	-43.163	
138.00	-39.147	-19.976	
139.00	-39.488	2.840	
140.00	-39.621	27.053	
141.00	-39.578	49.849	
142.00	-39.477	73.457	
143.00	-39.256	95.516	
144.00	-38.951	117.597	
145.00	-38.589	137.872	
146.00	-38.294	157.814	
147.00	-38.060	177.294	
148.00	-37.948	-165.005	
149.00	-38.073	-146.865	
150.00	-38.317	-128.400	
151.00	-38.668	-109.185	
152.00	-38.960	-88.502	
153.00	-39.090	-67.966	
154.00	-39.186	-47.587	
155.00	-39.097	-28.781	
156.00	-39.095	-11.525	
157.00	-39.141	3.859	
158.00	-39.556	18.455	
159.00	-40.121	32.314	
160.00	-40.928	45.142	
161.00	-42.061	59.204	
162.00	-43.423	72.616	
163.00	-45.092	87.638	
164.00	-46.829	103.850	
165.00	-48.183	121.091	
166.00	-49.490	136.060	
167.00	-50.220	144.139	
168.00	-51.172	142.053	
169.00	-51.067	131.850	
170.00	-50.088	117.922	
171.00	-48.250	105.603	
172.00	-46.044	100.967	
173.00	-44.252	97.722	
174.00	-43.148	97.199	
175.00	-42.094	99.511	
176.00	-41.335	102.770	
177.00	-40.738	108.145	
178.00	-40.109	115.221	
179.00	-39.231	125.420	
180.00	-37.915	135.254	
181.00	-36.232	143.879	
182.00	-34.345	150.904	
183.00	-32.511	155.390	
184.00	-30.762	157.862	
185.00	-29.139	159.126	
186.00	-27.836	159.322	
187.00	-26.729	158.884	
188.00	-25.906	157.778	
189.00	-25.279	156.190	
190.00	-24.929	154.664	
191.00	-24.846	152.596	
192.00	-25.037	150.384	
193.00	-25.523	147.944	
194.00	-26.296	145.355	
195.00	-27.429	142.559	
196.00	-28.896	139.899	
197.00	-30.945	137.415	
198.00	-33.529	135.565	
199.00	-37.082	134.595	
200.00	-42.000	138.831	
201.00	-49.328	164.955	
202.00	-50.246	-123.036	
203.00	-45.973	-102.512	
204.00	-44.197	-101.076	
205.00	-44.116	-105.072	
206.00	-45.564	-114.342	
207.00	-48.493	-129.042	
208.00	-51.817	-162.463	
209.00	-52.347	139.004	
210.00	-48.499	104.597	
211.00	-45.669	89.633	
212.00	-44.434	81.143	
213.00	-43.720	75.416	
214.00	-44.030	74.021	
215.00	-44.604	75.430	
216.00	-45.751	83.758	
217.00	-46.391	97.632	
218.00	-45.967	115.417	
219.00	-44.212	125.747	
220.00	-42.450	128.918	
221.00	-40.910	130.103	
222.00	-39.941	126.146	
223.00	-39.511	121.744	
224.00	-39.411	116.550	
225.00	-39.570	111.626	
226.00	-40.297	107.002	
227.00	-41.530	102.164	
228.00	-42.854	98.521	
229.00	-44.513	103.747	
230.00	-46.364	113.014	
231.00	-46.727	128.665	
232.00	-45.559	142.290	
233.00	-43.538	147.499	
234.00	-41.829	145.693	
235.00	-40.404	140.426	
236.00	-39.315	133.330	
237.00	-38.508	124.721	
238.00	-37.931	114.529	
239.00	-37.543	103.678	
240.00	-37.364	92.368	
241.00	-37.353	80.334	
242.00	-37.376	67.788	
243.00	-37.590	54.746	
244.00	-37.802	41.282	
245.00	-38.021	27.363	
246.00	-38.333	13.534	
247.00	-38.607	-0.209	
248.00	-38.876	-13.965	
249.00	-39.267	-27.495	
250.00	-39.675	-40.727	
251.00	-40.234	-53.586	
252.00	-40.651	-66.389	
253.00	-41.316	-78.809	
254.00	-42.000	-92.519	
255.00	-42.849	-105.114	
256.00	-43.649	-119.389	
257.00	-44.485	-133.195	
258.00	-45.363	-147.342	
259.00	-46.293	-161.340	
260.00	-46.947	-177.379	
261.00	-47.715	168.310	
262.00	-48.786	151.377	
263.00	-49.035	134.817	
264.00	-50.001	116.393	
265.00	-50.116	97.627	
266.00	-50.289	79.136	
267.00	-50.173	61.070	
268.00	-49.899	44.704	
269.00	-49.758	31.015	
270.00	-49.319	17.997	
271.00	-48.946	3.193	
272.00	-49.543	-8.403	
273.00	-49.821	-22.529	
274.00	-50.133	-32.179	
275.00	-50.567	-47.074	
276.00	-50.721	-63.968	
277.00	-51.252	-81.643	
278.00	-52.450	-95.171	
279.00	-52.580	-113.072	
280.00	-53.850	-129.579	
281.00	-54.119	-145.350	
282.00	-55.079	-168.911	
283.00	-56.894	177.420	
284.00	-58.494	148.161	
285.00	-59.184	122.522	
286.00	-58.435	92.462	
287.00	-58.116	57.366	
288.00	-56.322	38.416	
289.00	-56.374	15.252	
290.00	-56.971	3.279	
291.00	-57.507	-11.691	
292.00	-58.389	-30.463	
293.00	-60.374	-52.255	
294.00	-61.209	-80.067	
295.00	-61.883	-118.009	
296.00	-60.506	-133.031	
297.00	-61.163	-150.226	
298.00	-59.617	-162.269	
299.00	-61.494	-172.090	
300.00	-62.417	-177.997	
301.00	-64.536	172.416	
302.00	-70.437	-168.808	
303.00	-68.003	-156.147	
304.00	-68.727	-153.664	
305.00	-65.423	-152.863	
306.00	-64.082	-167.103	
307.00	-62.520	169.094	
308.00	-61.073	158.984	
309.00	-59.650	137.798	
310.00	-59.042	118.755	
311.00	-59.069	108.277	
312.00	-58.639	84.311	
313.00	-58.914	58.688	
314.00	-59.644	36.874	
315.00	-59.506	15.625	
316.00	-58.910	-9.548	
317.00	-58.651	-33.920	
318.00	-59.282	-55.000	
319.00	-59.067	-79.247	
320.00	-58.562	-99.402	
321.00	-59.496	-115.426	
322.00	-59.615	-136.372	
323.00	-60.828	-155.334	
324.00	-61.270	-179.281	
325.00	-62.986	148.811	
326.00	-64.026	121.249	
327.00	-64.472	84.732	
328.00	-64.296	57.749	
329.00	-62.986	27.287	
330.00	-60.546	-0.047	
331.00	-59.147	-27.609	
332.00	-56.834	-48.514	
333.00	-55.363	-64.515	
334.00	-54.465	-80.538	
335.00	-53.679	-94.772	
336.00	-53.239	-108.508	
337.00	-53.213	-123.384	
338.00	-53.728	-137.079	
339.00	-54.229	-150.420	
340.00	-55.182	-162.572	
341.00	-56.573	-172.735	
342.00	-58.492	-179.928	
343.00	-60.670	170.865	
344.00	-64.433	170.204	
345.00	-68.168	-164.629	
346.00	-68.363	-146.389	
347.00	-70.053	-132.006	
348.00	-68.180	-136.705	
349.00	-69.703	-137.924	
350.00	-71.569	-166.572	
351.00	-73.220	166.929	
352.00	-73.902	126.944	
353.00	-67.785	62.701	
354.00	-66.129	49.420	
355.00	-62.780	30.903	
356.00	-60.463	35.515	
357.00	-59.612	21.915	
358.00	-59.417	18.016	
359.00	-59.141	12.026	
Frequency	1850.00	MHz	
Channel	test		
Scan Axis name	Azimuth  [deg]		
Scan Axis	Amplitude	Phase	
			
0.00	-59.100	56.792	
1.00	-59.017	52.215	
2.00	-60.239	49.916	
3.00	-62.140	47.335	
4.00	-65.991	49.541	
5.00	-67.140	72.756	
6.00	-71.364	124.884	
7.00	-67.075	134.692	
8.00	-65.633	147.683	
9.00	-64.458	136.592	
10.00	-63.520	122.692	
11.00	-53.023	60.420	
12.00	-60.713	76.705	
13.00	-58.426	64.393	
14.00	-55.847	54.317	
15.00	-54.218	52.708	
16.00	-53.384	48.265	
17.00	-52.835	46.285	
18.00	-53.070	41.629	
19.00	-53.542	35.757	
20.00	-54.401	32.900	
21.00	-55.949	27.684	
22.00	-57.004	21.061	
23.00	-60.220	18.792	
24.00	-64.486	10.278	
25.00	-69.094	-13.029	
26.00	-68.965	-67.668	
27.00	-68.090	-86.987	
28.00	-64.304	-78.947	
29.00	-63.069	-73.351	
30.00	-63.356	-70.300	
31.00	-66.015	-56.312	
32.00	-66.887	-76.670	
33.00	-66.615	-85.816	
34.00	-67.851	-102.762	
35.00	-69.291	-114.288	
36.00	-67.662	-27.443	
37.00	-68.951	-145.782	
38.00	-73.876	-75.956	
39.00	-73.809	-22.340	
40.00	-72.154	15.840	
41.00	-71.971	6.876	
42.00	-63.329	-7.103	
43.00	-70.463	-1.518	
44.00	-67.743	-36.867	
45.00	-63.680	-46.465	
46.00	-60.738	-45.039	
47.00	-58.786	-34.767	
48.00	-58.110	-33.104	
49.00	-58.620	-18.254	
50.00	-59.340	-12.478	
51.00	-62.921	7.782	
52.00	-69.578	45.058	
53.00	-69.429	171.980	
54.00	-61.389	-162.204	
55.00	-57.705	-140.927	
56.00	-55.255	-126.327	
57.00	-53.692	-113.277	
58.00	-52.808	-99.135	
59.00	-52.341	-82.669	
60.00	-52.213	-69.749	
61.00	-52.483	-55.157	
62.00	-52.871	-43.850	
63.00	-53.926	-31.448	
64.00	-55.642	-26.537	
65.00	-57.189	-18.741	
66.00	-59.043	-23.842	
67.00	-61.277	-49.943	
68.00	-60.088	-74.752	
69.00	-57.318	-80.838	
70.00	-55.157	-80.801	
71.00	-53.740	-78.281	
72.00	-52.612	-68.863	
73.00	-52.440	-61.662	
74.00	-52.522	-48.328	
75.00	-53.175	-39.804	
76.00	-54.258	-29.247	
77.00	-55.990	-9.365	
78.00	-57.471	9.798	
79.00	-59.637	41.208	
80.00	-59.705	70.272	
81.00	-59.470	97.832	
82.00	-57.871	126.005	
83.00	-56.269	145.347	
84.00	-56.393	162.542	
85.00	-55.983	176.673	
86.00	-56.320	-166.919	
87.00	-55.810	-150.922	
88.00	-56.192	-135.329	
89.00	-56.440	-121.779	
90.00	-56.824	-107.759	
91.00	-58.122	-95.375	
92.00	-58.028	-76.793	
93.00	-60.141	-61.904	
94.00	-60.620	-42.161	
95.00	-62.092	-17.865	
96.00	-60.045	1.260	
97.00	-59.630	18.623	
98.00	-59.780	33.516	
99.00	-59.351	46.634	
100.00	-58.727	48.868	
101.00	-60.885	69.621	
102.00	-61.358	96.297	
103.00	-61.868	115.031	
104.00	-61.173	142.632	
105.00	-60.166	164.917	
106.00	-58.266	179.354	
107.00	-56.706	-163.827	
108.00	-55.642	-153.953	
109.00	-54.576	-143.513	
110.00	-53.958	-135.222	
111.00	-53.803	-124.352	
112.00	-53.885	-115.134	
113.00	-54.147	-103.963	
114.00	-54.841	-96.144	
115.00	-56.314	-87.627	
116.00	-57.801	-79.942	
117.00	-60.222	-79.625	
118.00	-64.025	-95.927	
119.00	-62.857	-146.644	
120.00	-57.921	-159.866	
121.00	-53.853	-158.206	
122.00	-50.524	-151.506	
123.00	-48.230	-143.361	
124.00	-46.152	-133.423	
125.00	-44.542	-124.425	
126.00	-43.193	-114.272	
127.00	-42.139	-103.990	
128.00	-41.251	-94.726	
129.00	-40.633	-84.759	
130.00	-40.299	-76.543	
131.00	-40.328	-67.702	
132.00	-40.395	-59.714	
133.00	-41.035	-52.833	
134.00	-42.105	-47.312	
135.00	-43.660	-44.232	
136.00	-45.951	-44.734	
137.00	-48.570	-56.480	
138.00	-50.544	-84.856	
139.00	-48.567	-114.356	
140.00	-45.141	-122.417	
141.00	-42.649	-121.800	
142.00	-40.574	-118.018	
143.00	-39.089	-112.577	
144.00	-38.022	-105.433	
145.00	-37.217	-98.699	
146.00	-36.730	-91.271	
147.00	-36.580	-84.666	
148.00	-36.760	-78.034	
149.00	-37.293	-71.418	
150.00	-38.270	-64.262	
151.00	-39.580	-55.826	
152.00	-41.627	-46.088	
153.00	-44.181	-33.225	
154.00	-47.625	-10.921	
155.00	-49.838	28.731	
156.00	-49.163	67.280	
157.00	-47.079	94.442	
158.00	-45.716	108.507	
159.00	-45.066	120.350	
160.00	-45.378	130.915	
161.00	-46.934	143.059	
162.00	-49.781	164.018	
163.00	-52.407	-150.210	
164.00	-49.070	-102.909	
165.00	-44.832	-82.834	
166.00	-41.918	-75.372	
167.00	-39.922	-72.158	
168.00	-38.754	-72.299	
169.00	-38.040	-74.524	
170.00	-37.960	-78.452	
171.00	-38.266	-84.500	
172.00	-38.614	-94.196	
173.00	-39.102	-105.620	
174.00	-39.529	-118.094	
175.00	-39.795	-129.821	
176.00	-40.224	-139.620	
177.00	-41.388	-145.126	
178.00	-43.875	-144.254	
179.00	-48.118	-120.086	
180.00	-46.491	-46.579	
181.00	-39.461	-25.583	
182.00	-34.772	-22.240	
183.00	-31.334	-23.249	
184.00	-28.813	-25.743	
185.00	-26.944	-28.740	
186.00	-25.519	-32.254	
187.00	-24.487	-36.193	
188.00	-23.800	-40.305	
189.00	-23.413	-44.622	
190.00	-23.350	-49.154	
191.00	-23.595	-53.868	
192.00	-24.185	-58.929	
193.00	-25.086	-64.195	
194.00	-26.413	-70.019	
195.00	-28.181	-76.178	
196.00	-30.544	-82.995	
197.00	-33.832	-91.230	
198.00	-38.522	-102.578	
199.00	-46.583	-132.932	
200.00	-48.458	126.940	
201.00	-42.326	94.479	
202.00	-39.645	82.610	
203.00	-38.772	74.681	
204.00	-38.968	69.301	
205.00	-39.997	66.371	
206.00	-41.897	65.801	
207.00	-44.368	72.921	
208.00	-46.528	90.831	
209.00	-46.435	113.181	
210.00	-44.588	124.417	
211.00	-42.951	124.867	
212.00	-42.053	120.335	
213.00	-41.760	111.740	
214.00	-42.098	101.028	
215.00	-42.710	86.433	
216.00	-43.817	69.594	
217.00	-45.259	46.936	
218.00	-46.543	18.485	
219.00	-47.098	-12.705	
220.00	-46.935	-42.971	
221.00	-45.730	-67.734	
222.00	-44.858	-91.396	
223.00	-44.545	-108.537	
224.00	-44.311	-124.316	
225.00	-44.757	-137.665	
226.00	-45.490	-148.497	
227.00	-47.045	-156.954	
228.00	-49.853	-160.555	
229.00	-53.165	-152.591	
230.00	-58.477	-120.487	
231.00	-53.371	-90.398	
232.00	-50.090	-85.640	
233.00	-48.035	-91.775	
234.00	-46.559	-102.838	
235.00	-45.718	-115.274	
236.00	-45.234	-130.775	
237.00	-45.159	-149.545	
238.00	-44.562	-166.327	
239.00	-44.214	176.069	
240.00	-43.789	160.044	
241.00	-43.870	143.755	
242.00	-43.945	125.945	
243.00	-44.273	111.479	
244.00	-44.733	95.923	
245.00	-45.627	79.657	
246.00	-46.775	62.809	
247.00	-47.845	43.846	
248.00	-49.271	25.659	
249.00	-50.657	2.787	
250.00	-51.876	-19.508	
251.00	-53.301	-35.845	
252.00	-54.550	-63.318	
253.00	-55.843	-86.688	
254.00	-57.575	-110.272	
255.00	-60.423	-134.290	
256.00	-62.710	-165.389	
257.00	-66.490	146.743	
258.00	-62.638	104.550	
259.00	-60.818	49.925	
260.00	-58.093	28.758	
261.00	-56.186	8.770	
262.00	-54.839	-5.604	
263.00	-54.119	-22.942	
264.00	-53.439	-38.631	
265.00	-52.924	-54.306	
266.00	-52.695	-68.611	
267.00	-52.858	-87.036	
268.00	-53.137	-100.151	
269.00	-53.446	-114.410	
270.00	-54.629	-133.628	
271.00	-55.684	-149.199	
272.00	-56.327	-169.360	
273.00	-57.413	172.913	
274.00	-58.769	148.752	
275.00	-59.359	112.260	
276.00	-59.660	90.085	
277.00	-59.942	60.415	
278.00	-58.788	35.792	
279.00	-58.871	16.534	
280.00	-56.154	2.809	
281.00	-56.604	-18.168	
282.00	-55.869	-31.673	
283.00	-55.446	-50.076	
284.00	-56.852	-58.759	
285.00	-58.142	-69.735	
286.00	-57.859	-76.402	
287.00	-59.080	-86.311	
288.00	-60.528	-87.898	
289.00	-62.724	-92.136	
290.00	-63.400	-87.074	
291.00	-64.293	-82.446	
292.00	-64.214	-64.869	
293.00	-62.210	-71.930	
294.00	-60.580	-68.651	
295.00	-60.021	-78.722	
296.00	-56.040	-74.463	
297.00	-59.008	-98.233	
298.00	-59.229	-115.001	
299.00	-59.927	-121.162	
300.00	-61.208	-143.501	
301.00	-62.239	-154.781	
302.00	-65.640	-178.611	
303.00	-72.359	150.400	
304.00	-72.311	39.119	
305.00	-65.694	9.606	
306.00	-60.756	-16.824	
307.00	-58.648	-34.292	
308.00	-56.416	-44.466	
309.00	-55.159	-62.457	
310.00	-54.471	-75.431	
311.00	-54.142	-91.093	
312.00	-54.089	-105.344	
313.00	-54.167	-121.354	
314.00	-54.489	-138.034	
315.00	-55.599	-152.458	
316.00	-56.280	-169.527	
317.00	-57.973	176.872	
318.00	-60.367	160.182	
319.00	-63.708	129.664	
320.00	-68.523	127.735	
321.00	-78.522	74.441	
322.00	-71.367	-35.466	
323.00	-65.063	-55.468	
324.00	-62.859	-62.900	
325.00	-59.981	-66.324	
326.00	-59.238	-74.626	
327.00	-58.791	-78.822	
328.00	-57.621	-89.891	
329.00	-57.741	-99.031	
330.00	-56.594	-105.436	
331.00	-57.555	-119.539	
332.00	-58.265	-129.224	
333.00	-58.496	-144.895	
334.00	-60.997	-150.762	
335.00	-65.757	-162.154	
336.00	-68.884	163.102	
337.00	-71.250	88.793	
338.00	-66.208	46.678	
339.00	-63.263	31.037	
340.00	-62.803	28.729	
341.00	-61.503	29.914	
342.00	-63.454	20.253	
343.00	-66.952	14.216	
344.00	-73.319	28.225	
345.00	-87.940	123.440	
346.00	-72.554	-175.496	
347.00	-66.071	172.466	
348.00	-62.841	160.022	
349.00	-61.167	169.536	
350.00	-59.727	149.932	
351.00	-60.445	138.566	
352.00	-60.080	135.244	
353.00	-61.166	132.530	
354.00	-62.467	118.913	
355.00	-62.969	100.475	
356.00	-62.535	85.303	
357.00	-60.704	77.752	
358.00	-62.159	70.238	
359.00	-59.315	59.085	
Frequency	1950.00	MHz	
Channel	test		
Scan Axis name	Azimuth  [deg]		
Scan Axis	Amplitude	Phase	
			
0.00	-59.149	-78.652	
1.00	-58.394	-89.498	
2.00	-56.003	-88.603	
3.00	-55.262	-96.120	
4.00	-55.749	-104.201	
5.00	-55.877	-109.354	
6.00	-56.323	-117.103	
7.00	-57.983	-127.019	
8.00	-59.396	-131.888	
9.00	-60.039	-157.987	
10.00	-65.296	-177.209	
11.00	-65.360	158.964	
12.00	-64.943	122.684	
13.00	-65.374	114.007	
14.00	-62.062	119.597	
15.00	-67.072	102.736	
16.00	-66.382	109.586	
17.00	-74.549	144.102	
18.00	-74.822	178.179	
19.00	-66.205	-174.220	
20.00	-63.282	-151.916	
21.00	-63.171	-147.228	
22.00	-62.310	-143.113	
23.00	-60.264	-155.936	
24.00	-61.619	-140.256	
25.00	-61.986	-147.246	
26.00	-63.026	-155.365	
27.00	-64.807	-174.933	
28.00	-65.958	159.457	
29.00	-67.572	151.782	
30.00	-63.734	89.003	
31.00	-65.866	112.745	
32.00	-63.987	111.463	
33.00	-66.327	120.995	
34.00	-66.954	136.006	
35.00	-74.478	106.895	
36.00	-73.953	-62.889	
37.00	-67.493	-49.709	
38.00	-62.404	-56.176	
39.00	-60.888	-46.554	
40.00	-58.241	-37.592	
41.00	-57.624	-34.482	
42.00	-58.017	-23.907	
43.00	-59.335	-14.454	
44.00	-61.788	-6.378	
45.00	-64.297	8.445	
46.00	-68.855	31.866	
47.00	-74.471	68.486	
48.00	-71.597	148.597	
49.00	-68.036	176.047	
50.00	-68.040	-167.544	
51.00	-66.219	-145.512	
52.00	-67.158	-120.490	
53.00	-71.902	-90.649	
54.00	-72.762	-30.675	
55.00	-66.356	-19.093	
56.00	-64.864	-3.281	
57.00	-63.690	33.372	
58.00	-62.473	28.779	
59.00	-64.116	38.897	
60.00	-65.038	46.100	
61.00	-65.319	75.812	
62.00	-76.657	122.542	
63.00	-65.853	154.301	
64.00	-65.432	168.070	
65.00	-62.745	-162.491	
66.00	-61.069	-149.109	
67.00	-59.373	-143.903	
68.00	-58.164	-127.689	
69.00	-57.042	-119.114	
70.00	-56.640	-110.711	
71.00	-56.923	-106.378	
72.00	-56.810	-91.935	
73.00	-57.437	-82.468	
74.00	-57.789	-75.995	
75.00	-60.189	-58.044	
76.00	-60.727	-37.090	
77.00	-62.402	-25.107	
78.00	-62.582	7.172	
79.00	-62.496	24.048	
80.00	-62.525	48.217	
81.00	-60.843	49.857	
82.00	-60.588	61.874	
83.00	-61.550	82.714	
84.00	-60.472	87.399	
85.00	-59.728	98.133	
86.00	-60.399	100.907	
87.00	-60.841	111.413	
88.00	-62.649	122.559	
89.00	-61.830	122.312	
90.00	-62.103	131.223	
91.00	-60.951	118.696	
92.00	-62.782	133.764	
93.00	-63.705	140.538	
94.00	-64.529	139.536	
95.00	-65.756	162.361	
96.00	-69.225	155.520	
97.00	-69.478	177.793	
98.00	-71.580	-165.834	
99.00	-72.395	-120.239	
100.00	-70.784	-98.437	
101.00	-67.733	-33.043	
102.00	-68.347	-31.518	
103.00	-69.257	-15.152	
104.00	-66.486	-21.330	
105.00	-66.193	-4.725	
106.00	-68.527	13.276	
107.00	-65.747	23.803	
108.00	-68.339	32.794	
109.00	-65.368	68.508	
110.00	-68.602	104.326	
111.00	-64.090	106.855	
112.00	-63.322	108.813	
113.00	-60.358	134.585	
114.00	-58.643	144.713	
115.00	-57.270	151.849	
116.00	-56.637	164.864	
117.00	-55.879	172.074	
118.00	-55.653	-177.478	
119.00	-55.942	-160.417	
120.00	-55.903	-147.286	
121.00	-55.354	-131.150	
122.00	-56.124	-117.736	
123.00	-55.525	-98.052	
124.00	-54.932	-78.549	
125.00	-54.465	-62.501	
126.00	-54.719	-45.781	
127.00	-55.219	-27.599	
128.00	-55.372	-7.696	
129.00	-56.849	15.070	
130.00	-56.780	42.080	
131.00	-56.610	80.320	
132.00	-54.155	105.438	
133.00	-51.882	127.714	
134.00	-50.308	140.527	
135.00	-48.734	152.799	
136.00	-48.057	162.841	
137.00	-47.684	172.811	
138.00	-47.665	-177.659	
139.00	-48.547	-169.560	
140.00	-49.931	-161.970	
141.00	-52.332	-158.585	
142.00	-56.734	-161.320	
143.00	-60.958	153.832	
144.00	-55.379	109.407	
145.00	-50.365	104.057	
146.00	-46.631	108.445	
147.00	-44.052	114.973	
148.00	-42.110	121.967	
149.00	-40.691	129.431	
150.00	-39.686	137.311	
151.00	-39.194	144.917	
152.00	-39.124	152.257	
153.00	-39.393	160.427	
154.00	-40.191	169.582	
155.00	-41.478	179.138	
156.00	-43.552	-169.450	
157.00	-46.647	-152.945	
158.00	-50.798	-122.312	
159.00	-52.488	-64.209	
160.00	-49.252	-25.338	
161.00	-46.594	-4.540	
162.00	-44.869	9.267	
163.00	-44.245	20.142	
164.00	-44.420	31.078	
165.00	-45.322	40.719	
166.00	-47.244	54.660	
167.00	-49.356	76.718	
168.00	-51.183	103.994	
169.00	-51.281	135.881	
170.00	-50.780	158.342	
171.00	-50.091	167.754	
172.00	-50.784	169.641	
173.00	-52.364	161.822	
174.00	-53.426	135.748	
175.00	-51.240	104.680	
176.00	-48.192	88.754	
177.00	-45.824	84.060	
178.00	-44.596	85.590	
179.00	-44.462	93.560	
180.00	-45.220	109.061	
181.00	-45.498	140.697	
182.00	-42.956	174.431	
183.00	-39.164	-165.770	
184.00	-35.734	-155.116	
185.00	-33.061	-149.689	
186.00	-31.024	-146.720	
187.00	-29.528	-145.207	
188.00	-28.466	-144.557	
189.00	-27.802	-144.659	
190.00	-27.521	-145.206	
191.00	-27.620	-146.197	
192.00	-28.127	-147.825	
193.00	-29.011	-149.579	
194.00	-30.367	-151.445	
195.00	-32.157	-153.401	
196.00	-34.643	-155.377	
197.00	-37.969	-156.950	
198.00	-42.734	-154.590	
199.00	-50.314	-140.438	
200.00	-55.296	-54.827	
201.00	-49.058	-24.606	
202.00	-46.645	-21.878	
203.00	-46.193	-25.029	
204.00	-47.159	-30.331	
205.00	-49.408	-37.719	
206.00	-54.035	-42.829	
207.00	-64.939	-54.521	
208.00	-61.412	129.448	
209.00	-53.603	120.231	
210.00	-50.479	112.558	
211.00	-48.673	105.409	
212.00	-48.150	99.905	
213.00	-48.196	95.120	
214.00	-48.497	92.311	
215.00	-48.937	92.895	
216.00	-50.016	95.009	
217.00	-50.424	100.952	
218.00	-50.390	104.345	
219.00	-49.942	106.705	
220.00	-49.234	105.080	
221.00	-48.810	101.975	
222.00	-48.480	95.761	
223.00	-48.847	90.541	
224.00	-48.967	84.819	
225.00	-49.650	72.224	
226.00	-51.065	63.057	
227.00	-52.206	51.714	
228.00	-54.155	40.078	
229.00	-55.701	29.009	
230.00	-57.107	19.200	
231.00	-58.426	11.813	
232.00	-57.845	7.800	
233.00	-55.473	2.909	
234.00	-54.636	0.457	
235.00	-52.588	-4.135	
236.00	-51.601	-11.859	
237.00	-49.543	-20.421	
238.00	-48.522	-30.611	
239.00	-47.680	-41.291	
240.00	-47.246	-51.880	
241.00	-47.064	-64.875	
242.00	-47.122	-77.981	
243.00	-47.414	-90.597	
244.00	-48.080	-105.455	
245.00	-48.481	-120.714	
246.00	-49.637	-136.840	
247.00	-50.865	-153.593	
248.00	-51.973	-168.472	
249.00	-53.555	170.275	
250.00	-55.227	151.730	
251.00	-57.266	130.127	
252.00	-60.016	106.799	
253.00	-64.328	77.320	
254.00	-65.782	20.442	
255.00	-63.069	-37.164	
256.00	-60.071	-61.648	
257.00	-57.899	-83.648	
258.00	-56.639	-99.018	
259.00	-55.373	-114.861	
260.00	-54.923	-129.284	
261.00	-55.355	-144.614	
262.00	-55.046	-160.690	
263.00	-55.347	-177.705	
264.00	-56.182	166.745	
265.00	-56.676	150.924	
266.00	-57.826	139.040	
267.00	-58.749	119.101	
268.00	-61.613	111.518	
269.00	-64.588	93.436	
270.00	-66.424	64.385	
271.00	-78.694	8.538	
272.00	-74.313	-90.413	
273.00	-67.866	-110.901	
274.00	-63.507	-134.557	
275.00	-61.520	-160.626	
276.00	-60.080	-168.251	
277.00	-58.850	175.007	
278.00	-58.066	164.053	
279.00	-58.042	146.271	
280.00	-58.117	135.021	
281.00	-58.813	119.252	
282.00	-60.510	97.263	
283.00	-62.680	84.412	
284.00	-63.905	57.295	
285.00	-64.872	21.291	
286.00	-65.829	-23.517	
287.00	-65.346	-58.806	
288.00	-62.435	-87.613	
289.00	-62.903	-100.714	
290.00	-61.341	-139.123	
291.00	-61.082	-169.048	
292.00	-61.045	172.417	
293.00	-60.191	151.485	
294.00	-59.674	153.089	
295.00	-58.667	125.673	
296.00	-59.144	112.065	
297.00	-60.383	94.036	
298.00	-60.106	87.572	
299.00	-61.894	79.087	
300.00	-62.671	72.038	
301.00	-64.032	77.651	
302.00	-68.169	83.808	
303.00	-67.705	89.175	
304.00	-68.154	84.539	
305.00	-66.308	71.991	
306.00	-65.751	40.625	
307.00	-66.071	28.695	
308.00	-63.235	12.952	
309.00	-61.151	-3.945	
310.00	-59.986	-28.693	
311.00	-59.876	-39.633	
312.00	-59.172	-49.606	
313.00	-57.976	-62.433	
314.00	-59.420	-84.734	
315.00	-60.274	-92.835	
316.00	-59.518	-110.388	
317.00	-59.690	-127.400	
318.00	-59.322	-140.975	
319.00	-58.175	-159.797	
320.00	-58.079	-167.705	
321.00	-57.971	175.014	
322.00	-56.802	159.260	
323.00	-57.168	143.540	
324.00	-56.594	127.179	
325.00	-56.848	110.987	
326.00	-56.909	97.003	
327.00	-57.341	82.307	
328.00	-58.395	65.341	
329.00	-58.849	54.717	
330.00	-60.483	41.828	
331.00	-61.770	23.420	
332.00	-63.686	7.760	
333.00	-69.497	6.368	
334.00	-79.007	-38.822	
335.00	-74.135	-65.052	
336.00	-75.892	152.960	
337.00	-69.194	-165.449	
338.00	-64.440	-178.465	
339.00	-63.553	149.042	
340.00	-61.532	147.538	
341.00	-61.880	146.577	
342.00	-59.619	134.894	
343.00	-61.538	128.981	
344.00	-61.207	122.088	
345.00	-62.601	150.048	
346.00	-63.808	105.717	
347.00	-63.516	91.060	
348.00	-64.619	86.601	
349.00	-69.004	77.892	
350.00	-74.910	102.039	
351.00	-91.501	-168.204	
352.00	-80.637	-134.873	
353.00	-74.430	-133.043	
354.00	-71.714	-134.893	
355.00	-74.440	-155.378	
356.00	-67.198	-105.130	
357.00	-71.407	-67.835	
358.00	-66.026	-85.982	
359.00	-62.426	-75.607	
Frequency	2050.00	MHz	
Channel	test		
Scan Axis name	Azimuth  [deg]		
Scan Axis	Amplitude	Phase	
			
0.00	-65.663	-106.940	
1.00	-69.126	-133.531	
2.00	-71.159	-146.180	
3.00	-70.202	179.011	
4.00	-70.688	174.902	
5.00	-69.115	113.906	
6.00	-68.233	102.064	
7.00	-66.371	82.727	
8.00	-65.137	75.083	
9.00	-63.090	54.719	
10.00	-62.531	44.929	
11.00	-60.998	38.934	
12.00	-59.497	33.945	
13.00	-59.122	25.155	
14.00	-58.893	18.539	
15.00	-58.373	10.200	
16.00	-59.251	0.241	
17.00	-61.108	-12.626	
18.00	-62.532	-39.151	
19.00	-61.941	-66.115	
20.00	-61.848	-85.525	
21.00	-60.543	-99.691	
22.00	-58.714	-116.449	
23.00	-57.440	-127.528	
24.00	-57.063	-131.290	
25.00	-57.354	-132.325	
26.00	-58.263	-133.584	
27.00	-60.322	-129.063	
28.00	-65.021	-120.340	
29.00	-73.810	-99.811	
30.00	-66.969	39.429	
31.00	-67.196	45.337	
32.00	-62.604	55.199	
33.00	-62.326	57.724	
34.00	-61.038	71.985	
35.00	-63.453	76.943	
36.00	-62.602	83.113	
37.00	-64.100	86.812	
38.00	-66.627	86.170	
39.00	-73.197	76.610	
40.00	-70.517	49.098	
41.00	-70.014	35.177	
42.00	-69.212	11.438	
43.00	-66.311	-5.843	
44.00	-65.363	-3.184	
45.00	-64.229	21.961	
46.00	-65.728	34.559	
47.00	-68.035	59.978	
48.00	-67.131	109.252	
49.00	-62.691	148.974	
50.00	-59.194	157.121	
51.00	-56.659	166.815	
52.00	-55.275	-176.374	
53.00	-54.662	-166.038	
54.00	-54.994	-159.199	
55.00	-55.220	-147.087	
56.00	-55.947	-137.174	
57.00	-56.961	-124.280	
58.00	-59.392	-111.452	
59.00	-60.739	-87.794	
60.00	-61.635	-77.366	
61.00	-63.530	-61.165	
62.00	-64.150	-60.996	
63.00	-64.600	-62.962	
64.00	-67.213	-78.463	
65.00	-72.728	-107.716	
66.00	-75.676	-160.283	
67.00	-67.968	-175.894	
68.00	-65.115	165.783	
69.00	-61.809	178.132	
70.00	-60.447	159.668	
71.00	-59.059	156.532	
72.00	-58.848	155.660	
73.00	-58.336	150.826	
74.00	-58.451	150.964	
75.00	-57.756	145.714	
76.00	-59.361	130.191	
77.00	-59.798	132.052	
78.00	-59.218	124.128	
79.00	-59.705	125.671	
80.00	-61.348	126.098	
81.00	-61.373	126.075	
82.00	-62.130	129.790	
83.00	-60.639	142.405	
84.00	-64.357	132.431	
85.00	-62.290	143.207	
86.00	-61.547	146.063	
87.00	-68.565	173.818	
88.00	-63.406	149.603	
89.00	-70.260	167.242	
90.00	-66.946	-154.519	
91.00	-66.413	-98.940	
92.00	-65.367	-54.948	
93.00	-65.588	-55.365	
94.00	-67.167	-56.187	
95.00	-65.435	-46.230	
96.00	-63.543	-42.648	
97.00	-61.518	-37.551	
98.00	-59.803	-35.198	
99.00	-62.323	-14.445	
100.00	-61.378	-0.596	
101.00	-61.010	28.853	
102.00	-59.804	49.159	
103.00	-58.892	65.444	
104.00	-57.681	81.533	
105.00	-57.041	93.320	
106.00	-56.074	103.758	
107.00	-56.031	116.186	
108.00	-56.356	128.431	
109.00	-56.730	145.459	
110.00	-57.353	159.384	
111.00	-57.307	179.123	
112.00	-57.815	-158.482	
113.00	-57.357	-138.119	
114.00	-56.425	-128.414	
115.00	-55.900	-109.945	
116.00	-55.220	-97.082	
117.00	-55.149	-88.835	
118.00	-55.022	-81.825	
119.00	-54.715	-74.298	
120.00	-54.768	-66.224	
121.00	-54.976	-63.236	
122.00	-55.581	-55.776	
123.00	-56.162	-49.536	
124.00	-57.164	-37.561	
125.00	-59.398	-30.368	
126.00	-62.149	-16.421	
127.00	-67.322	15.950	
128.00	-67.773	83.610	
129.00	-63.246	115.201	
130.00	-59.532	131.410	
131.00	-57.953	145.800	
132.00	-57.060	154.707	
133.00	-57.612	163.541	
134.00	-58.522	164.683	
135.00	-61.442	160.601	
136.00	-63.400	138.415	
137.00	-62.058	100.546	
138.00	-57.696	86.902	
139.00	-54.270	85.433	
140.00	-51.574	91.108	
141.00	-50.083	97.149	
142.00	-48.972	101.757	
143.00	-48.204	105.673	
144.00	-47.999	107.602	
145.00	-48.069	104.948	
146.00	-48.547	97.749	
147.00	-48.113	82.199	
148.00	-46.971	68.530	
149.00	-44.878	57.508	
150.00	-42.838	53.002	
151.00	-41.089	50.963	
152.00	-39.791	51.688	
153.00	-38.909	53.565	
154.00	-38.491	55.851	
155.00	-38.591	58.375	
156.00	-39.117	59.747	
157.00	-40.315	61.234	
158.00	-42.115	60.567	
159.00	-44.712	56.110	
160.00	-48.376	43.769	
161.00	-51.974	12.059	
162.00	-51.745	-32.349	
163.00	-49.366	-52.865	
164.00	-48.397	-62.866	
165.00	-48.530	-70.639	
166.00	-50.433	-80.591	
167.00	-53.442	-105.337	
168.00	-53.973	-155.570	
169.00	-49.706	173.677	
170.00	-46.805	163.116	
171.00	-45.246	160.147	
172.00	-45.116	158.488	
173.00	-46.683	159.030	
174.00	-51.172	164.202	
175.00	-62.656	-130.834	
176.00	-50.790	-47.096	
177.00	-44.848	-41.157	
178.00	-42.052	-44.041	
179.00	-40.835	-49.343	
180.00	-40.884	-59.569	
181.00	-41.582	-80.716	
182.00	-41.082	-116.890	
183.00	-37.778	-148.335	
184.00	-33.936	-166.318	
185.00	-30.784	-176.317	
186.00	-28.378	177.005	
187.00	-26.550	171.978	
188.00	-25.243	167.739	
189.00	-24.374	163.691	
190.00	-23.916	159.770	
191.00	-23.850	155.860	
192.00	-24.122	151.713	
193.00	-24.751	147.422	
194.00	-25.785	142.597	
195.00	-27.224	137.129	
196.00	-29.088	130.741	
197.00	-31.480	122.333	
198.00	-34.390	111.600	
199.00	-37.872	94.826	
200.00	-41.213	68.903	
201.00	-42.948	36.278	
202.00	-42.838	10.517	
203.00	-42.459	-3.730	
204.00	-42.457	-9.810	
205.00	-42.780	-10.802	
206.00	-43.301	-6.518	
207.00	-43.753	-0.248	
208.00	-43.843	6.020	
209.00	-43.971	10.472	
210.00	-44.297	11.905	
211.00	-45.162	10.911	
212.00	-46.438	7.376	
213.00	-48.733	-0.149	
214.00	-51.296	-12.399	
215.00	-54.518	-32.940	
216.00	-58.098	-66.017	
217.00	-58.687	-108.450	
218.00	-57.548	-133.804	
219.00	-56.840	-140.000	
220.00	-57.347	-142.410	
221.00	-57.990	-135.925	
222.00	-58.250	-117.492	
223.00	-56.579	-98.913	
224.00	-54.908	-92.988	
225.00	-52.865	-90.556	
226.00	-51.355	-91.565	
227.00	-50.181	-93.898	
228.00	-49.593	-100.094	
229.00	-48.931	-106.205	
230.00	-48.227	-114.791	
231.00	-47.596	-122.212	
232.00	-46.664	-131.021	
233.00	-46.215	-139.059	
234.00	-45.444	-148.051	
235.00	-44.972	-157.247	
236.00	-44.570	-165.575	
237.00	-44.455	-174.644	
238.00	-44.667	175.769	
239.00	-44.999	164.499	
240.00	-45.536	151.821	
241.00	-46.636	137.761	
242.00	-47.934	122.058	
243.00	-49.313	101.122	
244.00	-50.342	78.116	
245.00	-50.906	53.206	
246.00	-51.548	28.362	
247.00	-51.553	7.809	
248.00	-52.012	-13.732	
249.00	-52.549	-33.601	
250.00	-53.406	-54.128	
251.00	-54.482	-75.370	
252.00	-56.133	-102.200	
253.00	-57.520	-131.178	
254.00	-58.247	-167.426	
255.00	-57.860	156.140	
256.00	-56.525	126.040	
257.00	-55.129	100.951	
258.00	-54.271	79.433	
259.00	-53.180	61.246	
260.00	-52.638	43.357	
261.00	-52.479	26.064	
262.00	-52.547	10.104	
263.00	-52.885	-8.437	
264.00	-53.718	-24.190	
265.00	-53.959	-46.361	
266.00	-54.070	-68.415	
267.00	-54.879	-89.947	
268.00	-55.366	-108.839	
269.00	-54.649	-130.606	
270.00	-54.636	-151.239	
271.00	-54.981	-166.973	
272.00	-55.252	175.674	
273.00	-56.474	162.670	
274.00	-57.477	143.982	
275.00	-59.357	125.024	
276.00	-61.263	104.369	
277.00	-63.808	65.338	
278.00	-65.353	17.981	
279.00	-62.386	-27.309	
280.00	-60.376	-45.729	
281.00	-57.850	-70.116	
282.00	-57.001	-80.679	
283.00	-55.462	-95.334	
284.00	-55.166	-110.596	
285.00	-55.543	-121.373	
286.00	-55.816	-132.957	
287.00	-57.188	-153.669	
288.00	-57.939	-163.699	
289.00	-59.466	177.681	
290.00	-61.649	167.108	
291.00	-64.441	150.096	
292.00	-64.228	129.773	
293.00	-68.104	129.559	
294.00	-70.549	152.888	
295.00	-73.010	134.314	
296.00	-73.251	139.156	
297.00	-71.721	178.835	
298.00	-70.103	167.841	
299.00	-70.372	164.501	
300.00	-64.454	167.368	
301.00	-67.056	154.973	
302.00	-65.907	132.110	
303.00	-66.895	127.421	
304.00	-67.219	130.129	
305.00	-63.163	125.562	
306.00	-63.239	126.919	
307.00	-62.035	119.593	
308.00	-60.354	120.478	
309.00	-59.757	114.045	
310.00	-57.810	100.813	
311.00	-57.499	94.424	
312.00	-57.229	84.276	
313.00	-58.135	72.893	
314.00	-57.871	57.026	
315.00	-59.429	40.028	
316.00	-60.284	18.554	
317.00	-61.118	-7.456	
318.00	-61.647	-36.739	
319.00	-61.507	-67.041	
320.00	-61.042	-89.969	
321.00	-59.904	-120.356	
322.00	-58.988	-143.619	
323.00	-57.535	-161.113	
324.00	-57.514	173.088	
325.00	-56.460	155.840	
326.00	-55.735	137.856	
327.00	-55.717	124.334	
328.00	-56.482	108.586	
329.00	-56.647	100.670	
330.00	-58.841	85.243	
331.00	-60.201	79.650	
332.00	-64.325	73.045	
333.00	-70.084	75.498	
334.00	-74.780	92.772	
335.00	-71.421	139.499	
336.00	-67.533	154.140	
337.00	-64.030	160.686	
338.00	-61.636	147.066	
339.00	-59.556	130.984	
340.00	-59.158	121.968	
341.00	-58.412	113.125	
342.00	-56.793	98.015	
343.00	-57.592	88.354	
344.00	-57.540	83.549	
345.00	-57.666	69.630	
346.00	-59.284	61.830	
347.00	-60.664	45.894	
348.00	-61.896	24.298	
349.00	-61.842	13.799	
350.00	-64.354	-16.144	
351.00	-64.531	-37.798	
352.00	-64.743	-42.527	
353.00	-64.001	-57.573	
354.00	-63.963	-75.479	
355.00	-63.609	-78.309	
356.00	-63.728	-85.753	
357.00	-62.710	-94.998	
358.00	-62.637	-104.015	
359.00	-64.285	-107.733	
Frequency	2170.00	MHz	
Channel	test		
Scan Axis name	Azimuth  [deg]		
Scan Axis	Amplitude	Phase	
			
0.00	-69.294	-96.580	
1.00	-68.467	-117.579	
2.00	-71.583	-20.530	
3.00	-70.032	-71.031	
4.00	-73.381	-45.590	
5.00	-69.443	47.206	
6.00	-70.849	67.889	
7.00	-64.194	94.210	
8.00	-63.719	115.795	
9.00	-63.806	93.745	
10.00	-62.022	111.436	
11.00	-61.247	93.618	
12.00	-61.646	82.183	
13.00	-61.306	79.595	
14.00	-61.009	57.841	
15.00	-62.759	41.494	
16.00	-62.611	27.464	
17.00	-61.966	25.839	
18.00	-61.253	21.086	
19.00	-63.534	17.254	
20.00	-63.073	27.126	
21.00	-62.850	15.646	
22.00	-68.329	-19.027	
23.00	-68.838	8.997	
24.00	-75.731	27.548	
25.00	-74.333	77.769	
26.00	-73.423	-159.928	
27.00	-73.090	-171.787	
28.00	-71.897	-146.341	
29.00	-72.976	-117.456	
30.00	-77.564	-86.929	
31.00	-78.106	-141.578	
32.00	-75.624	103.368	
33.00	-69.730	121.948	
34.00	-68.962	138.750	
35.00	-66.015	159.118	
36.00	-65.651	174.017	
37.00	-63.351	-166.897	
38.00	-65.415	-178.978	
39.00	-66.855	159.763	
40.00	-69.702	151.555	
41.00	-64.223	139.274	
42.00	-65.178	124.548	
43.00	-61.585	135.583	
44.00	-64.032	149.565	
45.00	-61.846	143.728	
46.00	-63.837	146.723	
47.00	-76.007	139.960	
48.00	-67.400	-160.728	
49.00	-63.846	-135.820	
50.00	-64.831	-125.621	
51.00	-64.291	-89.670	
52.00	-66.134	-83.847	
53.00	-62.602	-85.484	
54.00	-64.134	-66.274	
55.00	-63.591	-56.260	
56.00	-66.380	-30.934	
57.00	-67.748	30.902	
58.00	-66.737	52.138	
59.00	-64.106	108.983	
60.00	-60.965	122.445	
61.00	-60.882	144.473	
62.00	-60.394	158.429	
63.00	-60.244	-178.205	
64.00	-63.260	-148.794	
65.00	-63.962	-130.430	
66.00	-66.547	-79.953	
67.00	-64.646	-40.551	
68.00	-63.701	-3.003	
69.00	-60.804	24.988	
70.00	-58.680	46.666	
71.00	-58.331	64.345	
72.00	-57.532	73.957	
73.00	-57.699	89.450	
74.00	-59.685	99.356	
75.00	-61.999	110.407	
76.00	-66.422	110.248	
77.00	-76.557	41.816	
78.00	-68.038	6.480	
79.00	-63.728	-3.995	
80.00	-61.071	5.343	
81.00	-60.234	9.797	
82.00	-58.501	28.644	
83.00	-60.077	37.259	
84.00	-58.571	65.025	
85.00	-59.974	76.948	
86.00	-59.177	101.496	
87.00	-60.934	120.694	
88.00	-60.465	153.063	
89.00	-61.713	175.895	
90.00	-62.350	-165.865	
91.00	-61.247	-132.206	
92.00	-61.238	-95.423	
93.00	-59.006	-73.817	
94.00	-58.131	-48.314	
95.00	-56.828	-27.038	
96.00	-56.231	-4.639	
97.00	-55.670	14.300	
98.00	-54.890	29.529	
99.00	-54.700	46.063	
100.00	-55.483	64.111	
101.00	-55.386	86.195	
102.00	-56.920	96.511	
103.00	-57.775	120.894	
104.00	-59.347	145.140	
105.00	-62.615	167.634	
106.00	-63.647	-164.414	
107.00	-65.022	-146.529	
108.00	-67.803	-102.052	
109.00	-68.270	-57.209	
110.00	-67.912	-20.947	
111.00	-68.914	20.433	
112.00	-68.879	48.444	
113.00	-69.577	86.954	
114.00	-66.722	147.052	
115.00	-63.677	173.162	
116.00	-60.859	-163.048	
117.00	-59.036	-152.356	
118.00	-58.388	-141.604	
119.00	-59.024	-133.090	
120.00	-60.069	-128.883	
121.00	-61.846	-136.597	
122.00	-62.126	-165.444	
123.00	-58.619	-177.990	
124.00	-55.799	-173.997	
125.00	-53.601	-172.923	
126.00	-51.977	-159.673	
127.00	-50.360	-150.631	
128.00	-49.835	-135.599	
129.00	-49.035	-123.765	
130.00	-49.355	-108.427	
131.00	-49.758	-96.682	
132.00	-50.710	-80.691	
133.00	-52.166	-65.700	
134.00	-55.334	-49.540	
135.00	-59.171	-29.599	
136.00	-65.399	-20.136	
137.00	-74.601	-90.853	
138.00	-62.663	-133.732	
139.00	-56.783	-120.447	
140.00	-53.939	-99.394	
141.00	-51.859	-80.464	
142.00	-50.041	-58.739	
143.00	-48.742	-36.590	
144.00	-47.293	-16.135	
145.00	-46.444	3.266	
146.00	-45.875	20.114	
147.00	-45.337	38.119	
148.00	-45.552	52.755	
149.00	-46.036	72.011	
150.00	-47.067	88.206	
151.00	-49.317	111.162	
152.00	-51.937	147.473	
153.00	-53.728	-173.964	
154.00	-51.340	-126.330	
155.00	-49.451	-105.581	
156.00	-47.850	-88.897	
157.00	-47.096	-77.470	
158.00	-47.276	-68.819	
159.00	-48.525	-62.726	
160.00	-50.475	-62.837	
161.00	-52.764	-70.105	
162.00	-55.096	-92.028	
163.00	-54.692	-118.363	
164.00	-53.475	-132.935	
165.00	-52.775	-134.971	
166.00	-53.274	-130.129	
167.00	-57.078	-116.761	
168.00	-64.557	-65.486	
169.00	-57.520	24.599	
170.00	-50.950	39.358	
171.00	-47.740	45.718	
172.00	-46.070	50.870	
173.00	-45.664	52.441	
174.00	-46.551	54.785	
175.00	-48.820	55.135	
176.00	-54.602	54.165	
177.00	-71.614	-8.468	
178.00	-56.076	-110.954	
179.00	-52.118	-119.092	
180.00	-52.108	-127.464	
181.00	-56.861	-168.274	
182.00	-49.934	108.276	
183.00	-42.224	90.399	
184.00	-37.061	84.291	
185.00	-33.447	81.125	
186.00	-30.832	79.138	
187.00	-28.865	77.396	
188.00	-27.569	75.684	
189.00	-26.741	73.918	
190.00	-26.401	72.162	
191.00	-26.538	70.447	
192.00	-27.164	68.593	
193.00	-28.312	67.026	
194.00	-30.074	65.505	
195.00	-32.655	64.700	
196.00	-36.355	65.652	
197.00	-42.212	72.402	
198.00	-51.445	120.975	
199.00	-46.371	-164.027	
200.00	-42.272	-153.587	
201.00	-40.762	-151.989	
202.00	-40.703	-152.091	
203.00	-41.809	-151.362	
204.00	-43.735	-147.796	
205.00	-46.565	-137.745	
206.00	-48.864	-114.510	
207.00	-49.067	-85.798	
208.00	-47.636	-73.107	
209.00	-46.565	-67.620	
210.00	-46.480	-68.530	
211.00	-47.141	-70.849	
212.00	-48.454	-74.632	
213.00	-50.642	-72.867	
214.00	-53.879	-66.515	
215.00	-56.368	-47.681	
216.00	-57.175	-23.028	
217.00	-56.110	-9.015	
218.00	-55.984	-4.457	
219.00	-57.603	-2.971	
220.00	-62.336	-8.170	
221.00	-74.758	-170.478	
222.00	-58.468	163.732	
223.00	-52.607	157.395	
224.00	-49.298	150.966	
225.00	-47.156	144.942	
226.00	-45.976	137.501	
227.00	-45.307	129.561	
228.00	-45.217	121.995	
229.00	-45.538	115.096	
230.00	-46.507	109.474	
231.00	-47.200	104.823	
232.00	-49.277	99.398	
233.00	-50.954	101.927	
234.00	-53.102	105.407	
235.00	-55.001	116.984	
236.00	-54.929	128.166	
237.00	-54.559	138.616	
238.00	-53.719	141.786	
239.00	-52.840	137.015	
240.00	-52.079	129.916	
241.00	-51.511	122.605	
242.00	-51.039	113.036	
243.00	-50.582	102.776	
244.00	-50.012	92.280	
245.00	-49.889	81.533	
246.00	-48.772	70.747	
247.00	-48.821	63.418	
248.00	-48.860	52.025	
249.00	-49.105	42.403	
250.00	-49.306	30.767	
251.00	-49.657	17.304	
252.00	-50.166	3.953	
253.00	-51.074	-9.964	
254.00	-51.979	-25.813	
255.00	-52.098	-40.570	
256.00	-53.332	-61.578	
257.00	-53.796	-79.886	
258.00	-55.072	-98.525	
259.00	-55.501	-119.571	
260.00	-56.714	-141.817	
261.00	-57.229	-160.023	
262.00	-58.791	174.115	
263.00	-59.419	150.729	
264.00	-59.672	122.242	
265.00	-60.022	97.367	
266.00	-59.554	72.550	
267.00	-58.817	50.075	
268.00	-58.637	29.842	
269.00	-58.600	14.511	
270.00	-58.667	-5.978	
271.00	-58.241	-21.984	
272.00	-59.252	-40.482	
273.00	-60.473	-61.012	
274.00	-60.562	-74.797	
275.00	-61.605	-96.149	
276.00	-64.741	-117.297	
277.00	-66.609	-143.324	
278.00	-67.374	172.499	
279.00	-66.566	132.894	
280.00	-63.697	94.893	
281.00	-60.708	83.047	
282.00	-59.152	66.978	
283.00	-57.672	55.464	
284.00	-57.682	48.016	
285.00	-56.953	38.201	
286.00	-57.119	26.432	
287.00	-57.192	7.885	
288.00	-57.572	-1.436	
289.00	-60.614	-25.713	
290.00	-59.795	-46.066	
291.00	-62.034	-55.295	
292.00	-64.382	-78.198	
293.00	-64.396	-93.795	
294.00	-66.909	-83.895	
295.00	-71.612	-151.030	
296.00	-77.442	173.262	
297.00	-72.284	97.934	
298.00	-67.852	78.478	
299.00	-63.443	52.840	
300.00	-64.214	43.580	
301.00	-63.358	31.187	
302.00	-61.753	-0.677	
303.00	-62.766	-12.577	
304.00	-63.053	-29.889	
305.00	-63.171	-58.102	
306.00	-63.144	-77.789	
307.00	-60.621	-79.793	
308.00	-60.544	-109.842	
309.00	-61.214	-118.134	
310.00	-60.189	-134.097	
311.00	-58.830	-151.929	
312.00	-59.075	-162.754	
313.00	-57.731	-176.995	
314.00	-55.371	168.613	
315.00	-56.089	146.643	
316.00	-56.882	140.085	
317.00	-56.147	132.507	
318.00	-56.370	115.047	
319.00	-57.453	95.710	
320.00	-59.451	81.762	
321.00	-60.106	60.807	
322.00	-64.107	41.862	
323.00	-67.189	22.179	
324.00	-69.418	-47.095	
325.00	-72.487	-112.668	
326.00	-63.493	-168.251	
327.00	-63.640	-171.772	
328.00	-61.545	170.669	
329.00	-62.611	151.677	
330.00	-62.701	125.346	
331.00	-67.349	107.735	
332.00	-68.903	82.992	
333.00	-70.568	-6.273	
334.00	-66.440	-36.658	
335.00	-63.401	-68.086	
336.00	-62.891	-87.112	
337.00	-61.733	-112.611	
338.00	-61.267	-118.631	
339.00	-62.628	-139.959	
340.00	-66.767	-177.301	
341.00	-68.466	175.679	
342.00	-69.214	146.452	
343.00	-73.503	83.581	
344.00	-73.026	32.916	
345.00	-81.732	34.487	
346.00	-73.049	-38.647	
347.00	-71.147	-12.472	
348.00	-70.021	-5.829	
349.00	-71.554	-15.274	
350.00	-72.572	-40.060	
351.00	-66.676	-53.073	
352.00	-68.557	-56.236	
353.00	-69.154	-71.672	
354.00	-64.934	-101.422	
355.00	-66.277	-88.192	
356.00	-61.206	-123.457	
357.00	-64.749	-105.116	
358.00	-67.330	-132.422	
359.00	-64.930	-90.991	
Frequency	2300.00	MHz	
Channel	test		
Scan Axis name	Azimuth  [deg]		
Scan Axis	Amplitude	Phase	
			
0.00	-64.782	132.201	
1.00	-65.206	93.924	
2.00	-69.307	122.323	
3.00	-70.558	98.016	
4.00	-74.189	121.529	
5.00	-76.983	161.209	
6.00	-74.377	-155.244	
7.00	-68.577	-137.930	
8.00	-67.052	-128.900	
9.00	-65.004	-123.931	
10.00	-67.195	-132.708	
11.00	-67.618	-126.001	
12.00	-69.210	-140.760	
13.00	-72.492	-134.237	
14.00	-71.964	-159.853	
15.00	-72.471	161.188	
16.00	-72.471	152.090	
17.00	-70.156	136.456	
18.00	-69.125	119.281	
19.00	-71.623	104.641	
20.00	-67.082	105.789	
21.00	-69.358	99.598	
22.00	-69.967	52.922	
23.00	-71.484	3.962	
24.00	-67.210	-34.121	
25.00	-64.036	-43.118	
26.00	-61.340	-48.914	
27.00	-59.452	-63.943	
28.00	-59.303	-75.858	
29.00	-57.317	-72.165	
30.00	-56.198	-77.024	
31.00	-56.463	-78.514	
32.00	-57.354	-79.474	
33.00	-57.476	-71.809	
34.00	-59.198	-73.721	
35.00	-61.684	-68.982	
36.00	-63.451	-59.314	
37.00	-66.532	-58.647	
38.00	-67.470	-50.975	
39.00	-66.952	-20.370	
40.00	-66.661	25.115	
41.00	-66.080	43.205	
42.00	-66.057	44.241	
43.00	-64.890	57.778	
44.00	-64.843	50.722	
45.00	-64.298	43.695	
46.00	-63.042	39.135	
47.00	-60.603	50.457	
48.00	-60.202	47.881	
49.00	-60.662	65.098	
50.00	-61.529	73.325	
51.00	-61.814	87.104	
52.00	-63.034	118.840	
53.00	-63.611	148.354	
54.00	-65.753	-175.190	
55.00	-63.704	-150.796	
56.00	-64.507	-126.610	
57.00	-62.949	-106.199	
58.00	-64.062	-88.931	
59.00	-63.757	-87.188	
60.00	-64.944	-91.231	
61.00	-63.734	-86.560	
62.00	-63.602	-87.362	
63.00	-64.475	-76.486	
64.00	-66.855	-97.803	
65.00	-74.941	-95.502	
66.00	-71.304	-173.527	
67.00	-65.712	150.626	
68.00	-63.580	151.182	
69.00	-61.774	148.944	
70.00	-61.327	168.085	
71.00	-60.660	-179.315	
72.00	-61.208	-170.542	
73.00	-63.229	-161.719	
74.00	-70.964	-144.502	
75.00	-78.099	-94.377	
76.00	-70.284	-12.685	
77.00	-68.933	70.526	
78.00	-68.358	68.951	
79.00	-65.489	101.773	
80.00	-65.319	145.800	
81.00	-68.787	-175.615	
82.00	-62.638	-146.805	
83.00	-60.774	-118.450	
84.00	-59.100	-83.728	
85.00	-57.236	-63.757	
86.00	-55.017	-48.008	
87.00	-55.615	-33.409	
88.00	-54.510	-15.799	
89.00	-54.866	2.683	
90.00	-55.659	24.057	
91.00	-55.627	48.251	
92.00	-57.937	26.787	
93.00	-64.704	70.843	
94.00	-65.448	117.655	
95.00	-56.185	144.526	
96.00	-67.229	-165.392	
97.00	-62.356	147.120	
98.00	-57.931	-150.253	
99.00	-59.654	-106.611	
100.00	-61.918	-75.713	
101.00	-69.341	-129.337	
102.00	-69.809	-94.426	
103.00	-65.939	-149.146	
104.00	-60.880	-153.646	
105.00	-57.951	-149.257	
106.00	-56.046	-139.519	
107.00	-53.829	-128.268	
108.00	-53.638	-121.191	
109.00	-52.545	-106.640	
110.00	-52.780	-93.566	
111.00	-53.656	-78.389	
112.00	-54.471	-62.224	
113.00	-55.533	-43.427	
114.00	-57.583	-19.964	
115.00	-58.992	1.615	
116.00	-60.683	31.694	
117.00	-61.344	40.601	
118.00	-62.870	52.491	
119.00	-64.477	30.226	
120.00	-62.770	0.601	
121.00	-59.645	-4.963	
122.00	-55.272	-7.436	
123.00	-53.447	-1.230	
124.00	-52.178	7.454	
125.00	-51.827	10.529	
126.00	-52.902	18.887	
127.00	-54.080	27.452	
128.00	-57.379	20.595	
129.00	-61.911	4.563	
130.00	-62.289	-46.532	
131.00	-58.617	-59.047	
132.00	-55.917	-55.932	
133.00	-53.475	-42.580	
134.00	-52.884	-27.350	
135.00	-52.197	-7.638	
136.00	-52.793	7.024	
137.00	-52.595	23.984	
138.00	-54.078	34.930	
139.00	-58.450	43.016	
140.00	-77.236	13.426	
141.00	-60.182	-98.890	
142.00	-52.684	-92.122	
143.00	-49.748	-84.827	
144.00	-47.967	-74.642	
145.00	-47.480	-65.012	
146.00	-47.555	-53.742	
147.00	-48.798	-41.053	
148.00	-51.366	-29.671	
149.00	-56.275	-7.790	
150.00	-62.065	64.456	
151.00	-55.670	126.998	
152.00	-51.468	145.437	
153.00	-49.420	149.684	
154.00	-48.059	152.805	
155.00	-48.528	151.564	
156.00	-48.913	147.012	
157.00	-50.291	136.387	
158.00	-51.518	124.136	
159.00	-52.924	107.788	
160.00	-54.259	90.148	
161.00	-56.268	72.133	
162.00	-58.473	44.133	
163.00	-57.342	-8.125	
164.00	-53.943	-39.955	
165.00	-50.856	-55.914	
166.00	-49.065	-63.966	
167.00	-48.577	-71.136	
168.00	-49.476	-82.967	
169.00	-51.225	-101.711	
170.00	-52.722	-138.339	
171.00	-51.054	-179.361	
172.00	-48.017	157.590	
173.00	-46.088	144.435	
174.00	-45.249	133.296	
175.00	-45.354	120.492	
176.00	-46.097	103.994	
177.00	-47.165	79.510	
178.00	-47.314	49.102	
179.00	-46.762	22.459	
180.00	-46.257	0.362	
181.00	-47.090	-23.543	
182.00	-48.855	-62.148	
183.00	-46.777	-120.174	
184.00	-41.380	-153.696	
185.00	-37.088	-169.489	
186.00	-33.906	-179.539	
187.00	-31.626	173.066	
188.00	-30.048	166.743	
189.00	-29.047	161.090	
190.00	-28.599	156.106	
191.00	-28.673	151.321	
192.00	-29.256	146.464	
193.00	-30.330	142.100	
194.00	-32.095	137.903	
195.00	-34.558	134.283	
196.00	-37.920	132.016	
197.00	-42.926	132.605	
198.00	-50.469	148.236	
199.00	-54.524	-135.054	
200.00	-50.691	-106.121	
201.00	-49.500	-103.535	
202.00	-51.405	-107.357	
203.00	-57.444	-106.772	
204.00	-66.807	13.348	
205.00	-54.396	38.102	
206.00	-50.085	30.976	
207.00	-48.384	22.510	
208.00	-48.396	12.805	
209.00	-49.201	2.144	
210.00	-51.904	-13.537	
211.00	-56.449	-34.900	
212.00	-60.747	-87.614	
213.00	-58.605	-156.227	
214.00	-55.558	-178.501	
215.00	-54.543	170.463	
216.00	-55.384	162.065	
217.00	-58.145	167.709	
218.00	-60.176	-157.588	
219.00	-57.177	-119.970	
220.00	-53.062	-117.790	
221.00	-50.228	-123.647	
222.00	-48.752	-129.212	
223.00	-47.963	-140.437	
224.00	-47.983	-154.218	
225.00	-48.409	-166.077	
226.00	-49.374	178.597	
227.00	-51.059	162.000	
228.00	-53.489	150.384	
229.00	-56.299	136.249	
230.00	-62.775	138.962	
231.00	-66.541	-167.414	
232.00	-59.672	-136.954	
233.00	-56.018	-139.103	
234.00	-53.355	-153.215	
235.00	-52.770	-166.645	
236.00	-52.690	-178.210	
237.00	-52.696	162.292	
238.00	-53.933	144.162	
239.00	-55.088	121.527	
240.00	-57.962	90.924	
241.00	-59.817	60.004	
242.00	-59.994	15.632	
243.00	-58.751	-18.039	
244.00	-59.125	-50.480	
245.00	-57.442	-75.950	
246.00	-57.253	-94.885	
247.00	-57.818	-122.625	
248.00	-57.952	-144.006	
249.00	-58.572	-166.745	
250.00	-58.757	166.957	
251.00	-58.686	144.396	
252.00	-59.486	121.560	
253.00	-60.405	99.838	
254.00	-61.046	77.082	
255.00	-63.349	60.334	
256.00	-63.667	30.245	
257.00	-65.053	-4.027	
258.00	-69.012	-29.283	
259.00	-70.431	-54.901	
260.00	-69.788	-77.599	
261.00	-69.148	-111.334	
262.00	-68.703	-141.583	
263.00	-71.864	-153.420	
264.00	-72.348	166.003	
265.00	-73.132	132.431	
266.00	-80.317	87.462	
267.00	-78.184	67.566	
268.00	-72.349	-1.617	
269.00	-69.385	-5.618	
270.00	-72.043	-19.485	
271.00	-69.130	-22.997	
272.00	-70.992	-48.051	
273.00	-71.216	-35.238	
274.00	-75.240	-72.561	
275.00	-74.910	-87.077	
276.00	-74.573	-109.732	
277.00	-76.076	-98.824	
278.00	-75.217	-121.458	
279.00	-71.999	-133.772	
280.00	-68.192	-118.107	
281.00	-70.112	-128.218	
282.00	-67.396	-119.630	
283.00	-68.739	-120.545	
284.00	-67.226	-148.312	
285.00	-68.914	-143.199	
286.00	-73.076	-168.422	
287.00	-69.915	-148.327	
288.00	-74.114	-157.240	
289.00	-75.209	-139.027	
290.00	-71.113	-153.538	
291.00	-75.219	-117.647	
292.00	-74.213	-141.066	
293.00	-78.834	-64.477	
294.00	-78.480	27.245	
295.00	-70.138	-0.329	
296.00	-68.219	-8.628	
297.00	-65.497	9.327	
298.00	-61.269	-2.459	
299.00	-60.261	-8.751	
300.00	-59.726	-30.258	
301.00	-58.378	-36.261	
302.00	-58.962	-43.148	
303.00	-58.845	-55.159	
304.00	-60.197	-70.339	
305.00	-61.823	-77.482	
306.00	-63.842	-96.551	
307.00	-68.702	-90.028	
308.00	-74.850	-115.525	
309.00	-86.919	-166.666	
310.00	-74.974	17.628	
311.00	-70.848	28.217	
312.00	-66.524	24.943	
313.00	-66.653	8.152	
314.00	-66.244	3.510	
315.00	-68.280	7.566	
316.00	-68.500	-11.174	
317.00	-71.514	-25.946	
318.00	-77.367	-68.148	
319.00	-80.498	-178.531	
320.00	-71.484	167.682	
321.00	-68.254	146.905	
322.00	-67.887	129.219	
323.00	-67.730	113.384	
324.00	-68.742	83.695	
325.00	-70.941	51.899	
326.00	-71.510	-8.532	
327.00	-68.111	-48.490	
328.00	-64.607	-75.868	
329.00	-62.745	-89.930	
330.00	-61.641	-106.984	
331.00	-61.768	-118.651	
332.00	-61.063	-129.744	
333.00	-62.201	-147.654	
334.00	-61.888	-162.573	
335.00	-64.564	163.531	
336.00	-64.340	149.967	
337.00	-64.420	108.663	
338.00	-62.636	83.557	
339.00	-63.032	66.539	
340.00	-61.882	60.619	
341.00	-62.441	42.487	
342.00	-65.997	33.151	
343.00	-69.261	-3.066	
344.00	-75.326	-65.160	
345.00	-70.051	-146.214	
346.00	-69.737	-124.969	
347.00	-64.131	-134.712	
348.00	-62.352	-146.651	
349.00	-60.313	-147.124	
350.00	-60.327	-157.055	
351.00	-59.088	-157.958	
352.00	-59.553	-158.115	
353.00	-60.073	-164.654	
354.00	-61.825	-174.624	
355.00	-61.995	174.375	
356.00	-64.197	171.794	
357.00	-63.947	151.408	
358.00	-66.738	130.692	
359.00	-65.153	123.746	
Frequency	2350.00	MHz	
Channel	test		
Scan Axis name	Azimuth  [deg]		
Scan Axis	Amplitude	Phase	
			
0.00	-65.595	-102.348	
1.00	-68.743	-109.106	
2.00	-72.305	-103.571	
3.00	-78.192	-36.043	
4.00	-70.837	11.940	
5.00	-66.176	16.032	
6.00	-63.503	21.037	
7.00	-61.208	16.764	
8.00	-59.589	14.965	
9.00	-58.432	15.846	
10.00	-57.951	15.512	
11.00	-57.984	17.245	
12.00	-58.750	16.811	
13.00	-60.538	14.544	
14.00	-63.534	3.347	
15.00	-66.291	-22.004	
16.00	-65.905	-53.840	
17.00	-63.844	-75.137	
18.00	-62.346	-89.123	
19.00	-61.626	-95.812	
20.00	-61.179	-97.165	
21.00	-61.412	-97.045	
22.00	-62.912	-98.541	
23.00	-66.484	-93.983	
24.00	-73.644	-86.511	
25.00	-84.128	101.009	
26.00	-72.592	98.531	
27.00	-68.516	99.866	
28.00	-66.854	88.703	
29.00	-64.375	80.476	
30.00	-63.338	69.852	
31.00	-61.975	69.044	
32.00	-60.271	71.014	
33.00	-60.306	70.937	
34.00	-60.656	75.123	
35.00	-61.311	72.767	
36.00	-62.366	76.751	
37.00	-63.197	81.087	
38.00	-64.683	88.867	
39.00	-67.017	109.048	
40.00	-69.295	144.891	
41.00	-67.931	-167.740	
42.00	-65.494	-134.766	
43.00	-63.125	-118.167	
44.00	-63.386	-102.464	
45.00	-64.764	-94.360	
46.00	-65.119	-96.447	
47.00	-66.134	-118.961	
48.00	-64.614	-135.088	
49.00	-62.660	-135.136	
50.00	-61.445	-127.662	
51.00	-61.418	-112.282	
52.00	-62.473	-102.759	
53.00	-65.175	-90.948	
54.00	-69.182	-90.580	
55.00	-72.523	-117.111	
56.00	-69.242	-163.265	
57.00	-65.699	-159.588	
58.00	-63.697	-145.312	
59.00	-64.269	-128.788	
60.00	-65.619	-104.045	
61.00	-68.548	-54.437	
62.00	-67.134	-1.786	
63.00	-66.148	27.746	
64.00	-65.177	61.798	
65.00	-65.885	95.026	
66.00	-66.764	140.588	
67.00	-64.822	-156.476	
68.00	-60.590	-121.404	
69.00	-58.126	-98.601	
70.00	-56.837	-81.637	
71.00	-56.175	-62.281	
72.00	-56.770	-49.455	
73.00	-58.729	-30.324	
74.00	-62.201	-1.954	
75.00	-66.260	43.366	
76.00	-67.561	123.975	
77.00	-62.441	167.016	
78.00	-59.558	-161.521	
79.00	-57.512	-139.216	
80.00	-56.519	-118.448	
81.00	-55.850	-95.673	
82.00	-55.681	-70.756	
83.00	-55.945	-45.846	
84.00	-56.086	-17.147	
85.00	-56.005	13.138	
86.00	-55.879	41.068	
87.00	-55.234	60.353	
88.00	-53.081	86.685	
89.00	-53.173	112.881	
90.00	-53.738	142.807	
91.00	-55.313	151.075	
92.00	-54.872	-147.756	
93.00	-54.240	-155.398	
94.00	-53.409	-114.414	
95.00	-52.536	-104.548	
96.00	-55.042	-74.453	
97.00	-56.766	-50.213	
98.00	-56.949	-33.445	
99.00	-55.945	-11.214	
100.00	-58.618	7.278	
101.00	-58.440	27.392	
102.00	-62.369	50.668	
103.00	-69.528	53.829	
104.00	-73.823	-20.665	
105.00	-65.560	-65.234	
106.00	-61.139	-48.706	
107.00	-58.125	-34.995	
108.00	-56.904	-22.067	
109.00	-56.399	-5.835	
110.00	-56.632	9.785	
111.00	-57.165	32.049	
112.00	-58.052	55.242	
113.00	-58.787	85.493	
114.00	-58.707	112.935	
115.00	-58.971	135.837	
116.00	-58.978	155.862	
117.00	-59.671	165.696	
118.00	-61.448	167.878	
119.00	-63.387	151.399	
120.00	-61.946	119.044	
121.00	-58.762	106.046	
122.00	-55.601	104.911	
123.00	-53.875	106.808	
124.00	-53.199	112.638	
125.00	-53.486	116.297	
126.00	-55.086	120.046	
127.00	-58.063	117.677	
128.00	-62.671	95.437	
129.00	-62.368	50.704	
130.00	-58.980	30.562	
131.00	-56.495	33.656	
132.00	-55.889	44.452	
133.00	-56.474	66.196	
134.00	-56.818	94.570	
135.00	-55.926	125.230	
136.00	-55.942	152.558	
137.00	-55.387	171.175	
138.00	-56.229	-167.662	
139.00	-59.165	-133.319	
140.00	-60.966	-81.958	
141.00	-57.847	-19.732	
142.00	-54.287	6.571	
143.00	-51.919	26.876	
144.00	-50.691	43.817	
145.00	-50.176	60.376	
146.00	-50.157	75.647	
147.00	-51.096	91.465	
148.00	-52.921	108.655	
149.00	-56.352	131.267	
150.00	-60.495	-179.740	
151.00	-57.783	-122.243	
152.00	-54.186	-99.642	
153.00	-52.206	-91.264	
154.00	-51.356	-87.591	
155.00	-51.337	-89.446	
156.00	-51.517	-94.573	
157.00	-51.666	-99.782	
158.00	-51.426	-105.570	
159.00	-51.203	-111.132	
160.00	-51.707	-113.969	
161.00	-52.906	-116.647	
162.00	-56.028	-123.966	
163.00	-61.986	-149.445	
164.00	-62.862	126.113	
165.00	-56.842	98.930	
166.00	-54.562	91.319	
167.00	-55.107	88.495	
168.00	-58.514	83.421	
169.00	-73.811	12.257	
170.00	-56.723	-79.983	
171.00	-50.632	-83.426	
172.00	-47.235	-85.969	
173.00	-45.464	-88.108	
174.00	-44.768	-91.296	
175.00	-45.108	-96.953	
176.00	-46.477	-105.809	
177.00	-48.681	-121.416	
178.00	-50.924	-145.167	
179.00	-52.302	-170.990	
180.00	-53.697	176.232	
181.00	-57.540	-155.588	
182.00	-51.424	-87.903	
183.00	-43.637	-74.905	
184.00	-38.374	-74.033	
185.00	-34.674	-75.708	
186.00	-31.962	-78.580	
187.00	-29.965	-82.002	
188.00	-28.627	-85.889	
189.00	-27.823	-90.151	
190.00	-27.555	-94.663	
191.00	-27.764	-99.468	
192.00	-28.487	-104.793	
193.00	-29.713	-110.499	
194.00	-31.575	-117.110	
195.00	-34.144	-124.971	
196.00	-37.696	-135.046	
197.00	-42.786	-151.535	
198.00	-49.533	169.968	
199.00	-50.675	97.383	
200.00	-47.932	65.948	
201.00	-47.613	53.849	
202.00	-49.401	50.909	
203.00	-53.076	65.354	
204.00	-54.031	109.168	
205.00	-50.145	132.717	
206.00	-47.372	134.729	
207.00	-46.044	130.233	
208.00	-45.850	123.016	
209.00	-46.701	114.530	
210.00	-48.899	104.316	
211.00	-52.859	92.279	
212.00	-61.354	68.780	
213.00	-63.076	-69.131	
214.00	-54.989	-96.335	
215.00	-51.972	-108.523	
216.00	-51.229	-120.058	
217.00	-51.775	-129.852	
218.00	-53.902	-139.380	
219.00	-58.093	-145.103	
220.00	-68.791	-118.768	
221.00	-64.096	-22.266	
222.00	-57.042	-22.392	
223.00	-55.361	-31.472	
224.00	-54.954	-38.657	
225.00	-56.068	-47.527	
226.00	-60.124	-49.876	
227.00	-65.602	-26.223	
228.00	-61.824	37.564	
229.00	-56.266	41.140	
230.00	-53.067	33.019	
231.00	-51.045	21.359	
232.00	-49.834	6.379	
233.00	-49.210	-8.045	
234.00	-49.150	-24.040	
235.00	-49.677	-39.402	
236.00	-50.869	-56.373	
237.00	-52.981	-75.279	
238.00	-56.138	-98.703	
239.00	-60.430	-138.161	
240.00	-61.781	151.567	
241.00	-58.135	105.139	
242.00	-55.305	76.848	
243.00	-53.628	54.294	
244.00	-52.743	33.622	
245.00	-52.410	12.238	
246.00	-52.325	-9.749	
247.00	-52.427	-32.796	
248.00	-52.530	-56.049	
249.00	-52.626	-78.842	
250.00	-52.725	-100.304	
251.00	-53.068	-121.010	
252.00	-53.588	-140.781	
253.00	-54.358	-158.986	
254.00	-55.591	-178.228	
255.00	-57.335	163.317	
256.00	-59.364	139.277	
257.00	-61.757	111.717	
258.00	-63.900	79.164	
259.00	-64.505	43.619	
260.00	-64.372	10.226	
261.00	-64.243	-12.309	
262.00	-64.929	-34.532	
263.00	-65.854	-50.950	
264.00	-67.627	-56.938	
265.00	-71.017	-60.470	
266.00	-72.944	-38.162	
267.00	-71.734	-5.358	
268.00	-67.739	10.917	
269.00	-65.243	1.758	
270.00	-63.295	-5.338	
271.00	-62.538	-18.332	
272.00	-62.261	-34.710	
273.00	-61.687	-52.018	
274.00	-61.665	-72.504	
275.00	-61.498	-93.390	
276.00	-61.413	-113.310	
277.00	-61.136	-133.337	
278.00	-61.118	-154.204	
279.00	-60.940	-174.313	
280.00	-61.139	167.464	
281.00	-61.433	153.154	
282.00	-62.451	139.086	
283.00	-63.582	123.415	
284.00	-66.179	107.421	
285.00	-69.486	92.540	
286.00	-73.666	66.233	
287.00	-76.159	6.148	
288.00	-80.364	-21.604	
289.00	-79.409	-52.517	
290.00	-84.727	-59.022	
291.00	-84.113	75.295	
292.00	-77.948	76.729	
293.00	-73.753	77.051	
294.00	-69.636	57.078	
295.00	-74.114	47.789	
296.00	-80.421	15.713	
297.00	-87.863	160.797	
298.00	-76.728	-165.790	
299.00	-69.256	-172.214	
300.00	-66.947	179.039	
301.00	-64.961	166.322	
302.00	-63.751	153.084	
303.00	-62.760	145.938	
304.00	-62.509	134.286	
305.00	-62.942	118.216	
306.00	-63.838	106.267	
307.00	-65.129	90.176	
308.00	-66.371	73.595	
309.00	-68.642	57.454	
310.00	-70.322	39.790	
311.00	-72.407	20.640	
312.00	-72.924	6.657	
313.00	-74.913	3.458	
314.00	-77.542	27.256	
315.00	-76.426	40.003	
316.00	-73.498	47.047	
317.00	-69.778	42.211	
318.00	-68.065	32.767	
319.00	-66.652	16.960	
320.00	-65.280	4.351	
321.00	-64.130	-10.679	
322.00	-63.332	-22.790	
323.00	-63.054	-34.490	
324.00	-63.521	-43.002	
325.00	-64.311	-48.334	
326.00	-66.226	-54.809	
327.00	-69.559	-54.120	
328.00	-74.501	-45.752	
329.00	-78.670	8.678	
330.00	-72.564	46.146	
331.00	-69.636	46.137	
332.00	-67.684	40.860	
333.00	-67.632	31.775	
334.00	-67.893	30.295	
335.00	-69.313	22.463	
336.00	-72.642	27.811	
337.00	-79.407	33.720	
338.00	-85.118	127.779	
339.00	-78.809	-173.881	
340.00	-75.018	-154.506	
341.00	-72.231	-145.291	
342.00	-71.279	-140.452	
343.00	-69.943	-135.541	
344.00	-71.269	-127.876	
345.00	-70.670	-124.530	
346.00	-71.464	-111.520	
347.00	-69.059	-81.852	
348.00	-65.913	-68.950	
349.00	-62.854	-63.583	
350.00	-60.470	-60.753	
351.00	-58.941	-64.512	
352.00	-58.038	-69.143	
353.00	-57.255	-73.204	
354.00	-56.960	-78.202	
355.00	-57.159	-81.643	
356.00	-57.803	-83.147	
357.00	-59.295	-86.077	
358.00	-61.255	-88.532	
359.00	-63.259	-93.187	
Frequency	2400.00	MHz	
Channel	test		
Scan Axis name	Azimuth  [deg]		
Scan Axis	Amplitude	Phase	
			
0.00	-63.573	-158.936	
1.00	-62.230	-158.317	
2.00	-61.114	-154.143	
3.00	-60.570	-159.672	
4.00	-60.205	-163.223	
5.00	-60.385	-176.263	
6.00	-60.990	176.177	
7.00	-61.733	160.245	
8.00	-62.917	146.710	
9.00	-63.084	125.474	
10.00	-63.226	108.145	
11.00	-64.616	101.999	
12.00	-66.102	88.297	
13.00	-69.293	64.873	
14.00	-69.601	29.199	
15.00	-67.842	10.393	
16.00	-66.660	3.955	
17.00	-68.658	8.236	
18.00	-70.863	5.333	
19.00	-73.794	8.502	
20.00	-75.757	48.417	
21.00	-74.653	68.848	
22.00	-69.733	94.928	
23.00	-72.177	111.107	
24.00	-70.376	132.771	
25.00	-69.781	154.887	
26.00	-72.893	-140.571	
27.00	-70.560	-120.869	
28.00	-69.112	-93.136	
29.00	-69.137	-81.946	
30.00	-68.192	-74.559	
31.00	-69.935	-92.080	
32.00	-67.819	-88.172	
33.00	-71.155	-97.765	
34.00	-78.043	-94.059	
35.00	-80.604	144.530	
36.00	-69.173	114.442	
37.00	-65.784	126.839	
38.00	-64.401	137.668	
39.00	-66.063	151.129	
40.00	-70.866	172.223	
41.00	-83.082	-80.846	
42.00	-71.793	-10.891	
43.00	-69.286	15.951	
44.00	-67.672	19.610	
45.00	-70.433	44.165	
46.00	-83.062	15.316	
47.00	-75.407	-135.491	
48.00	-68.137	-94.812	
49.00	-66.676	-83.727	
50.00	-66.700	-79.145	
51.00	-67.798	-74.269	
52.00	-68.956	-94.506	
53.00	-66.607	-101.893	
54.00	-63.686	-97.918	
55.00	-61.757	-83.249	
56.00	-60.411	-65.054	
57.00	-60.276	-38.031	
58.00	-61.047	-19.707	
59.00	-61.976	13.311	
60.00	-62.045	59.704	
61.00	-62.125	101.166	
62.00	-61.992	144.111	
63.00	-60.049	-172.987	
64.00	-58.236	-138.350	
65.00	-56.498	-110.556	
66.00	-56.013	-83.391	
67.00	-55.606	-56.855	
68.00	-55.548	-26.611	
69.00	-56.548	6.556	
70.00	-56.464	43.000	
71.00	-55.771	75.854	
72.00	-55.166	108.770	
73.00	-54.418	134.174	
74.00	-54.060	160.390	
75.00	-54.957	-174.691	
76.00	-56.087	-146.343	
77.00	-56.985	-111.706	
78.00	-57.715	-75.340	
79.00	-57.713	-36.664	
80.00	-56.853	1.441	
81.00	-56.002	33.091	
82.00	-55.241	63.506	
83.00	-54.261	90.952	
84.00	-53.952	119.061	
85.00	-53.428	144.958	
86.00	-53.250	170.543	
87.00	-52.562	-159.167	
88.00	-52.464	-135.655	
89.00	-51.402	-106.863	
90.00	-51.526	-83.799	
91.00	-52.646	-60.128	
92.00	-52.207	-38.836	
93.00	-53.613	-10.807	
94.00	-49.793	12.790	
95.00	-52.421	46.661	
96.00	-51.373	63.572	
97.00	-50.798	93.953	
98.00	-51.324	110.816	
99.00	-51.385	136.052	
100.00	-51.653	159.818	
101.00	-52.624	-169.787	
102.00	-52.606	-141.826	
103.00	-53.240	-116.380	
104.00	-53.737	-92.561	
105.00	-54.236	-67.021	
106.00	-55.139	-41.755	
107.00	-56.152	-15.213	
108.00	-57.497	12.369	
109.00	-58.702	42.110	
110.00	-59.584	74.819	
111.00	-60.308	114.363	
112.00	-60.790	142.755	
113.00	-60.094	179.827	
114.00	-58.920	-154.111	
115.00	-58.801	-128.628	
116.00	-58.963	-102.755	
117.00	-58.652	-80.357	
118.00	-58.479	-61.554	
119.00	-58.445	-47.369	
120.00	-59.666	-38.676	
121.00	-60.744	-38.141	
122.00	-61.584	-50.116	
123.00	-62.788	-72.098	
124.00	-60.936	-96.767	
125.00	-59.554	-112.873	
126.00	-58.626	-125.260	
127.00	-57.950	-142.488	
128.00	-57.003	-155.432	
129.00	-55.734	-164.931	
130.00	-54.828	-172.333	
131.00	-54.767	-172.293	
132.00	-54.403	-163.584	
133.00	-55.450	-147.581	
134.00	-56.542	-123.163	
135.00	-56.847	-93.275	
136.00	-55.300	-65.893	
137.00	-53.962	-42.958	
138.00	-53.100	-34.916	
139.00	-53.326	-26.129	
140.00	-55.660	-14.562	
141.00	-59.168	-3.587	
142.00	-65.871	-5.075	
143.00	-76.801	-90.987	
144.00	-64.575	-119.780	
145.00	-59.484	-111.838	
146.00	-58.185	-100.374	
147.00	-57.295	-86.857	
148.00	-57.853	-72.350	
149.00	-58.493	-48.053	
150.00	-58.771	-21.008	
151.00	-57.578	2.466	
152.00	-56.139	15.512	
153.00	-55.206	18.694	
154.00	-54.765	16.796	
155.00	-54.037	16.183	
156.00	-53.591	13.663	
157.00	-53.085	16.137	
158.00	-52.777	21.326	
159.00	-52.786	27.819	
160.00	-54.324	36.725	
161.00	-57.338	51.423	
162.00	-63.219	89.852	
163.00	-59.824	172.509	
164.00	-53.835	-167.209	
165.00	-50.661	-160.050	
166.00	-49.344	-158.446	
167.00	-49.458	-158.321	
168.00	-50.945	-164.576	
169.00	-53.602	176.388	
170.00	-55.560	134.968	
171.00	-51.816	96.247	
172.00	-48.695	82.001	
173.00	-46.996	75.973	
174.00	-46.773	71.604	
175.00	-48.229	67.419	
176.00	-52.254	60.214	
177.00	-62.401	28.327	
178.00	-57.952	-85.874	
179.00	-51.695	-104.977	
180.00	-50.624	-114.343	
181.00	-54.478	-137.799	
182.00	-53.041	117.730	
183.00	-43.137	90.114	
184.00	-37.155	82.739	
185.00	-33.125	78.048	
186.00	-30.262	74.004	
187.00	-28.197	70.414	
188.00	-26.821	67.056	
189.00	-25.989	63.552	
190.00	-25.676	60.145	
191.00	-25.845	56.658	
192.00	-26.522	53.162	
193.00	-27.718	49.761	
194.00	-29.561	46.238	
195.00	-32.124	43.249	
196.00	-35.731	40.981	
197.00	-41.207	42.260	
198.00	-50.189	63.281	
199.00	-51.813	155.159	
200.00	-47.119	173.809	
201.00	-46.254	176.372	
202.00	-48.069	177.589	
203.00	-52.117	-173.829	
204.00	-57.212	-128.134	
205.00	-54.017	-81.098	
206.00	-50.694	-73.592	
207.00	-49.638	-76.671	
208.00	-50.078	-85.720	
209.00	-51.842	-100.526	
210.00	-55.069	-126.089	
211.00	-57.961	-172.383	
212.00	-57.273	132.824	
213.00	-53.475	96.332	
214.00	-52.728	79.483	
215.00	-52.106	62.826	
216.00	-52.625	47.871	
217.00	-54.394	33.541	
218.00	-57.732	23.986	
219.00	-63.622	14.932	
220.00	-82.426	109.546	
221.00	-63.698	137.981	
222.00	-57.898	133.667	
223.00	-56.499	129.310	
224.00	-56.015	120.363	
225.00	-57.315	117.603	
226.00	-59.452	121.196	
227.00	-61.803	138.117	
228.00	-61.054	163.489	
229.00	-59.311	165.117	
230.00	-59.388	165.981	
231.00	-59.098	153.870	
232.00	-60.019	137.549	
233.00	-61.190	106.024	
234.00	-62.194	75.592	
235.00	-61.452	39.179	
236.00	-61.064	6.989	
237.00	-60.705	-26.063	
238.00	-60.380	-54.264	
239.00	-60.515	-86.806	
240.00	-59.734	-123.302	
241.00	-59.023	-151.125	
242.00	-57.490	178.603	
243.00	-56.970	152.985	
244.00	-56.132	129.206	
245.00	-55.398	106.903	
246.00	-55.925	87.192	
247.00	-56.132	67.452	
248.00	-56.620	44.715	
249.00	-57.819	23.220	
250.00	-59.219	-0.403	
251.00	-60.718	-24.879	
252.00	-62.328	-47.978	
253.00	-65.636	-79.613	
254.00	-70.619	-122.231	
255.00	-72.429	178.636	
256.00	-68.732	122.550	
257.00	-64.439	95.354	
258.00	-61.824	72.162	
259.00	-60.933	48.665	
260.00	-60.276	32.558	
261.00	-60.331	13.267	
262.00	-60.988	-7.641	
263.00	-61.946	-21.305	
264.00	-62.921	-50.153	
265.00	-63.228	-84.470	
266.00	-63.124	-110.105	
267.00	-63.099	-145.019	
268.00	-62.037	-169.593	
269.00	-62.007	165.224	
270.00	-61.016	146.871	
271.00	-60.784	123.179	
272.00	-60.419	106.617	
273.00	-60.590	82.975	
274.00	-59.908	69.381	
275.00	-60.326	49.817	
276.00	-62.688	26.165	
277.00	-62.431	12.131	
278.00	-63.994	-4.125	
279.00	-65.248	-31.305	
280.00	-66.219	-43.542	
281.00	-66.225	-65.575	
282.00	-71.004	-71.499	
283.00	-74.422	-89.955	
284.00	-76.754	-83.020	
285.00	-84.592	-69.619	
286.00	-76.334	-40.344	
287.00	-74.423	-77.718	
288.00	-71.907	-95.354	
289.00	-67.151	-114.618	
290.00	-66.157	-128.819	
291.00	-64.404	-147.037	
292.00	-63.489	-158.864	
293.00	-62.320	-175.213	
294.00	-63.086	167.392	
295.00	-62.559	150.980	
296.00	-63.308	137.531	
297.00	-64.012	119.480	
298.00	-65.599	105.043	
299.00	-68.016	101.056	
300.00	-72.911	65.468	
301.00	-78.326	13.199	
302.00	-72.960	-52.789	
303.00	-70.445	-85.557	
304.00	-68.591	-102.608	
305.00	-67.207	-114.830	
306.00	-68.015	-127.770	
307.00	-67.857	-143.858	
308.00	-69.162	-158.619	
309.00	-70.190	-177.623	
310.00	-71.145	145.002	
311.00	-71.142	117.599	
312.00	-70.293	89.961	
313.00	-69.794	71.162	
314.00	-69.894	42.234	
315.00	-70.368	17.850	
316.00	-70.881	6.709	
317.00	-73.927	-30.165	
318.00	-73.630	-78.675	
319.00	-74.507	-107.442	
320.00	-72.545	-132.586	
321.00	-73.212	-144.724	
322.00	-72.936	-147.597	
323.00	-73.169	-156.199	
324.00	-73.360	-157.224	
325.00	-72.500	-148.358	
326.00	-73.225	-139.163	
327.00	-72.358	-134.942	
328.00	-73.786	-125.288	
329.00	-72.653	-123.608	
330.00	-73.588	-118.962	
331.00	-74.892	-117.534	
332.00	-85.139	-118.692	
333.00	-77.926	56.262	
334.00	-69.008	35.045	
335.00	-64.909	30.010	
336.00	-62.126	19.715	
337.00	-60.580	6.098	
338.00	-59.962	-3.000	
339.00	-59.018	-12.107	
340.00	-61.025	-22.227	
341.00	-62.707	-22.965	
342.00	-65.456	-34.584	
343.00	-69.702	-35.488	
344.00	-73.197	-22.951	
345.00	-75.486	-1.432	
346.00	-73.073	8.749	
347.00	-71.262	-3.142	
348.00	-69.902	6.163	
349.00	-70.232	-6.511	
350.00	-70.815	-5.632	
351.00	-80.554	20.219	
352.00	-94.785	136.033	
353.00	-74.588	124.951	
354.00	-69.780	114.059	
355.00	-67.848	96.284	
356.00	-67.647	122.499	
357.00	-67.373	128.335	
358.00	-68.172	147.954	
359.00	-67.458	171.054	
Frequency	2450.00	MHz	
Channel	test		
Scan Axis name	Azimuth  [deg]		
Scan Axis	Amplitude	Phase	
			
0.00	-65.904	-12.554	
1.00	-62.463	1.665	
2.00	-59.680	6.293	
3.00	-58.372	8.297	
4.00	-57.825	8.136	
5.00	-57.978	7.762	
6.00	-58.452	9.993	
7.00	-60.717	14.987	
8.00	-65.041	23.178	
9.00	-72.921	54.292	
10.00	-70.037	166.020	
11.00	-65.048	-173.931	
12.00	-63.656	-159.451	
13.00	-63.562	-148.686	
14.00	-64.117	-143.423	
15.00	-65.074	-133.061	
16.00	-66.274	-121.976	
17.00	-66.905	-101.681	
18.00	-68.307	-82.850	
19.00	-69.990	-61.431	
20.00	-74.003	-40.344	
21.00	-90.474	-23.452	
22.00	-74.053	160.410	
23.00	-68.745	-173.298	
24.00	-66.781	-152.136	
25.00	-67.269	-141.297	
26.00	-70.556	-127.942	
27.00	-73.141	-92.059	
28.00	-77.415	-52.632	
29.00	-73.764	-36.122	
30.00	-70.441	-12.996	
31.00	-66.612	-6.812	
32.00	-65.081	3.579	
33.00	-65.519	22.034	
34.00	-67.930	53.239	
35.00	-71.227	128.705	
36.00	-65.994	-168.990	
37.00	-61.397	-135.793	
38.00	-59.941	-116.033	
39.00	-59.450	-95.773	
40.00	-60.771	-78.681	
41.00	-64.687	-60.242	
42.00	-75.177	-48.430	
43.00	-72.817	179.302	
44.00	-65.740	-175.641	
45.00	-62.806	-149.296	
46.00	-62.399	-125.403	
47.00	-62.329	-104.751	
48.00	-64.218	-78.345	
49.00	-64.962	-65.432	
50.00	-68.247	-53.315	
51.00	-69.381	-38.999	
52.00	-68.647	-33.862	
53.00	-67.127	-17.051	
54.00	-64.804	20.114	
55.00	-61.836	46.353	
56.00	-59.520	75.392	
57.00	-57.496	103.761	
58.00	-56.584	132.692	
59.00	-55.585	163.006	
60.00	-54.844	-165.163	
61.00	-53.855	-137.360	
62.00	-53.499	-109.570	
63.00	-53.682	-80.371	
64.00	-54.941	-52.341	
65.00	-56.105	-15.313	
66.00	-57.136	23.290	
67.00	-56.740	69.037	
68.00	-55.605	107.838	
69.00	-54.912	139.271	
70.00	-54.671	169.716	
71.00	-54.890	-157.065	
72.00	-55.248	-121.061	
73.00	-55.757	-87.720	
74.00	-54.853	-49.469	
75.00	-54.249	-9.770	
76.00	-53.056	18.361	
77.00	-52.451	49.929	
78.00	-52.357	78.071	
79.00	-52.246	110.815	
80.00	-51.491	144.546	
81.00	-50.252	174.518	
82.00	-49.375	-156.624	
83.00	-48.568	-132.863	
84.00	-48.141	-108.352	
85.00	-48.049	-85.136	
86.00	-48.095	-59.566	
87.00	-48.378	-33.517	
88.00	-48.490	-7.372	
89.00	-48.312	18.729	
90.00	-47.800	45.761	
91.00	-47.657	75.057	
92.00	-47.384	105.217	
93.00	-46.595	128.291	
94.00	-46.089	148.394	
95.00	-45.868	163.106	
96.00	-46.668	-158.006	
97.00	-46.962	-143.799	
98.00	-47.272	-123.200	
99.00	-47.921	-95.818	
100.00	-47.223	-70.861	
101.00	-47.634	-35.562	
102.00	-47.429	-7.521	
103.00	-47.517	15.953	
104.00	-47.727	38.949	
105.00	-48.247	63.849	
106.00	-48.367	88.726	
107.00	-48.400	112.406	
108.00	-49.006	133.861	
109.00	-49.256	156.992	
110.00	-49.966	175.771	
111.00	-51.091	-163.609	
112.00	-53.721	-148.336	
113.00	-56.132	-126.827	
114.00	-61.122	-94.590	
115.00	-69.289	-37.591	
116.00	-64.996	56.299	
117.00	-59.418	87.460	
118.00	-57.083	112.470	
119.00	-55.043	127.429	
120.00	-54.289	143.657	
121.00	-54.817	150.733	
122.00	-56.342	156.680	
123.00	-59.086	154.990	
124.00	-63.110	132.394	
125.00	-67.019	86.565	
126.00	-62.510	60.040	
127.00	-60.891	44.192	
128.00	-60.153	41.983	
129.00	-62.876	25.706	
130.00	-62.828	-10.308	
131.00	-61.992	-15.676	
132.00	-59.743	-29.315	
133.00	-58.579	-20.984	
134.00	-59.129	3.406	
135.00	-58.463	41.844	
136.00	-55.482	66.792	
137.00	-53.205	82.796	
138.00	-51.774	99.008	
139.00	-51.954	105.191	
140.00	-51.971	113.663	
141.00	-52.748	116.323	
142.00	-54.198	112.099	
143.00	-55.173	96.751	
144.00	-54.874	79.420	
145.00	-53.428	67.115	
146.00	-51.828	62.026	
147.00	-51.444	61.392	
148.00	-51.839	60.706	
149.00	-53.716	62.356	
150.00	-56.007	58.925	
151.00	-59.982	50.934	
152.00	-63.758	20.080	
153.00	-61.648	-4.364	
154.00	-58.677	-11.105	
155.00	-57.080	-9.036	
156.00	-57.102	-6.014	
157.00	-58.616	-4.343	
158.00	-63.242	-9.231	
159.00	-71.320	-56.017	
160.00	-67.849	-132.211	
161.00	-64.587	-127.764	
162.00	-64.654	-95.011	
163.00	-60.747	-47.166	
164.00	-56.032	-26.497	
165.00	-52.393	-16.267	
166.00	-50.551	-10.062	
167.00	-49.740	-7.568	
168.00	-50.183	-5.891	
169.00	-52.361	-8.650	
170.00	-56.420	-23.509	
171.00	-60.325	-84.012	
172.00	-54.605	-130.326	
173.00	-51.118	-143.798	
174.00	-49.759	-152.807	
175.00	-50.346	-161.340	
176.00	-52.867	-178.263	
177.00	-55.900	138.193	
178.00	-53.338	90.565	
179.00	-50.436	68.021	
180.00	-50.039	53.028	
181.00	-53.568	25.534	
182.00	-52.125	-72.419	
183.00	-42.475	-103.692	
184.00	-36.674	-112.601	
185.00	-32.668	-117.500	
186.00	-29.858	-121.024	
187.00	-27.872	-124.012	
188.00	-26.570	-126.633	
189.00	-25.824	-129.045	
190.00	-25.644	-131.329	
191.00	-25.948	-133.404	
192.00	-26.824	-135.388	
193.00	-28.252	-136.817	
194.00	-30.401	-137.329	
195.00	-33.381	-135.656	
196.00	-37.397	-129.109	
197.00	-42.365	-108.712	
198.00	-45.201	-67.548	
199.00	-44.256	-37.530	
200.00	-43.637	-24.858	
201.00	-44.468	-18.199	
202.00	-46.908	-9.794	
203.00	-50.966	6.153	
204.00	-54.802	49.632	
205.00	-53.045	94.981	
206.00	-50.941	112.827	
207.00	-50.441	122.644	
208.00	-51.249	135.797	
209.00	-52.411	156.183	
210.00	-51.957	-178.252	
211.00	-49.863	-161.503	
212.00	-48.320	-156.642	
213.00	-47.669	-157.422	
214.00	-47.826	-161.808	
215.00	-49.212	-168.094	
216.00	-51.966	-176.347	
217.00	-57.056	172.361	
218.00	-69.529	145.815	
219.00	-62.535	-15.734	
220.00	-56.499	-29.892	
221.00	-54.348	-39.605	
222.00	-53.668	-51.558	
223.00	-53.952	-60.511	
224.00	-54.502	-70.873	
225.00	-56.090	-76.427	
226.00	-58.501	-83.832	
227.00	-62.041	-85.854	
228.00	-65.505	-78.895	
229.00	-71.953	-97.714	
230.00	-75.121	-156.897	
231.00	-69.763	164.552	
232.00	-68.218	138.573	
233.00	-66.888	121.896	
234.00	-64.581	96.938	
235.00	-61.685	63.728	
236.00	-59.464	46.916	
237.00	-58.175	24.862	
238.00	-56.733	7.846	
239.00	-55.937	-9.516	
240.00	-56.076	-28.661	
241.00	-57.027	-50.408	
242.00	-58.178	-77.505	
243.00	-58.896	-106.588	
244.00	-58.659	-139.931	
245.00	-58.082	-168.194	
246.00	-57.550	164.181	
247.00	-57.660	137.321	
248.00	-57.965	112.654	
249.00	-57.825	82.250	
250.00	-57.138	55.001	
251.00	-57.072	28.022	
252.00	-57.853	8.034	
253.00	-57.549	-19.040	
254.00	-58.261	-42.716	
255.00	-58.400	-66.663	
256.00	-58.720	-89.245	
257.00	-59.403	-117.486	
258.00	-59.189	-144.914	
259.00	-59.050	-170.156	
260.00	-58.969	168.632	
261.00	-59.013	146.876	
262.00	-58.432	127.302	
263.00	-58.159	102.365	
264.00	-57.886	83.086	
265.00	-57.553	71.132	
266.00	-58.309	55.594	
267.00	-59.708	52.736	
268.00	-60.708	34.354	
269.00	-62.029	21.787	
270.00	-66.381	-3.124	
271.00	-68.085	-28.363	
272.00	-72.526	-96.834	
273.00	-68.488	-115.396	
274.00	-71.503	-137.877	
275.00	-69.409	179.243	
276.00	-68.990	-172.538	
277.00	-70.288	162.779	
278.00	-80.312	138.695	
279.00	-84.770	-104.374	
280.00	-75.364	-25.173	
281.00	-74.452	-58.961	
282.00	-70.428	-61.815	
283.00	-73.659	-82.274	
284.00	-70.254	-133.024	
285.00	-69.183	-127.270	
286.00	-69.203	-149.827	
287.00	-68.910	159.376	
288.00	-70.658	148.741	
289.00	-73.726	106.333	
290.00	-81.196	57.207	
291.00	-76.727	43.989	
292.00	-73.456	-52.820	
293.00	-73.080	-48.742	
294.00	-68.372	-87.868	
295.00	-67.693	-107.841	
296.00	-65.736	-115.805	
297.00	-67.078	-143.318	
298.00	-66.243	-155.221	
299.00	-65.643	-172.098	
300.00	-65.973	-169.234	
301.00	-65.003	-171.405	
302.00	-64.590	-174.401	
303.00	-65.055	177.289	
304.00	-64.076	166.725	
305.00	-65.166	154.170	
306.00	-64.876	129.184	
307.00	-65.186	102.762	
308.00	-64.661	72.622	
309.00	-64.411	51.464	
310.00	-62.949	27.459	
311.00	-62.360	9.108	
312.00	-62.584	-12.949	
313.00	-62.784	-21.371	
314.00	-63.271	-34.455	
315.00	-63.249	-41.981	
316.00	-64.382	-47.684	
317.00	-65.313	-47.786	
318.00	-66.064	-59.567	
319.00	-66.727	-54.704	
320.00	-67.134	-67.083	
321.00	-68.376	-81.091	
322.00	-68.081	-101.568	
323.00	-69.074	-103.417	
324.00	-69.576	-113.910	
325.00	-75.472	-117.555	
326.00	-83.357	-129.755	
327.00	-86.572	62.733	
328.00	-73.831	52.943	
329.00	-70.228	47.931	
330.00	-69.562	39.484	
331.00	-67.947	41.480	
332.00	-68.004	48.674	
333.00	-67.741	60.283	
334.00	-65.513	75.795	
335.00	-63.903	79.363	
336.00	-62.852	77.417	
337.00	-62.484	71.344	
338.00	-63.083	54.443	
339.00	-64.566	34.589	
340.00	-66.154	3.373	
341.00	-65.775	-31.193	
342.00	-66.120	-64.995	
343.00	-66.269	-90.425	
344.00	-67.481	-112.874	
345.00	-71.624	-150.356	
346.00	-70.950	120.950	
347.00	-64.154	84.166	
348.00	-60.242	71.304	
349.00	-58.976	58.730	
350.00	-58.259	48.381	
351.00	-59.113	37.210	
352.00	-60.068	26.976	
353.00	-62.435	15.174	
354.00	-66.064	-1.126	
355.00	-72.122	-17.653	
356.00	-75.391	-82.815	
357.00	-73.517	-114.863	
358.00	-73.795	-77.056	
359.00	-71.560	-42.829	
Frequency	2496.00	MHz	
Channel	test		
Scan Axis name	Azimuth  [deg]		
Scan Axis	Amplitude	Phase	
			
0.00	-64.872	151.164	
1.00	-63.646	125.066	
2.00	-63.758	121.933	
3.00	-64.295	121.095	
4.00	-64.820	119.857	
5.00	-67.119	104.998	
6.00	-66.612	81.495	
7.00	-69.104	65.860	
8.00	-73.710	24.821	
9.00	-69.648	-10.422	
10.00	-65.358	-41.929	
11.00	-62.807	-47.351	
12.00	-62.188	-47.970	
13.00	-61.761	-48.305	
14.00	-62.894	-45.901	
15.00	-63.646	-51.423	
16.00	-64.568	-54.612	
17.00	-67.522	-50.546	
18.00	-70.436	-31.041	
19.00	-73.615	-2.404	
20.00	-71.175	70.859	
21.00	-71.435	108.320	
22.00	-70.394	133.444	
23.00	-74.734	142.395	
24.00	-74.456	131.653	
25.00	-79.086	155.872	
26.00	-74.654	162.448	
27.00	-74.719	160.588	
28.00	-77.029	-158.455	
29.00	-82.582	-156.758	
30.00	-85.426	78.932	
31.00	-72.970	56.384	
32.00	-70.028	92.747	
33.00	-68.419	117.264	
34.00	-69.593	151.433	
35.00	-73.775	-128.944	
36.00	-69.437	-67.966	
37.00	-63.677	-21.172	
38.00	-61.050	8.191	
39.00	-60.062	37.168	
40.00	-60.362	61.401	
41.00	-62.377	92.066	
42.00	-65.877	129.028	
43.00	-66.924	-158.383	
44.00	-62.889	-102.384	
45.00	-60.730	-79.968	
46.00	-60.035	-57.662	
47.00	-59.794	-37.796	
48.00	-61.478	-30.221	
49.00	-62.724	-21.387	
50.00	-63.052	-18.638	
51.00	-65.508	-4.929	
52.00	-66.966	17.650	
53.00	-66.642	62.734	
54.00	-63.066	106.978	
55.00	-60.276	137.072	
56.00	-57.968	175.389	
57.00	-56.446	-152.514	
58.00	-54.745	-123.501	
59.00	-53.841	-95.470	
60.00	-53.191	-65.180	
61.00	-53.045	-36.426	
62.00	-53.502	-5.445	
63.00	-54.219	29.009	
64.00	-54.839	70.814	
65.00	-54.549	115.233	
66.00	-53.023	150.653	
67.00	-51.837	-174.301	
68.00	-51.303	-147.739	
69.00	-51.195	-122.579	
70.00	-52.496	-93.344	
71.00	-54.480	-62.621	
72.00	-56.272	-11.510	
73.00	-55.683	37.513	
74.00	-53.171	79.078	
75.00	-51.351	109.492	
76.00	-50.819	136.598	
77.00	-50.530	164.975	
78.00	-50.338	-165.440	
79.00	-50.104	-131.241	
80.00	-49.347	-99.025	
81.00	-48.202	-69.410	
82.00	-47.411	-42.528	
83.00	-46.872	-17.847	
84.00	-46.565	7.676	
85.00	-46.437	32.468	
86.00	-46.320	59.433	
87.00	-46.326	86.616	
88.00	-46.337	113.266	
89.00	-45.686	141.062	
90.00	-45.383	166.089	
91.00	-45.057	-170.385	
92.00	-44.177	-146.314	
93.00	-44.352	-121.202	
94.00	-44.502	-101.448	
95.00	-44.140	-76.485	
96.00	-44.360	-56.495	
97.00	-44.597	-29.169	
98.00	-44.985	-7.637	
99.00	-45.029	17.007	
100.00	-45.216	42.155	
101.00	-45.357	75.190	
102.00	-45.539	103.185	
103.00	-45.800	128.580	
104.00	-45.915	154.054	
105.00	-45.726	-179.239	
106.00	-45.606	-156.535	
107.00	-45.210	-132.696	
108.00	-45.230	-114.350	
109.00	-45.288	-93.347	
110.00	-46.028	-77.543	
111.00	-46.850	-56.659	
112.00	-48.020	-39.339	
113.00	-49.243	-21.476	
114.00	-50.915	-2.626	
115.00	-52.928	10.147	
116.00	-55.951	19.146	
117.00	-60.150	16.712	
118.00	-64.636	-26.570	
119.00	-61.613	-64.595	
120.00	-58.820	-74.892	
121.00	-57.717	-75.813	
122.00	-58.998	-79.714	
123.00	-61.635	-96.569	
124.00	-65.717	-136.605	
125.00	-61.838	-174.603	
126.00	-59.949	169.094	
127.00	-59.481	168.325	
128.00	-63.066	164.424	
129.00	-72.937	124.977	
130.00	-62.329	19.566	
131.00	-56.021	15.404	
132.00	-52.940	16.340	
133.00	-52.209	18.920	
134.00	-52.423	20.710	
135.00	-54.552	26.072	
136.00	-58.386	27.902	
137.00	-68.295	28.153	
138.00	-69.761	-109.010	
139.00	-60.029	-119.964	
140.00	-57.372	-113.181	
141.00	-55.939	-108.193	
142.00	-57.069	-107.700	
143.00	-58.156	-117.410	
144.00	-57.573	-142.225	
145.00	-55.725	-161.896	
146.00	-53.736	-167.236	
147.00	-52.475	-173.038	
148.00	-51.867	-168.702	
149.00	-52.507	-161.856	
150.00	-54.340	-154.831	
151.00	-57.100	-151.014	
152.00	-61.689	-151.067	
153.00	-66.330	175.462	
154.00	-60.921	114.027	
155.00	-56.249	106.336	
156.00	-54.497	105.143	
157.00	-54.695	100.577	
158.00	-57.246	92.543	
159.00	-61.081	61.736	
160.00	-59.625	0.527	
161.00	-55.690	-17.425	
162.00	-53.456	-20.687	
163.00	-52.989	-12.503	
164.00	-52.898	-5.130	
165.00	-54.021	9.323	
166.00	-55.884	26.694	
167.00	-57.183	47.802	
168.00	-58.254	71.055	
169.00	-59.244	75.170	
170.00	-60.358	59.327	
171.00	-59.818	32.628	
172.00	-55.584	4.144	
173.00	-52.882	0.539	
174.00	-51.900	-8.452	
175.00	-52.245	-12.314	
176.00	-54.804	-17.586	
177.00	-61.430	-46.798	
178.00	-57.861	-155.639	
179.00	-51.004	-173.727	
180.00	-47.669	178.996	
181.00	-46.775	167.702	
182.00	-48.518	148.456	
183.00	-50.456	96.154	
184.00	-45.082	42.013	
185.00	-39.764	23.499	
186.00	-36.163	14.437	
187.00	-33.728	8.048	
188.00	-32.201	3.319	
189.00	-31.340	-1.065	
190.00	-31.133	-5.758	
191.00	-31.535	-10.240	
192.00	-32.681	-15.076	
193.00	-34.556	-19.916	
194.00	-37.423	-24.596	
195.00	-41.790	-27.790	
196.00	-48.924	-25.995	
197.00	-62.442	44.594	
198.00	-52.659	111.982	
199.00	-49.720	115.153	
200.00	-50.189	113.832	
201.00	-53.409	119.485	
202.00	-59.976	147.446	
203.00	-57.488	-135.333	
204.00	-52.135	-121.520	
205.00	-49.576	-125.670	
206.00	-48.949	-134.064	
207.00	-49.410	-144.247	
208.00	-51.065	-153.876	
209.00	-54.618	-163.872	
210.00	-60.039	-171.451	
211.00	-72.120	-145.867	
212.00	-62.765	-71.442	
213.00	-58.207	-88.678	
214.00	-55.256	-108.113	
215.00	-53.472	-130.192	
216.00	-52.834	-151.027	
217.00	-52.663	-174.840	
218.00	-53.314	162.943	
219.00	-54.171	135.052	
220.00	-54.709	106.531	
221.00	-55.122	81.237	
222.00	-56.659	58.321	
223.00	-60.497	43.532	
224.00	-72.217	15.320	
225.00	-65.734	-163.662	
226.00	-58.859	-170.605	
227.00	-55.638	169.546	
228.00	-54.323	155.232	
229.00	-53.663	136.262	
230.00	-54.154	117.093	
231.00	-54.802	98.000	
232.00	-54.718	75.070	
233.00	-56.648	59.493	
234.00	-60.661	42.980	
235.00	-66.290	18.819	
236.00	-78.889	-65.033	
237.00	-65.991	-152.199	
238.00	-63.668	178.182	
239.00	-62.337	166.204	
240.00	-61.904	136.505	
241.00	-63.456	103.464	
242.00	-62.427	73.592	
243.00	-62.562	53.157	
244.00	-63.159	26.694	
245.00	-64.047	25.084	
246.00	-65.373	11.455	
247.00	-68.296	21.097	
248.00	-69.326	68.835	
249.00	-66.494	72.520	
250.00	-63.251	84.041	
251.00	-61.646	66.427	
252.00	-60.193	49.528	
253.00	-59.661	30.502	
254.00	-60.779	15.570	
255.00	-60.593	-8.226	
256.00	-61.060	-33.747	
257.00	-61.910	-60.522	
258.00	-61.859	-89.387	
259.00	-61.921	-117.447	
260.00	-61.640	-142.397	
261.00	-61.512	-168.660	
262.00	-61.324	171.903	
263.00	-61.027	149.735	
264.00	-61.759	126.806	
265.00	-61.943	109.836	
266.00	-62.862	89.881	
267.00	-63.752	60.603	
268.00	-65.202	39.159	
269.00	-66.903	5.064	
270.00	-66.766	-25.299	
271.00	-67.264	-50.557	
272.00	-67.395	-84.591	
273.00	-67.029	-100.941	
274.00	-66.868	-121.872	
275.00	-67.143	-140.002	
276.00	-68.527	-161.615	
277.00	-71.820	-176.109	
278.00	-72.591	136.395	
279.00	-72.194	90.070	
280.00	-68.845	53.741	
281.00	-67.120	40.539	
282.00	-65.065	26.482	
283.00	-64.549	21.375	
284.00	-64.483	10.210	
285.00	-64.816	-5.025	
286.00	-65.123	-15.718	
287.00	-66.211	-31.799	
288.00	-66.150	-46.893	
289.00	-65.725	-51.200	
290.00	-65.174	-58.057	
291.00	-65.026	-56.508	
292.00	-65.463	-71.092	
293.00	-65.455	-76.638	
294.00	-64.773	-81.128	
295.00	-64.446	-99.057	
296.00	-63.712	-105.914	
297.00	-64.279	-132.753	
298.00	-63.651	-137.961	
299.00	-66.679	-164.516	
300.00	-68.119	155.156	
301.00	-69.160	125.795	
302.00	-68.560	82.859	
303.00	-68.455	42.012	
304.00	-66.173	15.290	
305.00	-63.680	-22.406	
306.00	-62.364	-45.772	
307.00	-61.507	-64.534	
308.00	-61.210	-86.170	
309.00	-61.293	-105.630	
310.00	-62.519	-130.051	
311.00	-64.710	-156.770	
312.00	-65.008	173.234	
313.00	-64.629	138.780	
314.00	-64.737	109.253	
315.00	-64.171	91.154	
316.00	-66.881	68.924	
317.00	-67.846	44.313	
318.00	-72.130	-5.072	
319.00	-69.816	-58.208	
320.00	-67.147	-91.629	
321.00	-65.858	-124.868	
322.00	-65.807	-124.547	
323.00	-65.425	-161.164	
324.00	-65.516	159.139	
325.00	-63.589	121.366	
326.00	-62.060	98.714	
327.00	-60.512	76.255	
328.00	-60.414	62.232	
329.00	-60.604	43.232	
330.00	-61.848	20.084	
331.00	-62.320	2.468	
332.00	-64.325	-14.626	
333.00	-68.776	-22.963	
334.00	-73.858	-47.591	
335.00	-79.180	-149.776	
336.00	-71.811	177.711	
337.00	-66.515	147.583	
338.00	-64.037	137.030	
339.00	-61.312	125.549	
340.00	-60.264	124.605	
341.00	-59.588	117.404	
342.00	-59.561	118.399	
343.00	-60.084	115.265	
344.00	-60.891	112.326	
345.00	-61.178	109.986	
346.00	-61.841	104.803	
347.00	-62.738	106.059	
348.00	-63.340	107.318	
349.00	-65.725	107.824	
350.00	-68.590	122.208	
351.00	-71.273	164.861	
352.00	-69.752	-172.824	
353.00	-68.267	-158.936	
354.00	-64.640	-163.939	
355.00	-62.599	-166.532	
356.00	-61.252	-173.922	
357.00	-61.602	-177.901	
358.00	-62.142	173.167	
359.00	-63.367	166.137	
Frequency	2550.00	MHz	
Channel	test		
Scan Axis name	Azimuth  [deg]		
Scan Axis	Amplitude	Phase	
			
0.00	-68.143	71.087	
1.00	-65.670	74.535	
2.00	-67.755	72.455	
3.00	-71.738	74.846	
4.00	-74.757	24.786	
5.00	-78.025	-0.660	
6.00	-85.298	29.956	
7.00	-77.988	-175.600	
8.00	-72.287	175.090	
9.00	-69.911	-177.840	
10.00	-71.046	168.888	
11.00	-75.037	135.135	
12.00	-70.389	96.216	
13.00	-67.994	77.580	
14.00	-67.294	77.796	
15.00	-72.039	66.573	
16.00	-74.695	51.718	
17.00	-75.855	5.646	
18.00	-74.738	-26.642	
19.00	-77.025	-88.424	
20.00	-73.230	-113.502	
21.00	-71.452	-128.887	
22.00	-69.205	-108.019	
23.00	-70.814	-104.251	
24.00	-73.275	-94.543	
25.00	-83.400	-99.252	
26.00	-81.299	139.975	
27.00	-71.087	132.416	
28.00	-68.676	126.095	
29.00	-66.967	130.944	
30.00	-64.168	145.367	
31.00	-62.148	164.559	
32.00	-60.198	179.319	
33.00	-59.941	-156.176	
34.00	-59.909	-131.325	
35.00	-60.486	-112.470	
36.00	-61.798	-91.769	
37.00	-64.704	-54.995	
38.00	-71.723	-33.452	
39.00	-79.217	138.204	
40.00	-65.270	178.609	
41.00	-62.430	-163.308	
42.00	-60.818	-138.263	
43.00	-61.080	-108.374	
44.00	-62.137	-80.836	
45.00	-62.002	-40.774	
46.00	-62.105	-10.586	
47.00	-60.749	23.427	
48.00	-59.207	34.357	
49.00	-57.920	44.097	
50.00	-57.259	57.311	
51.00	-56.672	70.143	
52.00	-56.937	88.997	
53.00	-57.767	109.450	
54.00	-58.783	142.985	
55.00	-59.446	-176.894	
56.00	-60.012	-127.763	
57.00	-58.422	-84.867	
58.00	-57.343	-48.677	
59.00	-56.018	-14.715	
60.00	-56.150	17.131	
61.00	-56.520	50.049	
62.00	-57.090	86.216	
63.00	-58.287	129.226	
64.00	-58.908	176.537	
65.00	-57.595	-140.269	
66.00	-57.006	-102.584	
67.00	-56.089	-71.745	
68.00	-56.253	-36.686	
69.00	-57.303	-1.352	
70.00	-57.830	42.733	
71.00	-57.688	91.932	
72.00	-55.538	133.477	
73.00	-53.884	165.437	
74.00	-52.998	-167.418	
75.00	-52.710	-138.202	
76.00	-53.088	-107.082	
77.00	-53.525	-70.773	
78.00	-52.877	-37.277	
79.00	-51.820	3.417	
80.00	-50.836	34.883	
81.00	-49.644	66.030	
82.00	-48.897	93.811	
83.00	-47.607	122.321	
84.00	-46.782	148.091	
85.00	-46.060	172.403	
86.00	-45.361	-163.696	
87.00	-44.876	-140.281	
88.00	-44.838	-116.392	
89.00	-44.867	-92.474	
90.00	-44.535	-66.169	
91.00	-44.336	-42.373	
92.00	-44.579	-18.570	
93.00	-43.897	5.838	
94.00	-43.773	32.126	
95.00	-43.540	54.911	
96.00	-43.190	78.741	
97.00	-42.924	102.357	
98.00	-42.770	123.354	
99.00	-42.818	146.198	
100.00	-42.788	169.096	
101.00	-42.866	-158.439	
102.00	-43.305	-133.153	
103.00	-43.354	-110.033	
104.00	-43.388	-86.766	
105.00	-43.626	-61.789	
106.00	-43.750	-40.206	
107.00	-43.972	-16.066	
108.00	-44.284	4.833	
109.00	-44.607	29.467	
110.00	-45.027	50.978	
111.00	-45.304	75.184	
112.00	-45.938	95.817	
113.00	-46.472	116.362	
114.00	-47.712	134.934	
115.00	-49.343	154.123	
116.00	-51.781	174.109	
117.00	-55.080	-159.870	
118.00	-58.480	-122.401	
119.00	-59.130	-74.279	
120.00	-57.897	-45.722	
121.00	-57.290	-29.303	
122.00	-58.289	-29.548	
123.00	-59.105	-40.892	
124.00	-59.931	-68.565	
125.00	-57.590	-82.480	
126.00	-56.838	-90.983	
127.00	-57.644	-86.029	
128.00	-60.521	-90.975	
129.00	-73.541	-159.177	
130.00	-60.415	131.893	
131.00	-54.685	127.277	
132.00	-51.571	130.723	
133.00	-50.337	140.838	
134.00	-50.373	150.407	
135.00	-50.901	160.536	
136.00	-53.691	172.712	
137.00	-57.146	-171.834	
138.00	-64.548	-152.120	
139.00	-67.213	-17.710	
140.00	-62.583	15.600	
141.00	-59.077	38.338	
142.00	-58.204	46.966	
143.00	-60.005	55.406	
144.00	-67.009	55.330	
145.00	-69.942	-38.122	
146.00	-60.715	-59.887	
147.00	-56.726	-55.229	
148.00	-54.936	-42.182	
149.00	-54.170	-29.541	
150.00	-55.181	-18.860	
151.00	-57.035	-14.992	
152.00	-61.620	-24.802	
153.00	-67.385	-91.495	
154.00	-59.196	-133.589	
155.00	-55.863	-135.730	
156.00	-54.645	-136.755	
157.00	-56.303	-143.016	
158.00	-61.096	-160.807	
159.00	-61.353	126.997	
160.00	-55.580	98.319	
161.00	-52.288	92.128	
162.00	-50.638	95.840	
163.00	-50.896	100.513	
164.00	-52.852	108.747	
165.00	-56.656	125.206	
166.00	-62.206	168.826	
167.00	-61.772	-122.757	
168.00	-59.096	-99.940	
169.00	-59.208	-74.318	
170.00	-63.151	-39.992	
171.00	-65.236	51.698	
172.00	-56.666	93.180	
173.00	-52.659	105.814	
174.00	-50.891	111.988	
175.00	-51.308	115.854	
176.00	-55.013	116.890	
177.00	-69.640	34.235	
178.00	-52.971	-49.153	
179.00	-47.319	-55.271	
180.00	-44.691	-58.660	
181.00	-44.252	-64.210	
182.00	-46.202	-74.397	
183.00	-51.117	-110.680	
184.00	-47.527	165.760	
185.00	-40.683	141.259	
186.00	-36.405	132.798	
187.00	-33.617	126.568	
188.00	-31.781	121.678	
189.00	-30.744	116.912	
190.00	-30.421	112.311	
191.00	-30.662	107.619	
192.00	-31.579	103.261	
193.00	-33.164	99.586	
194.00	-35.620	96.372	
195.00	-39.053	96.195	
196.00	-43.876	100.291	
197.00	-49.743	128.043	
198.00	-50.886	178.450	
199.00	-49.085	-165.780	
200.00	-48.996	-167.187	
201.00	-50.839	-178.035	
202.00	-55.223	154.085	
203.00	-58.309	89.604	
204.00	-54.901	42.835	
205.00	-52.645	17.951	
206.00	-52.480	-2.222	
207.00	-54.499	-22.355	
208.00	-57.548	-47.078	
209.00	-60.417	-96.304	
210.00	-60.756	-155.868	
211.00	-59.085	163.678	
212.00	-60.287	136.053	
213.00	-63.805	100.414	
214.00	-67.048	-9.278	
215.00	-58.098	-54.675	
216.00	-54.369	-74.532	
217.00	-51.925	-96.725	
218.00	-50.722	-113.440	
219.00	-50.405	-135.702	
220.00	-50.812	-153.664	
221.00	-51.854	-178.337	
222.00	-53.508	156.655	
223.00	-55.506	118.160	
224.00	-55.797	68.359	
225.00	-54.775	28.025	
226.00	-53.430	-3.747	
227.00	-52.679	-28.525	
228.00	-51.808	-53.502	
229.00	-51.057	-81.243	
230.00	-51.139	-104.587	
231.00	-51.169	-124.791	
232.00	-51.735	-145.827	
233.00	-53.174	-167.308	
234.00	-54.098	173.791	
235.00	-56.134	157.622	
236.00	-59.096	143.217	
237.00	-63.095	122.607	
238.00	-69.960	107.339	
239.00	-75.384	-134.363	
240.00	-66.406	-113.922	
241.00	-64.767	-116.118	
242.00	-61.286	-127.285	
243.00	-60.992	-140.917	
244.00	-59.871	-145.763	
245.00	-60.059	-153.273	
246.00	-60.190	-158.788	
247.00	-60.719	-168.030	
248.00	-60.427	-169.634	
249.00	-60.567	178.782	
250.00	-60.384	164.562	
251.00	-60.806	155.146	
252.00	-62.556	143.590	
253.00	-61.790	126.233	
254.00	-63.990	104.799	
255.00	-63.627	85.427	
256.00	-63.857	57.059	
257.00	-64.776	44.510	
258.00	-64.701	20.121	
259.00	-65.963	2.267	
260.00	-67.475	-20.643	
261.00	-71.461	-39.900	
262.00	-71.471	-99.342	
263.00	-68.333	-117.897	
264.00	-67.174	-168.416	
265.00	-67.332	-179.654	
266.00	-65.549	158.945	
267.00	-64.794	128.262	
268.00	-65.768	117.135	
269.00	-66.163	101.343	
270.00	-68.675	83.071	
271.00	-68.884	59.635	
272.00	-67.827	15.610	
273.00	-67.037	-16.408	
274.00	-73.019	-31.355	
275.00	-69.611	-53.404	
276.00	-69.381	-67.501	
277.00	-69.788	-111.177	
278.00	-67.949	-136.227	
279.00	-67.536	-154.350	
280.00	-65.118	177.500	
281.00	-65.760	158.664	
282.00	-65.322	153.818	
283.00	-64.064	142.297	
284.00	-63.919	133.646	
285.00	-65.037	134.418	
286.00	-65.469	113.818	
287.00	-66.074	92.956	
288.00	-68.018	89.347	
289.00	-69.199	88.897	
290.00	-69.781	99.105	
291.00	-70.180	124.447	
292.00	-67.424	117.793	
293.00	-65.868	112.924	
294.00	-64.553	106.571	
295.00	-62.284	93.436	
296.00	-60.954	81.114	
297.00	-60.670	66.343	
298.00	-60.689	45.677	
299.00	-61.343	20.804	
300.00	-60.579	-9.462	
301.00	-60.734	-43.641	
302.00	-59.655	-70.424	
303.00	-59.270	-95.604	
304.00	-58.476	-114.646	
305.00	-58.126	-136.100	
306.00	-58.598	-160.156	
307.00	-58.757	-178.283	
308.00	-60.806	155.339	
309.00	-62.116	139.790	
310.00	-63.944	114.736	
311.00	-68.171	98.628	
312.00	-76.256	25.369	
313.00	-70.244	-54.060	
314.00	-66.063	-78.186	
315.00	-64.684	-85.886	
316.00	-64.199	-98.414	
317.00	-63.954	-94.646	
318.00	-65.389	-91.937	
319.00	-68.760	-75.323	
320.00	-67.518	-51.282	
321.00	-65.838	-24.541	
322.00	-62.737	-25.491	
323.00	-61.289	-32.849	
324.00	-60.269	-45.020	
325.00	-59.633	-62.288	
326.00	-59.480	-77.093	
327.00	-60.349	-93.892	
328.00	-62.285	-111.103	
329.00	-64.906	-127.575	
330.00	-69.416	-153.183	
331.00	-73.369	155.576	
332.00	-71.906	94.257	
333.00	-67.548	78.286	
334.00	-66.250	71.076	
335.00	-65.607	64.564	
336.00	-65.889	47.758	
337.00	-65.044	42.867	
338.00	-65.798	26.465	
339.00	-66.281	14.440	
340.00	-66.118	-14.319	
341.00	-64.263	-28.936	
342.00	-63.885	-50.295	
343.00	-63.110	-63.889	
344.00	-61.882	-57.848	
345.00	-62.701	-57.318	
346.00	-63.430	-51.191	
347.00	-64.948	-45.090	
348.00	-65.124	-44.608	
349.00	-65.105	-49.569	
350.00	-63.643	-57.321	
351.00	-63.867	-52.440	
352.00	-65.512	-71.506	
353.00	-66.214	-90.890	
354.00	-71.348	-125.347	
355.00	-67.673	-129.979	
356.00	-68.703	-141.570	
357.00	-74.694	-126.137	
358.00	-77.131	120.582	
359.00	-75.842	77.225	
Frequency	2600.00	MHz	
Channel	test		
Scan Axis name	Azimuth  [deg]		
Scan Axis	Amplitude	Phase	
			
0.00	-68.604	-55.350	
1.00	-67.021	-95.427	
2.00	-62.829	-114.748	
3.00	-60.387	-120.275	
4.00	-58.975	-123.557	
5.00	-58.503	-123.706	
6.00	-57.804	-123.831	
7.00	-57.235	-116.589	
8.00	-57.363	-106.523	
9.00	-58.202	-90.800	
10.00	-59.487	-78.996	
11.00	-61.908	-59.025	
12.00	-65.689	-36.562	
13.00	-71.219	10.175	
14.00	-71.042	59.401	
15.00	-68.591	80.061	
16.00	-67.105	82.070	
17.00	-67.429	84.271	
18.00	-67.786	82.998	
19.00	-70.976	64.858	
20.00	-71.003	15.786	
21.00	-66.920	5.177	
22.00	-63.330	9.564	
23.00	-61.170	24.415	
24.00	-60.771	37.800	
25.00	-61.187	54.598	
26.00	-62.546	71.496	
27.00	-64.890	86.138	
28.00	-68.241	118.863	
29.00	-70.908	151.812	
30.00	-71.301	-170.670	
31.00	-70.458	-136.139	
32.00	-69.174	-94.212	
33.00	-69.797	-53.446	
34.00	-68.260	-11.376	
35.00	-67.460	39.528	
36.00	-65.064	80.485	
37.00	-63.476	122.465	
38.00	-62.339	166.913	
39.00	-60.428	-157.657	
40.00	-58.769	-121.172	
41.00	-58.460	-90.938	
42.00	-58.683	-63.972	
43.00	-61.068	-38.454	
44.00	-64.799	6.138	
45.00	-65.782	73.124	
46.00	-63.493	125.850	
47.00	-61.351	152.671	
48.00	-60.333	173.381	
49.00	-60.826	-176.140	
50.00	-61.074	-162.918	
51.00	-62.732	-148.590	
52.00	-62.433	-121.018	
53.00	-61.348	-91.149	
54.00	-60.007	-61.655	
55.00	-58.103	-30.115	
56.00	-57.582	-2.229	
57.00	-57.362	31.072	
58.00	-57.520	59.696	
59.00	-57.933	96.398	
60.00	-58.682	137.223	
61.00	-58.666	-177.703	
62.00	-57.905	-136.237	
63.00	-57.337	-97.927	
64.00	-56.468	-60.252	
65.00	-56.105	-23.546	
66.00	-55.875	13.790	
67.00	-55.538	52.972	
68.00	-55.220	88.022	
69.00	-54.756	123.906	
70.00	-54.885	159.268	
71.00	-55.609	-163.822	
72.00	-55.373	-122.518	
73.00	-54.937	-82.485	
74.00	-53.251	-45.446	
75.00	-52.041	-17.129	
76.00	-51.699	11.090	
77.00	-51.814	39.218	
78.00	-52.311	70.323	
79.00	-52.605	106.357	
80.00	-51.790	141.438	
81.00	-51.224	174.875	
82.00	-50.583	-155.998	
83.00	-50.063	-127.819	
84.00	-49.892	-99.161	
85.00	-49.333	-69.139	
86.00	-48.908	-39.610	
87.00	-48.280	-10.935	
88.00	-47.574	15.734	
89.00	-46.984	41.246	
90.00	-46.657	67.007	
91.00	-46.194	92.152	
92.00	-45.737	118.203	
93.00	-45.453	141.941	
94.00	-44.977	167.729	
95.00	-44.490	-168.810	
96.00	-44.092	-144.955	
97.00	-43.630	-121.493	
98.00	-43.300	-99.434	
99.00	-42.976	-76.486	
100.00	-42.749	-54.441	
101.00	-42.531	-21.645	
102.00	-42.389	3.509	
103.00	-42.292	26.306	
104.00	-42.336	48.496	
105.00	-42.163	72.305	
106.00	-42.137	93.612	
107.00	-42.002	118.475	
108.00	-42.038	139.448	
109.00	-41.991	164.889	
110.00	-41.890	-175.509	
111.00	-41.914	-152.552	
112.00	-42.103	-133.939	
113.00	-42.542	-114.107	
114.00	-43.346	-94.918	
115.00	-44.404	-76.699	
116.00	-45.914	-56.356	
117.00	-47.634	-36.194	
118.00	-49.882	-11.946	
119.00	-52.003	10.864	
120.00	-54.290	34.724	
121.00	-57.266	45.922	
122.00	-59.792	39.363	
123.00	-61.387	-6.053	
124.00	-56.304	-21.789	
125.00	-53.369	-18.031	
126.00	-51.794	-12.250	
127.00	-51.289	-3.861	
128.00	-52.174	0.669	
129.00	-54.661	3.604	
130.00	-58.801	-11.579	
131.00	-62.429	-59.756	
132.00	-58.163	-81.723	
133.00	-54.907	-80.883	
134.00	-53.404	-71.850	
135.00	-53.435	-59.810	
136.00	-54.290	-47.058	
137.00	-56.417	-32.800	
138.00	-60.469	-13.538	
139.00	-69.494	32.960	
140.00	-66.970	168.917	
141.00	-60.239	-168.901	
142.00	-58.106	-152.031	
143.00	-57.442	-136.195	
144.00	-58.687	-116.694	
145.00	-60.828	-91.443	
146.00	-63.278	-61.527	
147.00	-66.147	-17.943	
148.00	-72.228	65.770	
149.00	-64.782	122.796	
150.00	-61.841	157.785	
151.00	-61.755	-166.882	
152.00	-60.845	-123.246	
153.00	-57.083	-81.301	
154.00	-53.418	-62.663	
155.00	-51.305	-54.985	
156.00	-50.786	-55.247	
157.00	-51.126	-64.491	
158.00	-51.669	-81.737	
159.00	-50.511	-104.447	
160.00	-48.765	-117.864	
161.00	-47.319	-124.741	
162.00	-46.736	-126.240	
163.00	-47.205	-124.817	
164.00	-48.916	-123.150	
165.00	-52.546	-119.988	
166.00	-60.003	-117.402	
167.00	-71.324	84.195	
168.00	-58.290	88.567	
169.00	-55.047	96.412	
170.00	-54.717	111.523	
171.00	-55.847	135.933	
172.00	-57.011	-179.937	
173.00	-54.428	-139.021	
174.00	-51.504	-121.404	
175.00	-50.409	-118.374	
176.00	-51.531	-127.232	
177.00	-54.376	-164.621	
178.00	-51.612	145.930	
179.00	-47.429	123.504	
180.00	-45.311	115.065	
181.00	-45.552	111.787	
182.00	-49.712	109.262	
183.00	-64.756	-73.918	
184.00	-44.012	-72.402	
185.00	-37.463	-73.880	
186.00	-33.524	-75.612	
187.00	-30.843	-77.584	
188.00	-29.124	-79.741	
189.00	-28.117	-82.185	
190.00	-27.744	-84.506	
191.00	-27.947	-86.713	
192.00	-28.734	-88.590	
193.00	-30.102	-89.951	
194.00	-32.143	-90.133	
195.00	-34.868	-88.272	
196.00	-38.379	-82.475	
197.00	-42.578	-67.517	
198.00	-45.822	-40.990	
199.00	-47.016	-14.825	
200.00	-47.939	-1.694	
201.00	-50.411	3.961	
202.00	-56.000	7.124	
203.00	-73.543	87.145	
204.00	-56.900	165.032	
205.00	-52.864	167.912	
206.00	-51.793	165.384	
207.00	-52.225	165.796	
208.00	-54.669	171.277	
209.00	-57.702	-166.303	
210.00	-58.372	-131.538	
211.00	-57.069	-110.297	
212.00	-56.959	-98.400	
213.00	-58.392	-88.743	
214.00	-60.166	-63.782	
215.00	-59.769	-25.552	
216.00	-56.470	-12.001	
217.00	-54.118	-10.239	
218.00	-53.058	-12.756	
219.00	-52.923	-18.584	
220.00	-53.858	-26.320	
221.00	-56.694	-36.911	
222.00	-61.567	-59.455	
223.00	-66.818	-132.715	
224.00	-61.129	164.088	
225.00	-57.957	140.086	
226.00	-55.867	118.376	
227.00	-55.365	95.689	
228.00	-55.717	78.438	
229.00	-56.624	59.192	
230.00	-57.953	30.402	
231.00	-59.204	10.133	
232.00	-61.774	-10.212	
233.00	-65.377	-30.937	
234.00	-73.452	-58.052	
235.00	-80.678	132.612	
236.00	-73.026	106.675	
237.00	-69.578	79.766	
238.00	-66.102	49.057	
239.00	-64.057	24.216	
240.00	-62.321	3.871	
241.00	-61.398	-13.693	
242.00	-60.946	-29.669	
243.00	-60.741	-45.255	
244.00	-60.988	-57.558	
245.00	-61.630	-68.030	
246.00	-62.891	-81.388	
247.00	-65.208	-93.850	
248.00	-68.444	-110.128	
249.00	-69.723	-135.181	
250.00	-71.385	-148.320	
251.00	-72.640	177.200	
252.00	-72.729	152.713	
253.00	-73.872	125.893	
254.00	-72.200	107.305	
255.00	-73.762	55.731	
256.00	-69.233	24.139	
257.00	-67.348	-3.763	
258.00	-67.676	-8.556	
259.00	-66.422	-26.365	
260.00	-66.916	-40.455	
261.00	-65.910	-50.184	
262.00	-68.924	-71.820	
263.00	-67.379	-100.448	
264.00	-66.760	-118.228	
265.00	-68.047	-142.643	
266.00	-68.934	-161.544	
267.00	-69.104	167.750	
268.00	-68.829	172.590	
269.00	-70.790	148.539	
270.00	-69.858	128.117	
271.00	-70.450	107.084	
272.00	-68.464	94.244	
273.00	-66.930	99.328	
274.00	-67.136	90.396	
275.00	-63.278	98.549	
276.00	-63.587	99.378	
277.00	-64.372	92.371	
278.00	-63.193	73.929	
279.00	-60.967	61.651	
280.00	-60.731	50.662	
281.00	-61.649	41.725	
282.00	-60.205	17.586	
283.00	-60.747	10.498	
284.00	-61.615	-5.822	
285.00	-61.983	-24.876	
286.00	-63.354	-48.226	
287.00	-63.809	-73.481	
288.00	-65.501	-103.782	
289.00	-68.058	-103.745	
290.00	-71.649	-115.331	
291.00	-80.735	-91.222	
292.00	-74.588	-20.050	
293.00	-70.309	-37.265	
294.00	-67.075	-24.708	
295.00	-65.699	-41.101	
296.00	-64.015	-63.544	
297.00	-64.041	-84.117	
298.00	-62.609	-105.672	
299.00	-62.841	-125.359	
300.00	-63.064	-145.613	
301.00	-64.152	-163.466	
302.00	-65.866	158.406	
303.00	-65.389	121.334	
304.00	-64.574	84.225	
305.00	-62.300	52.394	
306.00	-59.518	30.770	
307.00	-59.369	16.212	
308.00	-58.265	0.708	
309.00	-57.950	-13.822	
310.00	-58.188	-27.835	
311.00	-58.703	-48.211	
312.00	-59.895	-66.261	
313.00	-61.342	-86.594	
314.00	-62.074	-111.474	
315.00	-62.088	-126.381	
316.00	-62.564	-148.904	
317.00	-63.006	-157.579	
318.00	-63.122	-156.346	
319.00	-63.381	-148.854	
320.00	-62.460	-148.887	
321.00	-61.207	-145.690	
322.00	-59.975	-157.773	
323.00	-59.588	-164.977	
324.00	-60.275	-177.327	
325.00	-61.259	160.465	
326.00	-63.196	137.120	
327.00	-65.144	106.244	
328.00	-66.753	64.844	
329.00	-66.798	14.677	
330.00	-64.796	-16.421	
331.00	-64.703	-40.624	
332.00	-64.676	-63.855	
333.00	-64.533	-92.026	
334.00	-64.251	-110.209	
335.00	-63.720	-127.951	
336.00	-64.145	-136.674	
337.00	-64.182	-151.886	
338.00	-64.041	-162.366	
339.00	-63.933	-178.458	
340.00	-63.604	167.770	
341.00	-64.233	153.335	
342.00	-63.986	138.759	
343.00	-64.564	119.678	
344.00	-64.768	103.403	
345.00	-65.637	88.441	
346.00	-66.056	77.782	
347.00	-67.398	79.007	
348.00	-71.193	76.752	
349.00	-76.886	60.021	
350.00	-86.654	-24.842	
351.00	-82.832	-47.100	
352.00	-85.042	133.832	
353.00	-87.480	-122.548	
354.00	-87.639	137.565	
355.00	-78.674	35.188	
356.00	-72.328	3.281	
357.00	-66.600	6.759	
358.00	-65.428	-0.067	
359.00	-65.964	-9.094	
Frequency	2650.00	MHz	
Channel	test		
Scan Axis name	Azimuth  [deg]		
Scan Axis	Amplitude	Phase	
			
0.00	-56.141	75.863	
1.00	-59.375	66.128	
2.00	-59.278	73.291	
3.00	-61.434	86.876	
4.00	-65.328	74.647	
5.00	-67.516	91.980	
6.00	-88.931	171.419	
7.00	-71.392	-36.856	
8.00	-74.420	-59.544	
9.00	-78.086	138.749	
10.00	-63.525	59.747	
11.00	-64.531	81.397	
12.00	-60.613	60.602	
13.00	-61.305	75.895	
14.00	-62.493	54.719	
15.00	-74.430	93.500	
16.00	-70.237	-172.017	
17.00	-66.791	-119.504	
18.00	-60.365	-108.214	
19.00	-59.143	-93.170	
20.00	-58.900	-75.136	
21.00	-61.836	-44.027	
22.00	-63.772	-7.242	
23.00	-62.770	44.560	
24.00	-62.965	71.246	
25.00	-65.071	77.624	
26.00	-65.075	96.021	
27.00	-93.314	105.988	
28.00	-65.869	-72.848	
29.00	-61.853	-85.235	
30.00	-58.279	-72.072	
31.00	-57.513	-65.734	
32.00	-57.487	-53.233	
33.00	-59.097	-42.163	
34.00	-60.719	-27.891	
35.00	-76.996	91.456	
36.00	-62.602	159.064	
37.00	-57.527	-175.928	
38.00	-55.854	-156.010	
39.00	-55.487	-131.453	
40.00	-57.751	-108.968	
41.00	-60.431	-68.839	
42.00	-62.301	-11.453	
43.00	-61.221	36.728	
44.00	-59.760	78.099	
45.00	-58.803	93.188	
46.00	-59.201	104.933	
47.00	-60.211	110.191	
48.00	-60.410	90.977	
49.00	-75.209	143.799	
50.00	-71.270	-98.376	
51.00	-76.453	-13.949	
52.00	-66.059	-33.189	
53.00	-63.509	1.018	
54.00	-64.055	2.029	
55.00	-64.782	67.795	
56.00	-64.086	106.707	
57.00	-60.520	156.374	
58.00	-57.658	-166.920	
59.00	-55.710	-143.510	
60.00	-55.084	-117.380	
61.00	-54.690	-90.219	
62.00	-55.679	-55.822	
63.00	-56.440	-26.914	
64.00	-57.922	4.414	
65.00	-59.066	58.626	
66.00	-60.927	92.904	
67.00	-59.876	140.171	
68.00	-59.740	177.228	
69.00	-61.761	-148.371	
70.00	-67.940	-103.649	
71.00	-67.436	-15.116	
72.00	-59.393	44.604	
73.00	-56.271	66.451	
74.00	-53.189	85.196	
75.00	-52.019	106.607	
76.00	-51.765	127.056	
77.00	-52.525	151.503	
78.00	-53.486	-178.683	
79.00	-53.980	-145.334	
80.00	-54.080	-106.407	
81.00	-54.064	-71.838	
82.00	-53.681	-41.019	
83.00	-52.777	-5.719	
84.00	-52.555	22.390	
85.00	-51.395	50.873	
86.00	-51.004	78.578	
87.00	-50.394	104.315	
88.00	-50.059	127.360	
89.00	-49.647	155.387	
90.00	-49.333	-177.787	
91.00	-48.833	-152.692	
92.00	-48.248	-127.403	
93.00	-47.780	-103.280	
94.00	-47.146	-79.561	
95.00	-46.613	-57.322	
96.00	-46.259	-32.767	
97.00	-45.954	-8.635	
98.00	-45.594	13.520	
99.00	-45.369	36.141	
100.00	-45.118	60.031	
101.00	-45.200	91.860	
102.00	-45.134	119.113	
103.00	-44.967	148.020	
104.00	-44.526	170.675	
105.00	-44.203	-161.423	
106.00	-43.500	-140.509	
107.00	-42.866	-114.928	
108.00	-42.541	-95.900	
109.00	-41.948	-71.902	
110.00	-41.697	-54.471	
111.00	-41.518	-32.156	
112.00	-41.790	-12.456	
113.00	-42.181	8.324	
114.00	-42.815	30.359	
115.00	-43.439	51.050	
116.00	-44.213	76.760	
117.00	-44.974	99.538	
118.00	-45.731	123.458	
119.00	-46.346	143.594	
120.00	-47.326	166.541	
121.00	-48.376	-177.161	
122.00	-50.171	-167.097	
123.00	-53.049	-161.725	
124.00	-57.160	-172.025	
125.00	-58.331	154.200	
126.00	-54.414	127.520	
127.00	-53.633	133.392	
128.00	-52.965	135.784	
129.00	-54.792	143.458	
130.00	-59.538	138.125	
131.00	-70.350	105.991	
132.00	-61.324	-3.598	
133.00	-56.076	2.061	
134.00	-53.677	18.761	
135.00	-52.394	33.055	
136.00	-53.111	48.424	
137.00	-55.041	56.057	
138.00	-56.865	68.626	
139.00	-64.220	52.846	
140.00	-72.068	-6.041	
141.00	-61.204	-31.100	
142.00	-58.517	-30.854	
143.00	-57.140	-19.036	
144.00	-58.315	4.705	
145.00	-60.312	23.069	
146.00	-59.316	58.226	
147.00	-60.236	62.821	
148.00	-65.522	105.412	
149.00	-66.550	98.364	
150.00	-68.446	107.473	
151.00	-67.989	83.000	
152.00	-59.844	72.216	
153.00	-56.133	71.847	
154.00	-55.837	63.747	
155.00	-52.675	66.353	
156.00	-52.368	65.981	
157.00	-53.023	58.861	
158.00	-53.719	47.286	
159.00	-53.147	34.068	
160.00	-52.506	22.578	
161.00	-52.697	17.619	
162.00	-52.438	15.764	
163.00	-53.328	18.323	
164.00	-56.190	20.268	
165.00	-62.285	25.731	
166.00	-72.714	120.925	
167.00	-65.227	-167.445	
168.00	-58.174	-145.199	
169.00	-57.006	-138.540	
170.00	-56.827	-130.561	
171.00	-60.892	-128.282	
172.00	-70.867	-68.698	
173.00	-59.706	44.608	
174.00	-54.259	39.901	
175.00	-52.472	36.710	
176.00	-52.047	15.405	
177.00	-52.142	-13.462	
178.00	-51.324	-41.408	
179.00	-49.661	-58.479	
180.00	-48.850	-64.907	
181.00	-51.029	-65.515	
182.00	-58.484	-16.936	
183.00	-49.758	79.993	
184.00	-41.830	85.320	
185.00	-36.982	86.079	
186.00	-33.840	85.629	
187.00	-31.614	84.310	
188.00	-30.165	83.020	
189.00	-29.422	81.377	
190.00	-29.240	80.425	
191.00	-29.606	78.863	
192.00	-30.600	78.265	
193.00	-32.184	78.040	
194.00	-34.477	79.850	
195.00	-37.581	84.166	
196.00	-41.591	94.480	
197.00	-46.027	119.530	
198.00	-48.516	154.818	
199.00	-47.500	178.656	
200.00	-48.015	-172.097	
201.00	-49.994	-161.293	
202.00	-54.793	-151.066	
203.00	-61.263	-88.029	
204.00	-56.395	-23.544	
205.00	-52.653	-10.942	
206.00	-50.866	-3.654	
207.00	-50.176	5.413	
208.00	-50.482	14.578	
209.00	-51.220	30.109	
210.00	-51.062	40.051	
211.00	-51.553	56.048	
212.00	-53.067	68.155	
213.00	-53.110	80.402	
214.00	-53.911	98.190	
215.00	-55.981	115.227	
216.00	-56.848	128.466	
217.00	-56.458	158.623	
218.00	-56.093	172.073	
219.00	-54.951	171.737	
220.00	-55.796	175.512	
221.00	-56.367	173.766	
222.00	-60.201	174.311	
223.00	-65.181	-174.815	
224.00	-69.316	-163.696	
225.00	-74.293	-93.494	
226.00	-70.346	-109.663	
227.00	-73.335	-97.977	
228.00	-74.365	-142.624	
229.00	-73.495	-90.900	
230.00	-78.056	-91.126	
231.00	-77.093	149.799	
232.00	-72.265	141.773	
233.00	-72.644	139.672	
234.00	-71.619	175.686	
235.00	-70.936	156.066	
236.00	-73.483	159.430	
237.00	-75.647	128.884	
238.00	-73.777	111.244	
239.00	-88.847	-1.688	
240.00	-79.765	-6.007	
241.00	-82.963	-31.636	
242.00	-73.553	-68.525	
243.00	-81.130	-173.388	
244.00	-64.791	-96.873	
245.00	-62.759	-93.122	
246.00	-64.241	-107.473	
247.00	-60.091	-115.525	
248.00	-60.442	-120.721	
249.00	-61.271	-138.894	
250.00	-63.328	-159.844	
251.00	-63.655	-172.357	
252.00	-66.301	164.511	
253.00	-65.435	122.316	
254.00	-61.833	103.234	
255.00	-63.756	93.159	
256.00	-62.894	78.271	
257.00	-62.731	66.622	
258.00	-63.566	51.242	
259.00	-63.440	31.291	
260.00	-66.036	5.169	
261.00	-66.939	-10.884	
262.00	-66.309	-24.907	
263.00	-64.499	-43.034	
264.00	-64.781	-62.681	
265.00	-65.908	-71.209	
266.00	-66.179	-81.830	
267.00	-66.639	-116.988	
268.00	-69.110	-113.859	
269.00	-71.201	-144.610	
270.00	-70.978	-162.237	
271.00	-69.773	157.924	
272.00	-69.349	156.831	
273.00	-69.477	143.142	
274.00	-74.821	116.582	
275.00	-76.101	176.589	
276.00	-89.475	-38.089	
277.00	-74.598	-104.525	
278.00	-73.575	-156.273	
279.00	-73.315	-109.036	
280.00	-76.655	-130.401	
281.00	-68.753	-131.533	
282.00	-71.472	-164.978	
283.00	-83.721	175.951	
284.00	-71.962	162.315	
285.00	-76.169	123.174	
286.00	-78.938	-2.524	
287.00	-66.590	58.514	
288.00	-76.319	81.602	
289.00	-70.743	11.831	
290.00	-71.642	51.513	
291.00	-72.424	61.540	
292.00	-70.942	58.150	
293.00	-69.383	78.568	
294.00	-68.692	83.020	
295.00	-67.969	55.838	
296.00	-67.241	44.047	
297.00	-66.492	36.956	
298.00	-64.584	11.121	
299.00	-62.668	-3.777	
300.00	-59.723	-12.975	
301.00	-60.802	-25.863	
302.00	-60.144	-39.075	
303.00	-59.737	-54.501	
304.00	-58.443	-72.319	
305.00	-59.096	-84.746	
306.00	-59.931	-107.021	
307.00	-61.728	-139.835	
308.00	-62.988	-145.204	
309.00	-62.238	-179.386	
310.00	-60.874	140.081	
311.00	-60.819	115.597	
312.00	-61.137	84.256	
313.00	-61.496	71.796	
314.00	-62.819	56.674	
315.00	-64.346	31.333	
316.00	-62.811	30.523	
317.00	-61.619	-6.407	
318.00	-62.356	-8.216	
319.00	-60.585	-9.456	
320.00	-58.864	-9.883	
321.00	-56.665	-1.494	
322.00	-58.284	-13.939	
323.00	-57.526	-30.321	
324.00	-57.995	-48.057	
325.00	-59.912	-50.499	
326.00	-59.506	-80.778	
327.00	-61.337	-96.246	
328.00	-61.078	-112.363	
329.00	-64.904	-125.447	
330.00	-72.788	-90.346	
331.00	-72.361	-60.826	
332.00	-74.929	46.268	
333.00	-64.463	-9.205	
334.00	-70.086	26.149	
335.00	-76.488	-67.434	
336.00	-79.733	-60.866	
337.00	-81.040	108.027	
338.00	-67.971	-43.225	
339.00	-69.779	-60.088	
340.00	-70.701	-51.217	
341.00	-66.603	-48.726	
342.00	-64.313	-56.567	
343.00	-60.725	-93.700	
344.00	-59.397	-101.870	
345.00	-60.076	-110.215	
346.00	-59.994	-131.276	
347.00	-59.630	-121.614	
348.00	-67.930	-129.317	
349.00	-64.962	-134.536	
350.00	-67.689	-151.656	
351.00	-62.042	-89.469	
352.00	-61.090	-84.046	
353.00	-64.759	-35.551	
354.00	-66.408	-71.199	
355.00	-63.940	-54.128	
356.00	-72.496	18.386	
357.00	-62.556	71.158	
358.00	-60.299	68.302	
359.00	-60.481	64.178	
Frequency	2700.00	MHz	
Channel	test		
Scan Axis name	Azimuth  [deg]		
Scan Axis	Amplitude	Phase	
			
0.00	-59.867	174.550	
1.00	-60.859	174.339	
2.00	-62.968	164.842	
3.00	-70.425	-159.909	
4.00	-73.571	-174.620	
5.00	-75.600	-39.350	
6.00	-71.898	-54.608	
7.00	-64.944	-59.589	
8.00	-68.549	-39.947	
9.00	-72.268	-71.271	
10.00	-72.255	-103.013	
11.00	-69.971	-153.678	
12.00	-72.091	179.808	
13.00	-71.357	-157.242	
14.00	-76.260	-155.723	
15.00	-80.300	-173.081	
16.00	-94.369	75.546	
17.00	-83.412	41.674	
18.00	-73.533	83.662	
19.00	-72.819	91.031	
20.00	-67.502	120.079	
21.00	-64.004	133.945	
22.00	-61.984	152.402	
23.00	-61.148	174.480	
24.00	-60.755	176.007	
25.00	-62.786	-145.837	
26.00	-61.918	-146.765	
27.00	-63.672	-133.303	
28.00	-64.283	-103.468	
29.00	-66.386	-71.143	
30.00	-65.570	-82.649	
31.00	-65.974	-54.515	
32.00	-67.490	-39.360	
33.00	-81.133	104.774	
34.00	-70.262	-171.918	
35.00	-64.015	-162.807	
36.00	-61.323	-139.101	
37.00	-60.528	-114.747	
38.00	-65.104	-98.355	
39.00	-69.182	-34.342	
40.00	-73.600	50.455	
41.00	-65.925	120.870	
42.00	-61.766	150.589	
43.00	-61.088	174.456	
44.00	-60.027	-165.342	
45.00	-60.651	-144.525	
46.00	-62.393	-131.980	
47.00	-63.914	-132.900	
48.00	-66.925	-98.747	
49.00	-74.177	-101.310	
50.00	-77.386	-61.420	
51.00	-67.801	52.094	
52.00	-62.709	51.675	
53.00	-61.068	82.237	
54.00	-60.883	93.083	
55.00	-61.905	119.556	
56.00	-65.789	147.881	
57.00	-66.732	-121.268	
58.00	-64.652	-57.575	
59.00	-62.859	-24.493	
60.00	-59.801	12.883	
61.00	-58.722	54.324	
62.00	-57.614	86.183	
63.00	-57.087	116.761	
64.00	-57.439	149.307	
65.00	-58.385	-178.488	
66.00	-58.818	-135.046	
67.00	-60.559	-88.386	
68.00	-60.735	-41.681	
69.00	-58.898	3.537	
70.00	-58.728	44.923	
71.00	-57.322	74.365	
72.00	-55.994	119.613	
73.00	-54.249	147.710	
74.00	-52.691	-178.575	
75.00	-53.033	-156.033	
76.00	-52.831	-128.655	
77.00	-53.789	-99.404	
78.00	-53.900	-69.909	
79.00	-54.111	-36.190	
80.00	-54.365	-5.116	
81.00	-53.787	27.792	
82.00	-52.686	55.597	
83.00	-53.605	86.920	
84.00	-53.298	110.817	
85.00	-53.333	146.885	
86.00	-53.570	172.732	
87.00	-53.502	-161.829	
88.00	-53.030	-121.629	
89.00	-52.062	-95.805	
90.00	-53.131	-57.801	
91.00	-50.829	-45.128	
92.00	-50.325	-5.836	
93.00	-52.777	10.781	
94.00	-51.609	48.723	
95.00	-49.429	45.634	
96.00	-49.166	94.510	
97.00	-47.706	107.226	
98.00	-47.624	139.771	
99.00	-47.387	158.817	
100.00	-47.782	179.977	
101.00	-47.217	-142.620	
102.00	-46.659	-112.405	
103.00	-46.497	-86.968	
104.00	-45.743	-61.848	
105.00	-45.239	-33.278	
106.00	-44.512	-12.448	
107.00	-43.887	13.626	
108.00	-43.241	35.071	
109.00	-42.623	60.955	
110.00	-42.212	80.676	
111.00	-41.992	104.495	
112.00	-41.817	126.207	
113.00	-42.000	148.073	
114.00	-42.147	172.478	
115.00	-42.302	-166.353	
116.00	-42.695	-141.564	
117.00	-43.120	-118.545	
118.00	-43.474	-93.850	
119.00	-43.468	-69.729	
120.00	-44.189	-46.164	
121.00	-45.031	-25.981	
122.00	-46.118	-6.637	
123.00	-47.980	9.666	
124.00	-51.246	25.135	
125.00	-57.366	49.482	
126.00	-76.595	137.955	
127.00	-58.890	-143.751	
128.00	-56.443	-120.678	
129.00	-55.277	-111.599	
130.00	-56.298	-96.458	
131.00	-57.447	-93.601	
132.00	-70.830	-92.493	
133.00	-75.665	-54.296	
134.00	-72.653	-160.006	
135.00	-63.525	-179.154	
136.00	-59.771	-130.654	
137.00	-60.595	-102.082	
138.00	-59.944	-85.438	
139.00	-60.316	-75.576	
140.00	-68.347	-23.203	
141.00	-68.644	51.976	
142.00	-62.489	98.952	
143.00	-60.600	129.753	
144.00	-59.157	140.910	
145.00	-60.254	154.701	
146.00	-60.262	166.425	
147.00	-67.878	-177.229	
148.00	-74.249	174.403	
149.00	-73.520	68.152	
150.00	-62.292	54.431	
151.00	-61.110	78.938	
152.00	-60.484	90.964	
153.00	-59.323	119.884	
154.00	-60.286	151.522	
155.00	-59.208	170.305	
156.00	-60.660	-170.736	
157.00	-61.965	-158.876	
158.00	-70.561	-134.338	
159.00	-71.373	-89.156	
160.00	-74.930	-55.626	
161.00	-83.976	-35.894	
162.00	-71.767	174.814	
163.00	-65.231	-176.105	
164.00	-63.276	-168.423	
165.00	-62.245	-146.695	
166.00	-65.095	-136.713	
167.00	-66.446	-87.151	
168.00	-63.806	-26.872	
169.00	-58.875	-6.519	
170.00	-54.781	-6.309	
171.00	-53.881	-1.969	
172.00	-54.328	-5.026	
173.00	-55.760	-8.719	
174.00	-60.718	-36.293	
175.00	-67.510	-58.312	
176.00	-69.847	-169.106	
177.00	-61.889	138.033	
178.00	-58.621	116.003	
179.00	-54.824	112.461	
180.00	-52.327	107.038	
181.00	-51.982	106.322	
182.00	-54.519	113.433	
183.00	-59.919	167.729	
184.00	-50.799	-130.308	
185.00	-44.507	-121.249	
186.00	-40.443	-117.427	
187.00	-37.462	-119.177	
188.00	-35.490	-120.105	
189.00	-34.393	-121.436	
190.00	-34.024	-123.947	
191.00	-34.195	-125.219	
192.00	-35.096	-127.097	
193.00	-36.603	-128.182	
194.00	-39.036	-128.029	
195.00	-42.376	-124.947	
196.00	-46.862	-114.951	
197.00	-51.389	-85.372	
198.00	-52.160	-52.260	
199.00	-51.392	-34.799	
200.00	-52.598	-36.009	
201.00	-57.367	-42.358	
202.00	-65.127	-94.095	
203.00	-58.661	-179.268	
204.00	-54.548	155.619	
205.00	-52.823	146.065	
206.00	-52.794	139.391	
207.00	-54.262	138.022	
208.00	-58.096	141.265	
209.00	-67.796	171.421	
210.00	-65.427	-88.415	
211.00	-59.492	-78.577	
212.00	-57.605	-77.565	
213.00	-57.560	-61.919	
214.00	-57.743	-39.827	
215.00	-55.514	-18.017	
216.00	-53.336	-11.087	
217.00	-50.807	-11.080	
218.00	-50.644	-13.892	
219.00	-50.737	-21.416	
220.00	-51.505	-28.334	
221.00	-52.488	-27.695	
222.00	-58.898	-33.310	
223.00	-58.141	-15.330	
224.00	-64.995	3.179	
225.00	-59.082	26.099	
226.00	-60.046	30.613	
227.00	-59.753	18.972	
228.00	-58.482	1.815	
229.00	-58.682	-7.812	
230.00	-58.072	-30.817	
231.00	-59.605	-33.320	
232.00	-60.118	-61.592	
233.00	-62.082	-71.683	
234.00	-64.725	-98.533	
235.00	-65.685	-109.284	
236.00	-64.457	-124.624	
237.00	-68.275	-140.114	
238.00	-65.945	-169.483	
239.00	-65.299	171.350	
240.00	-62.421	158.074	
241.00	-62.114	134.692	
242.00	-61.520	120.256	
243.00	-57.858	91.398	
244.00	-59.159	70.067	
245.00	-57.627	59.774	
246.00	-56.737	36.225	
247.00	-57.652	19.466	
248.00	-57.154	-1.610	
249.00	-58.265	-27.700	
250.00	-60.525	-57.266	
251.00	-60.781	-79.472	
252.00	-60.484	-113.766	
253.00	-61.456	-143.091	
254.00	-61.081	-161.023	
255.00	-61.413	174.414	
256.00	-62.866	155.369	
257.00	-63.459	137.025	
258.00	-62.842	119.800	
259.00	-70.049	99.253	
260.00	-72.729	70.230	
261.00	-77.559	89.926	
262.00	-80.285	-139.334	
263.00	-70.229	-127.228	
264.00	-68.116	-147.914	
265.00	-68.587	-169.062	
266.00	-66.387	-173.940	
267.00	-66.898	161.680	
268.00	-68.405	150.755	
269.00	-69.575	158.408	
270.00	-74.993	140.703	
271.00	-81.841	5.560	
272.00	-81.232	178.406	
273.00	-74.981	116.364	
274.00	-81.875	139.161	
275.00	-80.510	-171.118	
276.00	-71.414	121.016	
277.00	-73.894	166.135	
278.00	-68.998	151.471	
279.00	-74.426	137.847	
280.00	-66.988	112.113	
281.00	-68.071	104.432	
282.00	-68.825	85.633	
283.00	-68.654	97.071	
284.00	-68.121	78.328	
285.00	-70.271	61.383	
286.00	-68.002	68.992	
287.00	-70.015	72.236	
288.00	-69.700	55.818	
289.00	-69.916	83.881	
290.00	-68.382	84.533	
291.00	-72.516	82.727	
292.00	-72.057	40.010	
293.00	-69.928	31.276	
294.00	-74.641	-12.547	
295.00	-75.256	21.168	
296.00	-72.060	-30.962	
297.00	-80.905	-48.099	
298.00	-77.552	-141.355	
299.00	-72.075	-174.544	
300.00	-67.031	-176.572	
301.00	-63.538	156.852	
302.00	-64.530	146.237	
303.00	-62.102	134.589	
304.00	-62.451	121.586	
305.00	-62.185	101.375	
306.00	-62.931	84.891	
307.00	-64.598	56.804	
308.00	-63.946	50.430	
309.00	-65.455	13.418	
310.00	-64.411	15.853	
311.00	-65.369	-3.164	
312.00	-69.164	-6.720	
313.00	-70.095	-52.366	
314.00	-74.910	-34.671	
315.00	-78.063	-73.066	
316.00	-92.068	111.289	
317.00	-70.038	87.113	
318.00	-69.567	88.988	
319.00	-69.982	74.673	
320.00	-67.752	71.445	
321.00	-71.136	64.442	
322.00	-71.975	36.446	
323.00	-74.315	32.800	
324.00	-72.180	29.294	
325.00	-73.342	-19.132	
326.00	-76.121	2.339	
327.00	-76.420	32.250	
328.00	-75.546	70.078	
329.00	-70.952	93.451	
330.00	-67.466	58.580	
331.00	-65.825	39.666	
332.00	-65.262	17.986	
333.00	-66.654	-1.966	
334.00	-68.451	-37.769	
335.00	-72.778	-58.937	
336.00	-74.028	-161.146	
337.00	-66.957	153.763	
338.00	-64.840	112.642	
339.00	-64.170	98.973	
340.00	-59.471	92.633	
341.00	-60.649	87.383	
342.00	-62.047	81.496	
343.00	-64.602	67.236	
344.00	-78.704	40.317	
345.00	-81.907	-102.599	
346.00	-67.594	-91.736	
347.00	-64.846	-90.925	
348.00	-63.573	-97.638	
349.00	-63.169	-105.393	
350.00	-65.239	-91.249	
351.00	-64.478	-68.047	
352.00	-69.451	-39.030	
353.00	-67.522	8.963	
354.00	-71.475	-22.428	
355.00	-72.199	28.573	
356.00	-89.000	39.863	
357.00	-70.792	-167.627	
358.00	-64.513	-170.537	
359.00	-62.974	176.901	
