Test Title:	Alpha Wireless Indoor Range						
Date:	03/11/2017						
Time:	09:42						
Operator Name:	FL						
Comment:	Version 2 Run 2
Cable length changed						
Caib. File Name:	C:\Program Files\Midas 2.01d\Calibration Files\test sigma 180900.cal						
							
[Scan Axis] Name: 	Azimuth  [deg]Start: 	0.000000	Stop	359.000000	Increment	1.000000[Step Axis] Name: 	Start: 	0.000000	Stop	0.000000	Increment	0.000000[Tert] Name: 	None [Forth] Name: 	None  [ Freq.]  (List) 	MHz.	1694.000000	1710.000000	1800.000000	1850.000000	1950.000000	2050.000000	2170.000000	2300.000000	2350.000000	2400.000000	2450.000000	2496.000000	2550.000000	2600.000000	2650.000000	2700.000000
 [Switch]  	None [Channel]  	test			 [ Beam] 	None			
Database:			
First Question			
2nd			
3rd			
4th			
			
Frequency	1694.00	MHz	
Channel	test		
Scan Axis name	Azimuth  [deg]		
Scan Axis	Amplitude	Phase	
			
0.00	-56.095	-146.639	
1.00	-56.889	-144.331	
2.00	-57.989	-130.226	
3.00	-58.983	-122.387	
4.00	-58.904	-108.285	
5.00	-59.700	-93.635	
6.00	-59.932	-66.531	
7.00	-58.640	-53.032	
8.00	-57.330	-32.686	
9.00	-56.139	-26.034	
10.00	-54.892	-10.278	
11.00	-52.946	-5.100	
12.00	-52.105	2.764	
13.00	-51.079	8.562	
14.00	-50.483	15.349	
15.00	-49.493	19.221	
16.00	-49.001	26.983	
17.00	-48.532	26.914	
18.00	-48.085	36.268	
19.00	-47.933	38.490	
20.00	-47.584	45.079	
21.00	-47.500	51.487	
22.00	-47.305	57.542	
23.00	-47.160	64.268	
24.00	-47.298	70.561	
25.00	-47.168	81.772	
26.00	-47.272	88.283	
27.00	-47.090	101.334	
28.00	-47.728	109.123	
29.00	-47.675	118.786	
30.00	-47.957	131.964	
31.00	-47.766	144.508	
32.00	-47.887	152.959	
33.00	-48.378	168.244	
34.00	-48.686	-178.013	
35.00	-47.997	-166.784	
36.00	-47.916	-153.557	
37.00	-47.660	-131.706	
38.00	-47.602	-124.071	
39.00	-47.432	-108.838	
40.00	-46.767	-99.876	
41.00	-46.703	-88.454	
42.00	-46.473	-69.470	
43.00	-46.134	-63.221	
44.00	-45.726	-51.596	
45.00	-45.204	-45.193	
46.00	-45.292	-36.081	
47.00	-46.045	-23.036	
48.00	-46.019	-7.746	
49.00	-45.727	3.833	
50.00	-46.648	21.239	
51.00	-46.326	33.914	
52.00	-47.113	50.309	
53.00	-47.043	65.210	
54.00	-46.859	84.098	
55.00	-47.386	97.748	
56.00	-47.567	114.456	
57.00	-47.399	132.844	
58.00	-47.285	149.161	
59.00	-47.423	159.405	
60.00	-46.830	173.985	
61.00	-46.795	-161.809	
62.00	-46.903	-149.976	
63.00	-45.904	-137.629	
64.00	-46.445	-116.019	
65.00	-46.137	-94.287	
66.00	-45.824	-87.071	
67.00	-45.102	-66.369	
68.00	-44.872	-59.133	
69.00	-45.076	-39.714	
70.00	-44.700	-24.035	
71.00	-44.706	-10.333	
72.00	-44.311	-0.162	
73.00	-44.523	19.705	
74.00	-44.590	29.954	
75.00	-43.829	51.181	
76.00	-43.284	62.501	
77.00	-44.068	88.180	
78.00	-43.637	92.014	
79.00	-42.893	102.428	
80.00	-42.590	115.427	
81.00	-42.183	134.456	
82.00	-42.410	149.820	
83.00	-42.232	169.338	
84.00	-43.017	175.052	
85.00	-42.332	-164.295	
86.00	-42.009	-153.966	
87.00	-42.041	-137.652	
88.00	-42.462	-117.714	
89.00	-42.233	-103.133	
90.00	-42.038	-84.214	
91.00	-41.262	-67.199	
92.00	-41.435	-55.093	
93.00	-41.240	-38.457	
94.00	-40.818	-24.536	
95.00	-40.465	-6.485	
96.00	-40.026	9.845	
97.00	-40.230	20.763	
98.00	-39.612	43.461	
99.00	-39.223	65.938	
100.00	-39.009	76.232	
101.00	-38.298	90.337	
102.00	-38.199	101.214	
103.00	-37.836	119.978	
104.00	-37.311	131.664	
105.00	-37.246	144.709	
106.00	-36.770	159.216	
107.00	-36.417	169.341	
108.00	-36.147	-176.263	
109.00	-35.884	-162.405	
110.00	-35.878	-148.945	
111.00	-35.561	-139.039	
112.00	-35.151	-128.201	
113.00	-35.044	-116.939	
114.00	-34.506	-102.126	
115.00	-34.242	-91.541	
116.00	-34.007	-80.193	
117.00	-33.762	-68.276	
118.00	-33.407	-55.197	
119.00	-33.184	-43.579	
120.00	-32.855	-32.586	
121.00	-32.662	-23.019	
122.00	-32.393	-10.983	
123.00	-32.077	-0.645	
124.00	-31.879	7.071	
125.00	-31.643	22.291	
126.00	-31.400	26.525	
127.00	-31.162	41.374	
128.00	-30.932	50.622	
129.00	-30.667	61.370	
130.00	-30.422	72.549	
131.00	-30.199	79.439	
132.00	-29.965	88.923	
133.00	-29.697	96.861	
134.00	-29.455	105.936	
135.00	-29.257	111.634	
136.00	-29.041	119.814	
137.00	-28.857	126.920	
138.00	-28.651	137.453	
139.00	-28.475	146.578	
140.00	-28.320	154.390	
141.00	-28.138	166.129	
142.00	-27.935	173.027	
143.00	-27.750	-176.520	
144.00	-27.588	-171.238	
145.00	-27.434	-162.884	
146.00	-27.310	-157.781	
147.00	-27.159	-154.066	
148.00	-27.007	-148.204	
149.00	-26.862	-141.121	
150.00	-26.746	-136.808	
151.00	-26.620	-130.555	
152.00	-26.540	-128.118	
153.00	-26.451	-114.829	
154.00	-26.388	-117.889	
155.00	-26.335	-108.151	
156.00	-26.279	-110.911	
157.00	-26.226	-102.287	
158.00	-26.211	-102.906	
159.00	-26.195	-96.261	
160.00	-26.200	-99.178	
161.00	-26.172	-89.920	
162.00	-26.174	-89.466	
163.00	-26.189	-86.084	
164.00	-26.233	-87.634	
165.00	-26.235	-87.867	
166.00	-26.264	-80.557	
167.00	-26.267	-80.878	
168.00	-26.331	-80.576	
169.00	-26.356	-81.950	
170.00	-26.387	-81.312	
171.00	-26.451	-81.150	
172.00	-26.443	-80.819	
173.00	-26.452	-80.181	
174.00	-26.507	-79.113	
175.00	-26.520	-77.308	
176.00	-26.567	-79.353	
177.00	-26.620	-83.839	
178.00	-26.651	-87.583	
179.00	-26.676	-85.735	
180.00	-26.739	-92.009	
181.00	-26.776	-90.467	
182.00	-26.827	-97.804	
183.00	-26.879	-95.689	
184.00	-26.928	-96.814	
185.00	-26.988	-101.780	
186.00	-27.052	-107.138	
187.00	-27.105	-107.746	
188.00	-27.200	-113.303	
189.00	-27.282	-119.923	
190.00	-27.372	-125.737	
191.00	-27.486	-131.414	
192.00	-27.601	-133.422	
193.00	-27.714	-141.150	
194.00	-27.868	-145.400	
195.00	-28.046	-149.988	
196.00	-28.215	-156.369	
197.00	-28.420	-161.015	
198.00	-28.639	-168.859	
199.00	-28.893	-172.190	
200.00	-29.149	-179.731	
201.00	-29.426	176.060	
202.00	-29.724	167.909	
203.00	-30.025	162.741	
204.00	-30.349	154.062	
205.00	-30.692	148.903	
206.00	-31.047	138.987	
207.00	-31.433	132.382	
208.00	-31.757	127.913	
209.00	-32.118	112.216	
210.00	-32.508	109.983	
211.00	-32.895	97.628	
212.00	-33.334	91.882	
213.00	-33.730	83.396	
214.00	-34.170	70.708	
215.00	-34.644	65.176	
216.00	-35.116	54.843	
217.00	-35.688	45.374	
218.00	-36.266	36.668	
219.00	-36.844	23.330	
220.00	-37.542	15.878	
221.00	-38.236	6.884	
222.00	-38.963	-5.649	
223.00	-39.716	-15.485	
224.00	-40.592	-28.106	
225.00	-41.545	-38.861	
226.00	-42.422	-50.519	
227.00	-43.352	-67.235	
228.00	-44.253	-80.538	
229.00	-45.123	-94.998	
230.00	-45.986	-113.057	
231.00	-46.663	-128.984	
232.00	-47.553	-142.135	
233.00	-48.502	-156.902	
234.00	-49.330	-174.802	
235.00	-50.142	169.352	
236.00	-51.409	150.794	
237.00	-52.123	130.991	
238.00	-53.732	111.909	
239.00	-54.392	79.305	
240.00	-54.831	56.959	
241.00	-54.056	26.274	
242.00	-53.693	9.939	
243.00	-52.667	-9.216	
244.00	-52.288	-26.418	
245.00	-51.726	-40.730	
246.00	-51.417	-52.057	
247.00	-51.333	-69.285	
248.00	-51.844	-80.122	
249.00	-51.931	-96.779	
250.00	-52.397	-112.704	
251.00	-53.125	-126.994	
252.00	-53.496	-148.120	
253.00	-53.716	-164.337	
254.00	-53.792	179.021	
255.00	-53.789	156.251	
256.00	-54.122	139.697	
257.00	-53.494	122.914	
258.00	-54.026	110.987	
259.00	-54.141	96.633	
260.00	-54.643	80.598	
261.00	-55.396	70.729	
262.00	-56.590	55.254	
263.00	-57.904	36.611	
264.00	-60.116	11.083	
265.00	-60.286	-9.485	
266.00	-61.420	-42.616	
267.00	-60.622	-62.234	
268.00	-59.152	-94.095	
269.00	-58.995	-114.495	
270.00	-57.891	-131.070	
271.00	-57.047	-148.975	
272.00	-56.442	-168.404	
273.00	-56.022	173.397	
274.00	-55.456	156.121	
275.00	-55.256	142.896	
276.00	-55.258	128.208	
277.00	-54.013	108.038	
278.00	-54.289	97.021	
279.00	-53.675	79.793	
280.00	-53.335	65.939	
281.00	-53.240	52.650	
282.00	-52.855	38.596	
283.00	-52.887	27.837	
284.00	-52.788	8.821	
285.00	-53.352	-7.984	
286.00	-53.546	-20.561	
287.00	-54.428	-34.474	
288.00	-55.381	-52.118	
289.00	-55.637	-71.041	
290.00	-55.819	-90.262	
291.00	-56.181	-110.168	
292.00	-56.070	-133.421	
293.00	-55.712	-145.150	
294.00	-55.161	-159.576	
295.00	-54.375	-177.469	
296.00	-54.264	171.407	
297.00	-53.408	157.170	
298.00	-53.524	143.644	
299.00	-53.448	127.773	
300.00	-53.202	113.347	
301.00	-53.081	96.983	
302.00	-53.288	87.211	
303.00	-53.151	66.082	
304.00	-52.954	51.229	
305.00	-52.625	34.965	
306.00	-52.189	20.757	
307.00	-51.604	9.116	
308.00	-51.304	-3.043	
309.00	-51.133	-16.452	
310.00	-51.362	-25.308	
311.00	-51.042	-36.546	
312.00	-51.250	-45.113	
313.00	-51.476	-55.892	
314.00	-51.809	-64.145	
315.00	-52.121	-76.907	
316.00	-52.966	-85.988	
317.00	-53.828	-97.784	
318.00	-54.295	-107.979	
319.00	-54.602	-120.401	
320.00	-54.602	-138.554	
321.00	-54.761	-152.019	
322.00	-54.447	-162.199	
323.00	-54.495	-173.838	
324.00	-54.279	178.024	
325.00	-54.164	172.974	
326.00	-54.651	163.940	
327.00	-54.529	153.845	
328.00	-54.899	148.108	
329.00	-55.978	143.328	
330.00	-56.885	136.034	
331.00	-57.648	128.552	
332.00	-58.257	122.728	
333.00	-60.150	120.945	
334.00	-61.423	117.466	
335.00	-63.803	115.158	
336.00	-66.382	101.339	
337.00	-70.061	101.219	
338.00	-73.841	139.350	
339.00	-75.660	-175.390	
340.00	-74.242	-150.305	
341.00	-69.731	-146.512	
342.00	-67.494	-139.904	
343.00	-64.048	-152.127	
344.00	-63.628	-152.852	
345.00	-61.659	-156.404	
346.00	-60.374	-154.540	
347.00	-58.838	-163.084	
348.00	-57.952	-166.150	
349.00	-56.910	-166.166	
350.00	-56.274	-167.491	
351.00	-55.922	-167.996	
352.00	-55.288	-166.511	
353.00	-54.955	-173.717	
354.00	-54.725	-169.961	
355.00	-54.783	-172.848	
356.00	-54.785	-167.199	
357.00	-55.240	-164.269	
358.00	-54.905	-162.002	
359.00	-55.689	-156.263	
Frequency	1710.00	MHz	
Channel	test		
Scan Axis name	Azimuth  [deg]		
Scan Axis	Amplitude	Phase	
			
0.00	-56.715	-158.146	
1.00	-58.534	-156.896	
2.00	-58.480	-154.517	
3.00	-61.419	-139.805	
4.00	-62.001	-112.207	
5.00	-61.308	-108.395	
6.00	-60.973	-75.178	
7.00	-58.633	-56.381	
8.00	-57.576	-40.294	
9.00	-55.845	-35.279	
10.00	-55.076	-25.397	
11.00	-53.783	-23.017	
12.00	-52.131	-15.911	
13.00	-51.485	-2.928	
14.00	-50.352	4.873	
15.00	-50.082	5.792	
16.00	-48.976	11.558	
17.00	-48.497	12.869	
18.00	-48.134	19.776	
19.00	-47.413	26.957	
20.00	-47.206	30.679	
21.00	-46.791	35.764	
22.00	-46.470	40.793	
23.00	-46.367	48.567	
24.00	-46.188	53.769	
25.00	-46.232	61.215	
26.00	-45.867	67.380	
27.00	-45.968	76.701	
28.00	-46.071	84.805	
29.00	-46.424	95.041	
30.00	-47.241	103.953	
31.00	-47.401	112.752	
32.00	-48.058	127.095	
33.00	-48.619	141.318	
34.00	-48.475	151.999	
35.00	-48.397	175.462	
36.00	-48.825	-176.765	
37.00	-48.131	-153.410	
38.00	-48.084	-137.583	
39.00	-47.461	-127.467	
40.00	-47.220	-114.352	
41.00	-46.517	-105.770	
42.00	-46.051	-88.870	
43.00	-46.002	-82.424	
44.00	-45.707	-66.473	
45.00	-44.883	-58.288	
46.00	-44.393	-49.607	
47.00	-44.943	-41.121	
48.00	-44.591	-28.039	
49.00	-45.341	-13.822	
50.00	-45.738	0.968	
51.00	-45.807	12.502	
52.00	-45.377	38.680	
53.00	-46.582	50.413	
54.00	-46.737	66.007	
55.00	-47.358	77.149	
56.00	-47.026	97.954	
57.00	-45.948	113.554	
58.00	-45.838	136.665	
59.00	-45.828	144.491	
60.00	-45.484	158.209	
61.00	-44.849	174.923	
62.00	-45.445	-171.908	
63.00	-44.713	-152.253	
64.00	-44.212	-140.950	
65.00	-44.530	-122.595	
66.00	-44.250	-113.153	
67.00	-44.335	-91.215	
68.00	-44.921	-82.638	
69.00	-45.442	-64.064	
70.00	-44.621	-44.592	
71.00	-44.749	-29.388	
72.00	-44.029	-11.606	
73.00	-45.137	3.833	
74.00	-44.549	25.036	
75.00	-44.429	36.738	
76.00	-43.178	50.790	
77.00	-42.433	71.799	
78.00	-42.789	84.440	
79.00	-41.775	93.434	
80.00	-41.775	106.986	
81.00	-42.060	128.563	
82.00	-41.371	143.711	
83.00	-40.557	155.329	
84.00	-40.239	169.349	
85.00	-40.126	175.952	
86.00	-40.146	-165.598	
87.00	-40.005	-151.628	
88.00	-40.123	-138.792	
89.00	-39.998	-121.445	
90.00	-40.044	-109.054	
91.00	-40.251	-83.063	
92.00	-40.570	-70.936	
93.00	-40.304	-56.446	
94.00	-39.942	-42.134	
95.00	-39.578	-17.976	
96.00	-39.540	0.140	
97.00	-39.504	10.425	
98.00	-38.862	31.186	
99.00	-38.051	51.707	
100.00	-37.873	65.032	
101.00	-37.269	79.346	
102.00	-36.502	87.460	
103.00	-36.628	106.509	
104.00	-36.475	117.409	
105.00	-35.989	129.873	
106.00	-35.881	146.613	
107.00	-35.470	153.874	
108.00	-35.129	170.374	
109.00	-35.020	-176.135	
110.00	-35.013	-164.162	
111.00	-34.757	-153.047	
112.00	-34.635	-141.181	
113.00	-34.407	-129.570	
114.00	-34.302	-116.256	
115.00	-34.013	-106.605	
116.00	-33.757	-92.387	
117.00	-33.582	-80.297	
118.00	-33.276	-68.485	
119.00	-32.950	-56.059	
120.00	-32.785	-43.479	
121.00	-32.780	-33.777	
122.00	-32.197	-21.858	
123.00	-31.820	-11.350	
124.00	-31.743	-4.549	
125.00	-31.367	12.679	
126.00	-31.271	17.299	
127.00	-31.022	31.280	
128.00	-30.731	40.945	
129.00	-30.629	51.051	
130.00	-30.448	62.670	
131.00	-30.122	70.146	
132.00	-29.912	79.020	
133.00	-29.781	87.327	
134.00	-29.535	96.147	
135.00	-29.353	101.982	
136.00	-29.209	110.997	
137.00	-28.932	118.188	
138.00	-28.773	129.040	
139.00	-28.657	138.580	
140.00	-28.407	145.840	
141.00	-28.256	157.952	
142.00	-28.084	164.955	
143.00	-27.896	175.509	
144.00	-27.773	-179.294	
145.00	-27.635	-170.657	
146.00	-27.485	-165.513	
147.00	-27.369	-161.935	
148.00	-27.264	-156.250	
149.00	-27.169	-148.975	
150.00	-27.078	-144.609	
151.00	-27.000	-138.060	
152.00	-26.931	-135.728	
153.00	-26.849	-122.269	
154.00	-26.802	-125.337	
155.00	-26.770	-115.444	
156.00	-26.744	-118.184	
157.00	-26.703	-109.365	
158.00	-26.698	-109.865	
159.00	-26.700	-103.220	
160.00	-26.680	-105.943	
161.00	-26.666	-96.711	
162.00	-26.678	-95.824	
163.00	-26.652	-92.530	
164.00	-26.676	-93.868	
165.00	-26.670	-94.102	
166.00	-26.707	-86.644	
167.00	-26.745	-86.962	
168.00	-26.781	-86.663	
169.00	-26.826	-88.192	
170.00	-26.824	-87.155	
171.00	-26.870	-86.986	
172.00	-26.897	-86.070	
173.00	-26.937	-85.595	
174.00	-27.001	-84.668	
175.00	-27.037	-82.361	
176.00	-27.095	-84.376	
177.00	-27.111	-88.890	
178.00	-27.147	-92.564	
179.00	-27.190	-90.345	
180.00	-27.236	-96.470	
181.00	-27.283	-94.818	
182.00	-27.317	-101.894	
183.00	-27.400	-99.730	
184.00	-27.427	-100.696	
185.00	-27.502	-105.077	
186.00	-27.569	-110.480	
187.00	-27.638	-110.684	
188.00	-27.760	-116.336	
189.00	-27.836	-122.474	
190.00	-27.926	-128.060	
191.00	-28.094	-133.418	
192.00	-28.187	-135.375	
193.00	-28.337	-142.571	
194.00	-28.549	-146.763	
195.00	-28.749	-151.019	
196.00	-28.955	-157.074	
197.00	-29.176	-161.705	
198.00	-29.372	-169.169	
199.00	-29.618	-172.215	
200.00	-29.934	-179.119	
201.00	-30.234	177.123	
202.00	-30.548	169.326	
203.00	-30.868	164.886	
204.00	-31.280	156.789	
205.00	-31.664	152.213	
206.00	-32.039	142.764	
207.00	-32.509	136.560	
208.00	-32.944	132.811	
209.00	-33.343	117.691	
210.00	-33.927	115.869	
211.00	-34.388	104.634	
212.00	-34.950	99.536	
213.00	-35.595	91.510	
214.00	-36.200	79.273	
215.00	-36.909	74.336	
216.00	-37.589	65.038	
217.00	-38.433	55.832	
218.00	-39.144	47.157	
219.00	-39.994	34.291	
220.00	-40.947	26.400	
221.00	-41.957	18.687	
222.00	-43.138	6.085	
223.00	-44.156	-3.427	
224.00	-45.397	-14.790	
225.00	-46.919	-25.043	
226.00	-48.360	-34.707	
227.00	-50.444	-48.756	
228.00	-52.537	-58.007	
229.00	-55.094	-71.429	
230.00	-58.776	-85.115	
231.00	-63.764	-92.503	
232.00	-87.634	-118.802	
233.00	-66.848	82.583	
234.00	-63.365	57.824	
235.00	-58.462	43.827	
236.00	-56.738	23.601	
237.00	-54.789	13.346	
238.00	-53.415	0.726	
239.00	-52.142	-20.202	
240.00	-50.902	-28.864	
241.00	-50.322	-45.108	
242.00	-49.565	-56.154	
243.00	-49.007	-66.097	
244.00	-48.800	-80.001	
245.00	-48.487	-93.188	
246.00	-48.269	-108.050	
247.00	-48.028	-122.815	
248.00	-48.278	-134.339	
249.00	-48.311	-149.389	
250.00	-48.153	-163.229	
251.00	-48.050	-175.779	
252.00	-48.201	165.203	
253.00	-48.481	152.304	
254.00	-48.158	138.546	
255.00	-47.995	121.676	
256.00	-48.201	109.331	
257.00	-48.068	94.081	
258.00	-48.363	80.511	
259.00	-48.434	66.703	
260.00	-48.353	48.943	
261.00	-48.732	40.725	
262.00	-49.281	22.496	
263.00	-49.794	11.307	
264.00	-50.342	-6.091	
265.00	-50.460	-20.643	
266.00	-51.537	-39.105	
267.00	-51.873	-53.873	
268.00	-51.732	-69.088	
269.00	-51.965	-83.334	
270.00	-51.250	-100.382	
271.00	-51.716	-114.639	
272.00	-51.651	-129.441	
273.00	-52.766	-148.360	
274.00	-52.699	-161.277	
275.00	-52.927	-171.681	
276.00	-54.724	175.713	
277.00	-55.409	152.756	
278.00	-56.330	144.828	
279.00	-57.961	121.684	
280.00	-58.293	102.423	
281.00	-59.469	80.284	
282.00	-59.190	67.755	
283.00	-58.807	38.039	
284.00	-61.724	-0.721	
285.00	-62.068	-28.895	
286.00	-57.805	-48.237	
287.00	-58.947	-74.852	
288.00	-56.127	-83.320	
289.00	-55.740	-97.466	
290.00	-55.579	-119.850	
291.00	-56.171	-120.695	
292.00	-55.189	-139.487	
293.00	-54.392	-142.931	
294.00	-55.213	-155.095	
295.00	-56.272	-164.931	
296.00	-57.665	179.802	
297.00	-59.706	169.180	
298.00	-59.370	149.325	
299.00	-60.918	114.618	
300.00	-62.202	87.086	
301.00	-59.542	53.083	
302.00	-58.040	41.803	
303.00	-57.979	25.772	
304.00	-55.507	5.321	
305.00	-54.622	-8.336	
306.00	-54.330	-19.245	
307.00	-54.099	-35.298	
308.00	-53.574	-44.740	
309.00	-53.869	-64.136	
310.00	-52.796	-69.093	
311.00	-53.102	-85.423	
312.00	-52.470	-94.054	
313.00	-52.137	-107.152	
314.00	-52.066	-118.610	
315.00	-51.880	-129.871	
316.00	-51.566	-140.046	
317.00	-51.362	-148.896	
318.00	-51.813	-158.991	
319.00	-51.704	-171.060	
320.00	-52.126	-179.465	
321.00	-52.278	172.553	
322.00	-53.134	158.165	
323.00	-53.309	144.969	
324.00	-53.748	137.954	
325.00	-54.202	121.666	
326.00	-54.218	109.231	
327.00	-53.948	93.681	
328.00	-53.752	84.121	
329.00	-53.488	72.061	
330.00	-52.775	60.612	
331.00	-52.959	57.180	
332.00	-53.239	45.778	
333.00	-53.515	42.582	
334.00	-53.487	36.141	
335.00	-54.283	32.025	
336.00	-55.495	28.004	
337.00	-57.018	24.608	
338.00	-58.849	20.961	
339.00	-60.200	23.558	
340.00	-63.168	21.692	
341.00	-69.065	-6.623	
342.00	-77.874	-1.996	
343.00	-73.564	-152.605	
344.00	-66.029	-164.536	
345.00	-61.860	-172.008	
346.00	-60.115	-170.600	
347.00	-57.706	-171.196	
348.00	-56.132	-173.797	
349.00	-55.129	179.953	
350.00	-54.333	-174.757	
351.00	-53.980	-178.384	
352.00	-53.399	-179.582	
353.00	-53.551	178.059	
354.00	-53.187	178.800	
355.00	-53.191	174.039	
356.00	-53.454	-179.113	
357.00	-54.221	-178.753	
358.00	-54.802	-179.245	
359.00	-55.290	-173.305	
Frequency	1800.00	MHz	
Channel	test		
Scan Axis name	Azimuth  [deg]		
Scan Axis	Amplitude	Phase	
			
0.00	-58.168	-102.299	
1.00	-58.751	-111.374	
2.00	-59.841	-102.767	
3.00	-60.234	-107.045	
4.00	-60.910	-99.856	
5.00	-61.724	-99.790	
6.00	-61.526	-94.283	
7.00	-62.652	-85.779	
8.00	-63.767	-72.176	
9.00	-65.295	-58.494	
10.00	-65.521	-45.547	
11.00	-64.912	-25.011	
12.00	-64.506	-7.130	
13.00	-63.812	4.820	
14.00	-62.504	23.085	
15.00	-61.103	29.532	
16.00	-60.199	43.414	
17.00	-59.354	50.190	
18.00	-58.649	58.658	
19.00	-58.185	67.401	
20.00	-57.304	69.029	
21.00	-56.585	73.323	
22.00	-55.951	80.560	
23.00	-55.826	85.870	
24.00	-54.915	88.809	
25.00	-54.490	94.390	
26.00	-53.937	96.273	
27.00	-54.753	95.770	
28.00	-54.555	107.307	
29.00	-54.709	109.881	
30.00	-55.423	110.670	
31.00	-55.973	116.771	
32.00	-57.784	125.441	
33.00	-59.422	127.867	
34.00	-62.458	151.436	
35.00	-69.263	-165.777	
36.00	-75.443	-132.053	
37.00	-66.246	-91.455	
38.00	-62.149	-35.794	
39.00	-60.146	-44.079	
40.00	-59.360	-34.586	
41.00	-57.698	-27.207	
42.00	-56.729	-13.145	
43.00	-56.743	-5.944	
44.00	-54.598	0.675	
45.00	-54.721	9.747	
46.00	-53.762	16.779	
47.00	-54.784	28.162	
48.00	-53.270	46.625	
49.00	-52.867	62.118	
50.00	-53.385	76.023	
51.00	-52.541	95.489	
52.00	-53.459	99.239	
53.00	-51.396	109.183	
54.00	-53.616	120.532	
55.00	-52.125	138.351	
56.00	-52.207	144.092	
57.00	-51.022	170.338	
58.00	-53.034	176.168	
59.00	-53.082	-160.356	
60.00	-52.936	-157.892	
61.00	-53.977	-128.781	
62.00	-52.769	-105.992	
63.00	-53.614	-91.723	
64.00	-52.219	-73.190	
65.00	-53.712	-74.196	
66.00	-51.425	-37.503	
67.00	-52.173	-16.117	
68.00	-52.201	-10.124	
69.00	-51.458	10.191	
70.00	-51.013	19.566	
71.00	-49.917	44.074	
72.00	-50.721	50.134	
73.00	-50.398	66.646	
74.00	-50.187	83.284	
75.00	-48.650	92.563	
76.00	-49.137	109.727	
77.00	-49.119	131.130	
78.00	-49.244	133.231	
79.00	-49.193	142.706	
80.00	-49.303	166.217	
81.00	-49.087	-171.118	
82.00	-47.754	-152.780	
83.00	-47.479	-138.235	
84.00	-48.233	-127.198	
85.00	-48.750	-107.810	
86.00	-46.481	-97.654	
87.00	-46.314	-69.933	
88.00	-47.264	-61.558	
89.00	-46.556	-50.323	
90.00	-46.455	-22.759	
91.00	-46.311	-6.196	
92.00	-47.017	9.484	
93.00	-45.628	23.738	
94.00	-46.409	36.812	
95.00	-45.040	66.125	
96.00	-44.672	75.400	
97.00	-44.319	89.573	
98.00	-43.400	113.298	
99.00	-43.223	131.807	
100.00	-43.135	145.367	
101.00	-42.768	161.312	
102.00	-42.158	170.077	
103.00	-41.646	-173.484	
104.00	-41.179	-159.764	
105.00	-41.349	-145.245	
106.00	-40.863	-130.572	
107.00	-40.601	-119.324	
108.00	-40.544	-103.798	
109.00	-40.017	-87.653	
110.00	-39.769	-77.125	
111.00	-39.574	-64.465	
112.00	-39.631	-56.194	
113.00	-39.456	-43.721	
114.00	-38.963	-28.383	
115.00	-39.128	-19.202	
116.00	-38.792	-5.902	
117.00	-38.845	7.219	
118.00	-38.467	20.588	
119.00	-38.400	33.856	
120.00	-38.185	46.406	
121.00	-37.673	58.013	
122.00	-37.494	68.634	
123.00	-37.202	81.235	
124.00	-36.772	90.105	
125.00	-36.602	105.049	
126.00	-36.345	111.010	
127.00	-35.974	125.945	
128.00	-35.588	136.888	
129.00	-35.168	146.490	
130.00	-34.923	158.875	
131.00	-34.537	164.808	
132.00	-34.130	174.382	
133.00	-33.778	-177.672	
134.00	-33.401	-168.915	
135.00	-33.078	-163.483	
136.00	-32.734	-155.981	
137.00	-32.444	-148.377	
138.00	-32.200	-138.870	
139.00	-32.017	-129.147	
140.00	-31.710	-121.783	
141.00	-31.458	-109.456	
142.00	-31.218	-103.325	
143.00	-31.013	-92.187	
144.00	-30.808	-86.455	
145.00	-30.539	-77.554	
146.00	-30.371	-72.689	
147.00	-30.121	-68.899	
148.00	-29.925	-62.365	
149.00	-29.707	-54.274	
150.00	-29.477	-49.247	
151.00	-29.266	-42.367	
152.00	-29.054	-39.550	
153.00	-28.838	-24.888	
154.00	-28.658	-27.587	
155.00	-28.440	-17.030	
156.00	-28.257	-19.649	
157.00	-28.058	-10.019	
158.00	-27.886	-10.199	
159.00	-27.739	-2.867	
160.00	-27.610	-5.436	
161.00	-27.467	4.362	
162.00	-27.354	5.482	
163.00	-27.261	8.982	
164.00	-27.176	7.960	
165.00	-27.123	7.997	
166.00	-27.072	16.195	
167.00	-27.027	15.931	
168.00	-27.010	16.720	
169.00	-26.976	15.196	
170.00	-26.967	16.426	
171.00	-26.997	17.375	
172.00	-26.977	18.365	
173.00	-27.044	18.973	
174.00	-27.062	20.114	
175.00	-27.053	22.965	
176.00	-27.115	20.770	
177.00	-27.160	16.256	
178.00	-27.172	12.236	
179.00	-27.208	14.565	
180.00	-27.222	8.297	
181.00	-27.259	9.685	
182.00	-27.317	2.361	
183.00	-27.366	3.815	
184.00	-27.396	2.843	
185.00	-27.439	-2.229	
186.00	-27.483	-8.394	
187.00	-27.508	-9.022	
188.00	-27.567	-15.639	
189.00	-27.595	-22.535	
190.00	-27.652	-29.058	
191.00	-27.713	-35.603	
192.00	-27.773	-38.245	
193.00	-27.822	-46.561	
194.00	-27.896	-51.863	
195.00	-27.962	-56.842	
196.00	-28.032	-64.094	
197.00	-28.174	-69.935	
198.00	-28.256	-77.857	
199.00	-28.369	-81.754	
200.00	-28.477	-90.087	
201.00	-28.625	-94.829	
202.00	-28.766	-103.425	
203.00	-28.941	-109.045	
204.00	-29.125	-118.046	
205.00	-29.329	-123.484	
206.00	-29.509	-133.889	
207.00	-29.749	-140.884	
208.00	-29.981	-145.100	
209.00	-30.214	-161.981	
210.00	-30.472	-164.308	
211.00	-30.737	-176.910	
212.00	-31.018	176.874	
213.00	-31.270	168.106	
214.00	-31.576	154.285	
215.00	-31.894	147.742	
216.00	-32.180	137.320	
217.00	-32.507	126.940	
218.00	-32.779	117.591	
219.00	-33.110	102.939	
220.00	-33.507	95.094	
221.00	-33.884	86.068	
222.00	-34.217	73.062	
223.00	-34.646	62.358	
224.00	-35.002	50.227	
225.00	-35.383	40.611	
226.00	-35.791	30.269	
227.00	-36.253	15.763	
228.00	-36.775	5.327	
229.00	-37.158	-5.991	
230.00	-37.638	-21.143	
231.00	-38.177	-32.119	
232.00	-38.682	-44.348	
233.00	-39.152	-55.357	
234.00	-39.784	-69.712	
235.00	-40.376	-81.472	
236.00	-41.042	-95.531	
237.00	-41.663	-106.503	
238.00	-42.299	-117.882	
239.00	-43.150	-138.720	
240.00	-44.052	-147.641	
241.00	-44.847	-163.395	
242.00	-45.841	-175.666	
243.00	-46.841	174.044	
244.00	-47.912	160.931	
245.00	-49.251	144.939	
246.00	-50.500	129.169	
247.00	-51.817	111.193	
248.00	-53.128	100.332	
249.00	-54.009	78.593	
250.00	-55.640	58.020	
251.00	-56.931	47.490	
252.00	-58.362	26.580	
253.00	-58.488	12.198	
254.00	-58.790	6.894	
255.00	-60.639	-4.747	
256.00	-61.661	-11.105	
257.00	-63.670	-20.301	
258.00	-63.715	-12.534	
259.00	-63.940	-7.732	
260.00	-63.947	-17.043	
261.00	-65.675	-12.148	
262.00	-65.863	-2.959	
263.00	-64.924	-6.531	
264.00	-64.906	-22.421	
265.00	-63.457	-41.012	
266.00	-63.715	-52.839	
267.00	-62.032	-76.076	
268.00	-60.765	-91.526	
269.00	-59.748	-107.536	
270.00	-59.801	-123.314	
271.00	-58.427	-135.792	
272.00	-57.822	-156.206	
273.00	-57.329	-173.114	
274.00	-56.515	170.856	
275.00	-56.184	160.873	
276.00	-56.188	148.313	
277.00	-55.826	129.965	
278.00	-56.508	121.686	
279.00	-55.358	100.701	
280.00	-55.553	90.725	
281.00	-55.364	72.424	
282.00	-55.273	58.464	
283.00	-55.185	39.398	
284.00	-55.643	16.339	
285.00	-55.613	-3.737	
286.00	-55.299	-25.948	
287.00	-55.185	-43.241	
288.00	-54.480	-61.513	
289.00	-54.333	-79.266	
290.00	-53.439	-93.002	
291.00	-52.876	-107.811	
292.00	-52.024	-120.417	
293.00	-51.809	-128.296	
294.00	-51.510	-137.425	
295.00	-51.286	-150.355	
296.00	-51.147	-160.703	
297.00	-51.263	-172.933	
298.00	-51.295	179.293	
299.00	-51.717	166.986	
300.00	-52.589	155.035	
301.00	-53.219	140.593	
302.00	-54.206	130.777	
303.00	-55.022	112.375	
304.00	-55.472	93.514	
305.00	-56.338	76.851	
306.00	-56.151	56.503	
307.00	-57.100	34.009	
308.00	-57.458	18.222	
309.00	-57.049	-0.997	
310.00	-56.709	-15.605	
311.00	-56.872	-36.558	
312.00	-55.733	-44.004	
313.00	-55.877	-64.571	
314.00	-55.602	-73.199	
315.00	-55.078	-90.725	
316.00	-56.098	-92.991	
317.00	-56.050	-104.972	
318.00	-56.116	-113.049	
319.00	-56.481	-123.441	
320.00	-57.429	-133.852	
321.00	-58.281	-142.383	
322.00	-59.974	-148.343	
323.00	-63.099	-168.620	
324.00	-64.176	172.085	
325.00	-66.356	142.392	
326.00	-67.494	100.342	
327.00	-65.236	75.270	
328.00	-62.219	46.941	
329.00	-60.460	41.374	
330.00	-58.314	28.106	
331.00	-56.667	21.904	
332.00	-55.578	12.344	
333.00	-54.675	7.678	
334.00	-54.110	0.267	
335.00	-53.338	-6.811	
336.00	-53.033	-12.030	
337.00	-52.680	-16.789	
338.00	-52.657	-25.319	
339.00	-52.088	-26.028	
340.00	-52.420	-32.660	
341.00	-52.136	-37.011	
342.00	-52.136	-42.030	
343.00	-51.878	-45.051	
344.00	-53.045	-53.688	
345.00	-53.116	-59.179	
346.00	-53.353	-59.467	
347.00	-53.851	-68.481	
348.00	-53.875	-70.972	
349.00	-54.468	-75.172	
350.00	-54.552	-82.037	
351.00	-55.466	-87.872	
352.00	-55.257	-92.196	
353.00	-55.589	-98.602	
354.00	-55.731	-102.799	
355.00	-56.323	-110.410	
356.00	-56.698	-108.067	
357.00	-56.929	-112.231	
358.00	-57.532	-113.611	
359.00	-57.105	-111.052	
Frequency	1850.00	MHz	
Channel	test		
Scan Axis name	Azimuth  [deg]		
Scan Axis	Amplitude	Phase	
			
0.00	-57.687	99.294	
1.00	-57.614	89.543	
2.00	-56.718	90.300	
3.00	-56.292	84.461	
4.00	-55.386	82.846	
5.00	-54.860	80.462	
6.00	-54.534	80.107	
7.00	-53.883	79.381	
8.00	-53.569	79.372	
9.00	-53.097	78.545	
10.00	-53.201	84.550	
11.00	-52.908	87.370	
12.00	-52.493	94.361	
13.00	-52.803	96.135	
14.00	-52.604	103.235	
15.00	-52.364	104.781	
16.00	-52.580	111.576	
17.00	-52.338	111.996	
18.00	-52.415	118.157	
19.00	-52.634	123.578	
20.00	-53.073	125.583	
21.00	-53.206	130.496	
22.00	-54.063	136.480	
23.00	-54.083	142.876	
24.00	-54.788	147.644	
25.00	-55.682	158.113	
26.00	-56.529	166.770	
27.00	-57.859	-179.023	
28.00	-58.558	-165.779	
29.00	-58.753	-144.841	
30.00	-58.848	-125.087	
31.00	-58.838	-108.657	
32.00	-58.236	-95.052	
33.00	-57.457	-80.709	
34.00	-56.687	-69.386	
35.00	-56.851	-57.212	
36.00	-56.729	-48.139	
37.00	-56.851	-32.082	
38.00	-57.024	-23.046	
39.00	-57.266	-12.867	
40.00	-57.026	-2.164	
41.00	-57.303	7.532	
42.00	-58.083	21.140	
43.00	-57.954	31.283	
44.00	-58.147	46.553	
45.00	-58.746	61.117	
46.00	-58.820	69.294	
47.00	-60.341	84.607	
48.00	-60.860	104.257	
49.00	-63.313	125.843	
50.00	-64.755	144.790	
51.00	-63.974	-178.289	
52.00	-65.835	-144.158	
53.00	-62.437	-109.788	
54.00	-60.461	-87.543	
55.00	-58.701	-68.729	
56.00	-56.449	-55.403	
57.00	-54.718	-40.396	
58.00	-53.550	-32.004	
59.00	-53.703	-21.438	
60.00	-52.029	-15.665	
61.00	-51.642	-3.420	
62.00	-50.669	3.254	
63.00	-51.773	20.501	
64.00	-52.282	29.858	
65.00	-53.159	43.668	
66.00	-54.811	51.191	
67.00	-55.043	76.937	
68.00	-55.895	94.808	
69.00	-56.827	123.237	
70.00	-56.269	157.302	
71.00	-54.760	177.275	
72.00	-52.963	-159.943	
73.00	-51.309	-140.890	
74.00	-49.946	-133.830	
75.00	-48.971	-116.658	
76.00	-48.377	-110.080	
77.00	-47.487	-94.501	
78.00	-47.240	-86.590	
79.00	-46.838	-77.209	
80.00	-46.592	-67.137	
81.00	-46.625	-48.588	
82.00	-46.464	-34.754	
83.00	-46.750	-22.972	
84.00	-46.755	-9.321	
85.00	-46.814	6.857	
86.00	-46.397	30.265	
87.00	-46.497	44.343	
88.00	-46.330	66.346	
89.00	-45.983	79.177	
90.00	-45.668	97.588	
91.00	-45.149	118.706	
92.00	-44.767	128.377	
93.00	-44.869	144.766	
94.00	-44.754	160.893	
95.00	-44.122	-178.955	
96.00	-43.796	-160.375	
97.00	-43.420	-147.137	
98.00	-42.852	-125.053	
99.00	-42.386	-104.803	
100.00	-41.862	-91.144	
101.00	-41.467	-75.763	
102.00	-40.972	-67.150	
103.00	-40.635	-49.836	
104.00	-40.368	-35.860	
105.00	-39.968	-22.410	
106.00	-39.824	-6.347	
107.00	-39.730	3.657	
108.00	-39.489	20.093	
109.00	-39.395	35.480	
110.00	-39.274	49.554	
111.00	-39.093	63.396	
112.00	-38.760	73.194	
113.00	-38.521	87.524	
114.00	-38.361	102.909	
115.00	-38.124	116.447	
116.00	-37.707	128.858	
117.00	-37.351	142.595	
118.00	-36.987	155.812	
119.00	-36.646	168.658	
120.00	-36.364	-179.648	
121.00	-36.001	-168.672	
122.00	-35.760	-157.342	
123.00	-35.465	-144.696	
124.00	-35.206	-136.920	
125.00	-34.991	-120.651	
126.00	-34.688	-115.217	
127.00	-34.399	-100.805	
128.00	-34.118	-90.333	
129.00	-33.888	-80.568	
130.00	-33.554	-67.701	
131.00	-33.379	-60.954	
132.00	-33.040	-50.832	
133.00	-32.803	-42.750	
134.00	-32.579	-33.489	
135.00	-32.274	-27.372	
136.00	-31.986	-18.410	
137.00	-31.791	-11.281	
138.00	-31.482	-0.463	
139.00	-31.244	9.750	
140.00	-30.972	17.052	
141.00	-30.731	29.879	
142.00	-30.493	35.876	
143.00	-30.232	47.104	
144.00	-30.032	52.351	
145.00	-29.767	60.926	
146.00	-29.539	66.080	
147.00	-29.305	69.527	
148.00	-29.113	75.427	
149.00	-28.909	83.353	
150.00	-28.720	87.533	
151.00	-28.520	94.256	
152.00	-28.347	97.012	
153.00	-28.196	111.500	
154.00	-28.023	108.230	
155.00	-27.853	118.916	
156.00	-27.669	116.000	
157.00	-27.550	125.804	
158.00	-27.389	125.368	
159.00	-27.259	132.813	
160.00	-27.130	130.377	
161.00	-26.997	140.291	
162.00	-26.874	141.371	
163.00	-26.780	144.827	
164.00	-26.681	143.887	
165.00	-26.586	143.879	
166.00	-26.529	152.768	
167.00	-26.446	152.250	
168.00	-26.405	153.339	
169.00	-26.355	151.612	
170.00	-26.313	153.012	
171.00	-26.269	153.884	
172.00	-26.245	155.104	
173.00	-26.221	155.756	
174.00	-26.261	156.759	
175.00	-26.241	159.984	
176.00	-26.255	157.614	
177.00	-26.252	153.296	
178.00	-26.244	149.040	
179.00	-26.270	151.620	
180.00	-26.281	145.265	
181.00	-26.311	146.920	
182.00	-26.337	139.715	
183.00	-26.386	141.022	
184.00	-26.411	140.340	
185.00	-26.457	135.280	
186.00	-26.490	129.151	
187.00	-26.551	128.639	
188.00	-26.595	121.766	
189.00	-26.663	114.868	
190.00	-26.730	108.357	
191.00	-26.801	101.785	
192.00	-26.877	98.903	
193.00	-26.963	90.253	
194.00	-27.042	84.771	
195.00	-27.149	79.442	
196.00	-27.228	72.067	
197.00	-27.350	65.653	
198.00	-27.442	57.562	
199.00	-27.567	52.957	
200.00	-27.692	44.258	
201.00	-27.823	39.095	
202.00	-27.953	30.150	
203.00	-28.108	24.292	
204.00	-28.264	14.773	
205.00	-28.439	8.728	
206.00	-28.621	-1.920	
207.00	-28.842	-9.023	
208.00	-29.033	-13.805	
209.00	-29.236	-31.412	
210.00	-29.480	-33.704	
211.00	-29.727	-46.385	
212.00	-29.956	-53.187	
213.00	-30.244	-61.616	
214.00	-30.555	-75.618	
215.00	-30.891	-82.326	
216.00	-31.227	-92.480	
217.00	-31.573	-103.129	
218.00	-31.864	-112.628	
219.00	-32.352	-127.485	
220.00	-32.790	-136.033	
221.00	-33.212	-145.241	
222.00	-33.682	-158.913	
223.00	-34.153	-170.355	
224.00	-34.619	176.781	
225.00	-35.098	165.700	
226.00	-35.558	154.728	
227.00	-36.066	139.010	
228.00	-36.446	126.845	
229.00	-36.862	114.593	
230.00	-37.348	98.202	
231.00	-37.859	86.423	
232.00	-38.348	73.348	
233.00	-38.893	61.489	
234.00	-39.481	45.810	
235.00	-40.068	33.353	
236.00	-40.703	17.003	
237.00	-41.358	4.961	
238.00	-42.056	-7.995	
239.00	-42.834	-30.890	
240.00	-43.552	-42.698	
241.00	-44.293	-61.151	
242.00	-45.140	-74.905	
243.00	-45.693	-89.726	
244.00	-46.302	-105.835	
245.00	-46.915	-123.604	
246.00	-47.317	-136.840	
247.00	-48.000	-155.529	
248.00	-48.753	-165.695	
249.00	-49.422	-179.184	
250.00	-50.495	168.164	
251.00	-51.752	159.331	
252.00	-53.526	145.830	
253.00	-55.425	137.863	
254.00	-58.348	129.653	
255.00	-62.349	105.053	
256.00	-68.195	91.198	
257.00	-74.358	7.149	
258.00	-70.361	-29.276	
259.00	-64.082	-69.120	
260.00	-64.116	-84.900	
261.00	-62.924	-97.925	
262.00	-64.336	-112.291	
263.00	-63.908	-124.828	
264.00	-67.186	-131.560	
265.00	-67.905	-152.553	
266.00	-76.931	-161.515	
267.00	-75.147	118.080	
268.00	-71.043	76.044	
269.00	-68.610	47.765	
270.00	-66.780	29.517	
271.00	-66.452	5.582	
272.00	-66.267	-10.343	
273.00	-61.913	-105.486	
274.00	-65.355	-65.706	
275.00	-63.012	-85.086	
276.00	-61.857	-102.468	
277.00	-59.437	-124.761	
278.00	-58.570	-131.686	
279.00	-56.482	-145.995	
280.00	-56.037	-155.146	
281.00	-54.621	-162.677	
282.00	-54.928	-170.228	
283.00	-54.838	-179.521	
284.00	-55.003	169.776	
285.00	-55.530	157.975	
286.00	-56.714	151.329	
287.00	-57.935	143.094	
288.00	-59.057	132.501	
289.00	-60.847	114.054	
290.00	-63.217	96.045	
291.00	-65.771	67.527	
292.00	-65.471	31.030	
293.00	-64.334	11.535	
294.00	-64.384	-0.475	
295.00	-61.503	-24.295	
296.00	-61.377	-32.415	
297.00	-60.856	-38.397	
298.00	-61.318	-44.859	
299.00	-60.866	-49.027	
300.00	-60.663	-67.715	
301.00	-62.351	-53.579	
302.00	-63.977	-47.595	
303.00	-64.563	-26.014	
304.00	-66.117	-8.052	
305.00	-64.307	6.186	
306.00	-62.326	12.212	
307.00	-60.527	21.341	
308.00	-59.634	25.498	
309.00	-57.815	21.271	
310.00	-56.565	11.516	
311.00	-56.239	10.717	
312.00	-55.613	8.785	
313.00	-55.427	5.625	
314.00	-54.919	4.003	
315.00	-54.793	-1.227	
316.00	-55.223	-2.925	
317.00	-54.462	-8.348	
318.00	-54.879	-12.248	
319.00	-54.782	-11.017	
320.00	-54.930	-12.638	
321.00	-55.263	-13.193	
322.00	-55.405	-12.328	
323.00	-56.139	-13.805	
324.00	-56.212	-7.975	
325.00	-56.514	-5.697	
326.00	-56.957	-4.180	
327.00	-57.185	-1.289	
328.00	-57.139	2.010	
329.00	-57.406	3.539	
330.00	-57.501	6.020	
331.00	-57.694	12.072	
332.00	-57.863	9.425	
333.00	-57.743	11.695	
334.00	-58.196	15.678	
335.00	-58.300	18.263	
336.00	-59.056	19.968	
337.00	-59.141	25.293	
338.00	-59.568	24.172	
339.00	-60.508	28.257	
340.00	-60.905	26.857	
341.00	-62.246	32.212	
342.00	-63.269	34.127	
343.00	-63.996	39.021	
344.00	-65.564	46.650	
345.00	-66.719	53.653	
346.00	-66.484	70.482	
347.00	-68.140	73.123	
348.00	-66.696	90.373	
349.00	-66.548	100.148	
350.00	-67.347	118.272	
351.00	-65.977	108.355	
352.00	-65.178	115.525	
353.00	-64.259	117.934	
354.00	-62.079	115.465	
355.00	-61.907	110.417	
356.00	-60.828	113.080	
357.00	-59.806	107.650	
358.00	-59.129	101.687	
359.00	-58.200	96.069	
Frequency	1950.00	MHz	
Channel	test		
Scan Axis name	Azimuth  [deg]		
Scan Axis	Amplitude	Phase	
			
0.00	-70.037	-29.174	
1.00	-71.270	-47.199	
2.00	-70.837	-35.988	
3.00	-73.312	-52.183	
4.00	-70.640	-35.924	
5.00	-73.516	-53.010	
6.00	-71.313	-24.114	
7.00	-70.598	-16.910	
8.00	-67.397	-32.161	
9.00	-67.665	-28.127	
10.00	-62.837	-17.345	
11.00	-62.462	-17.382	
12.00	-61.151	-17.230	
13.00	-60.275	-12.684	
14.00	-58.410	-12.355	
15.00	-58.792	-8.966	
16.00	-57.996	-10.487	
17.00	-57.151	-12.482	
18.00	-56.981	-8.109	
19.00	-56.279	-9.550	
20.00	-56.753	-9.190	
21.00	-56.147	-5.822	
22.00	-56.794	-3.572	
23.00	-56.763	-2.608	
24.00	-57.369	0.242	
25.00	-58.376	2.165	
26.00	-59.545	7.309	
27.00	-60.984	12.989	
28.00	-63.263	21.873	
29.00	-66.265	40.171	
30.00	-70.345	71.969	
31.00	-69.616	125.019	
32.00	-64.820	144.298	
33.00	-62.407	162.590	
34.00	-59.968	171.331	
35.00	-58.780	174.463	
36.00	-58.046	-175.268	
37.00	-57.384	-170.982	
38.00	-56.943	-166.577	
39.00	-56.454	-157.479	
40.00	-56.777	-154.280	
41.00	-57.321	-144.459	
42.00	-58.011	-137.973	
43.00	-59.075	-129.308	
44.00	-59.974	-121.298	
45.00	-60.511	-105.909	
46.00	-60.829	-94.419	
47.00	-62.273	-76.389	
48.00	-62.779	-50.178	
49.00	-62.715	-31.372	
50.00	-61.145	-7.624	
51.00	-60.806	-8.890	
52.00	-62.601	13.031	
53.00	-62.589	13.103	
54.00	-63.639	29.053	
55.00	-65.204	41.525	
56.00	-66.521	54.285	
57.00	-72.709	52.598	
58.00	-79.611	74.500	
59.00	-80.768	-76.223	
60.00	-70.243	-123.249	
61.00	-69.640	-96.078	
62.00	-68.485	-74.824	
63.00	-64.134	-73.414	
64.00	-63.014	-60.469	
65.00	-61.670	-37.805	
66.00	-60.679	-22.438	
67.00	-60.437	-12.510	
68.00	-60.054	3.242	
69.00	-57.679	6.171	
70.00	-58.335	30.275	
71.00	-57.190	49.611	
72.00	-57.039	60.265	
73.00	-57.156	70.128	
74.00	-57.292	82.139	
75.00	-59.074	97.341	
76.00	-58.553	121.440	
77.00	-58.475	139.628	
78.00	-58.967	158.295	
79.00	-58.170	174.931	
80.00	-58.446	-171.681	
81.00	-56.367	-141.161	
82.00	-57.029	-122.788	
83.00	-54.866	-111.691	
84.00	-54.132	-96.098	
85.00	-53.380	-81.783	
86.00	-52.794	-63.739	
87.00	-51.532	-48.644	
88.00	-51.269	-32.840	
89.00	-50.716	-19.938	
90.00	-50.856	-3.707	
91.00	-50.344	14.370	
92.00	-49.666	24.581	
93.00	-49.546	43.057	
94.00	-49.763	56.494	
95.00	-49.608	72.555	
96.00	-50.204	93.079	
97.00	-49.777	105.938	
98.00	-49.366	135.518	
99.00	-49.807	159.284	
100.00	-48.769	179.145	
101.00	-48.266	-159.009	
102.00	-47.690	-147.010	
103.00	-46.757	-129.484	
104.00	-45.926	-114.757	
105.00	-44.929	-98.099	
106.00	-44.387	-81.942	
107.00	-43.623	-71.271	
108.00	-43.111	-54.600	
109.00	-42.815	-38.613	
110.00	-42.399	-25.789	
111.00	-41.925	-13.319	
112.00	-41.612	-2.395	
113.00	-41.182	12.271	
114.00	-40.652	27.645	
115.00	-40.323	40.669	
116.00	-39.763	52.991	
117.00	-39.408	67.925	
118.00	-38.960	79.785	
119.00	-38.647	93.992	
120.00	-38.059	105.860	
121.00	-37.869	116.982	
122.00	-37.421	129.222	
123.00	-37.288	142.891	
124.00	-36.977	150.150	
125.00	-36.569	164.281	
126.00	-36.423	172.245	
127.00	-36.219	-173.633	
128.00	-35.880	-161.820	
129.00	-35.730	-150.392	
130.00	-35.515	-136.734	
131.00	-35.268	-129.247	
132.00	-35.045	-117.363	
133.00	-34.787	-108.937	
134.00	-34.537	-98.674	
135.00	-34.281	-91.697	
136.00	-34.014	-81.870	
137.00	-33.737	-73.651	
138.00	-33.520	-62.397	
139.00	-33.241	-51.123	
140.00	-33.039	-42.468	
141.00	-32.731	-28.447	
142.00	-32.485	-22.439	
143.00	-32.154	-10.527	
144.00	-31.903	-5.075	
145.00	-31.608	3.900	
146.00	-31.421	9.510	
147.00	-31.226	12.919	
148.00	-31.011	19.038	
149.00	-30.815	27.236	
150.00	-30.588	31.644	
151.00	-30.441	38.106	
152.00	-30.263	41.078	
153.00	-30.112	55.698	
154.00	-29.916	52.839	
155.00	-29.765	63.244	
156.00	-29.619	60.071	
157.00	-29.460	70.000	
158.00	-29.307	69.587	
159.00	-29.173	77.143	
160.00	-29.038	74.347	
161.00	-28.932	84.503	
162.00	-28.825	85.531	
163.00	-28.719	89.144	
164.00	-28.614	88.141	
165.00	-28.501	88.173	
166.00	-28.418	97.383	
167.00	-28.311	96.679	
168.00	-28.258	97.895	
169.00	-28.190	95.911	
170.00	-28.105	97.330	
171.00	-28.110	98.902	
172.00	-28.061	99.910	
173.00	-28.043	100.775	
174.00	-28.035	101.791	
175.00	-28.015	105.402	
176.00	-28.064	102.737	
177.00	-28.072	98.294	
178.00	-28.115	93.610	
179.00	-28.166	96.537	
180.00	-28.214	90.174	
181.00	-28.252	91.764	
182.00	-28.331	84.485	
183.00	-28.411	85.543	
184.00	-28.495	85.103	
185.00	-28.554	79.849	
186.00	-28.673	73.159	
187.00	-28.718	72.635	
188.00	-28.851	64.823	
189.00	-28.950	57.500	
190.00	-29.056	50.383	
191.00	-29.163	43.240	
192.00	-29.291	39.682	
193.00	-29.404	30.571	
194.00	-29.525	24.268	
195.00	-29.588	18.471	
196.00	-29.766	10.261	
197.00	-29.841	2.868	
198.00	-29.982	-5.166	
199.00	-30.116	-10.898	
200.00	-30.236	-20.441	
201.00	-30.364	-26.426	
202.00	-30.496	-35.993	
203.00	-30.656	-42.435	
204.00	-30.795	-52.744	
205.00	-30.944	-59.928	
206.00	-31.149	-70.941	
207.00	-31.321	-79.300	
208.00	-31.551	-83.915	
209.00	-31.722	-102.831	
210.00	-32.047	-105.770	
211.00	-32.300	-119.176	
212.00	-32.563	-126.210	
213.00	-32.864	-135.911	
214.00	-33.149	-151.436	
215.00	-33.447	-159.040	
216.00	-33.816	-169.887	
217.00	-34.132	178.490	
218.00	-34.528	167.521	
219.00	-34.875	151.534	
220.00	-35.280	141.684	
221.00	-35.629	131.815	
222.00	-36.079	116.604	
223.00	-36.394	104.074	
224.00	-36.787	90.400	
225.00	-37.206	78.059	
226.00	-37.555	66.431	
227.00	-37.942	50.147	
228.00	-38.349	37.318	
229.00	-38.660	24.368	
230.00	-39.107	7.242	
231.00	-39.438	-4.990	
232.00	-40.036	-19.973	
233.00	-40.543	-33.145	
234.00	-41.132	-49.680	
235.00	-41.703	-64.413	
236.00	-42.171	-83.377	
237.00	-42.707	-97.337	
238.00	-43.029	-112.813	
239.00	-43.337	-137.530	
240.00	-43.543	-151.612	
241.00	-43.785	-169.590	
242.00	-44.047	176.768	
243.00	-44.496	164.284	
244.00	-44.971	148.811	
245.00	-45.331	132.965	
246.00	-45.907	120.552	
247.00	-46.633	100.715	
248.00	-47.258	89.748	
249.00	-48.189	72.334	
250.00	-49.048	54.456	
251.00	-49.546	41.150	
252.00	-50.360	23.113	
253.00	-50.902	5.741	
254.00	-51.164	-5.253	
255.00	-52.089	-31.387	
256.00	-52.809	-40.551	
257.00	-53.578	-62.687	
258.00	-54.413	-75.279	
259.00	-55.315	-92.227	
260.00	-57.024	-109.524	
261.00	-57.331	-125.525	
262.00	-57.563	-144.971	
263.00	-59.522	-164.923	
264.00	-59.358	175.956	
265.00	-61.441	167.306	
266.00	-61.940	139.751	
267.00	-63.650	117.568	
268.00	-64.177	102.641	
269.00	-64.484	72.066	
270.00	-66.095	51.760	
271.00	-64.750	24.913	
272.00	-62.948	1.511	
273.00	-63.177	-19.657	
274.00	-60.350	-32.398	
275.00	-59.944	-42.276	
276.00	-59.857	-50.233	
277.00	-58.929	-59.656	
278.00	-59.335	-61.121	
279.00	-59.573	-71.201	
280.00	-60.183	-72.026	
281.00	-60.374	-77.238	
282.00	-59.620	-80.715	
283.00	-59.378	-76.429	
284.00	-60.955	-81.915	
285.00	-61.454	-81.008	
286.00	-63.583	-73.792	
287.00	-62.370	-78.514	
288.00	-62.441	-81.313	
289.00	-62.188	-87.218	
290.00	-61.074	-92.219	
291.00	-61.319	-95.243	
292.00	-60.368	-106.604	
293.00	-60.056	-108.603	
294.00	-59.998	-120.203	
295.00	-60.161	-126.116	
296.00	-58.720	-138.219	
297.00	-58.359	-143.326	
298.00	-58.040	-155.146	
299.00	-58.811	-167.618	
300.00	-58.571	-178.856	
301.00	-58.747	173.738	
302.00	-59.213	164.587	
303.00	-59.930	143.690	
304.00	-60.240	135.191	
305.00	-59.969	117.589	
306.00	-61.308	106.364	
307.00	-61.092	101.861	
308.00	-62.720	81.949	
309.00	-61.849	63.841	
310.00	-63.372	45.409	
311.00	-63.023	38.701	
312.00	-63.211	16.220	
313.00	-63.824	2.812	
314.00	-64.622	-17.085	
315.00	-64.206	-33.514	
316.00	-63.708	-39.622	
317.00	-64.738	-53.968	
318.00	-65.009	-63.302	
319.00	-65.101	-83.696	
320.00	-67.189	-89.902	
321.00	-66.468	-104.151	
322.00	-68.173	-110.053	
323.00	-69.282	-99.907	
324.00	-71.826	-116.750	
325.00	-72.418	-113.414	
326.00	-73.716	-120.775	
327.00	-76.210	-158.222	
328.00	-78.481	-113.693	
329.00	-78.569	-72.237	
330.00	-77.703	-10.509	
331.00	-74.530	-27.861	
332.00	-71.434	-14.314	
333.00	-68.496	-29.690	
334.00	-66.761	-14.733	
335.00	-66.352	-27.604	
336.00	-63.873	-23.043	
337.00	-64.167	-26.460	
338.00	-62.505	-26.176	
339.00	-62.091	-21.396	
340.00	-60.395	-23.581	
341.00	-60.583	-23.673	
342.00	-59.624	-23.062	
343.00	-59.400	-19.481	
344.00	-59.048	-19.421	
345.00	-58.791	-21.957	
346.00	-59.435	-16.747	
347.00	-59.770	-17.171	
348.00	-59.381	-12.851	
349.00	-60.176	-14.758	
350.00	-60.011	-13.459	
351.00	-60.718	-16.574	
352.00	-61.293	-14.641	
353.00	-61.023	-18.497	
354.00	-61.541	-13.249	
355.00	-62.724	-15.454	
356.00	-62.604	-18.458	
357.00	-64.302	-17.512	
358.00	-66.163	-17.311	
359.00	-66.573	-21.987	
Frequency	2050.00	MHz	
Channel	test		
Scan Axis name	Azimuth  [deg]		
Scan Axis	Amplitude	Phase	
			
0.00	-67.659	146.457	
1.00	-66.246	153.415	
2.00	-66.221	145.626	
3.00	-65.157	147.712	
4.00	-65.118	136.408	
5.00	-65.859	134.716	
6.00	-64.314	135.933	
7.00	-64.517	148.413	
8.00	-65.031	146.405	
9.00	-63.542	152.639	
10.00	-64.237	158.140	
11.00	-63.229	152.329	
12.00	-64.296	167.697	
13.00	-61.587	-175.814	
14.00	-62.878	175.505	
15.00	-62.183	-174.600	
16.00	-61.737	-173.475	
17.00	-62.158	-176.350	
18.00	-63.163	-176.902	
19.00	-61.801	-166.820	
20.00	-63.285	-154.590	
21.00	-62.551	-151.605	
22.00	-63.464	-143.561	
23.00	-65.137	-149.008	
24.00	-64.594	-129.515	
25.00	-63.098	-118.862	
26.00	-65.123	-99.296	
27.00	-65.128	-91.039	
28.00	-65.201	-79.443	
29.00	-64.457	-73.043	
30.00	-67.159	-71.433	
31.00	-67.063	-69.011	
32.00	-70.488	-57.180	
33.00	-73.040	-70.626	
34.00	-79.559	12.656	
35.00	-74.174	-175.534	
36.00	-73.213	168.491	
37.00	-64.670	-176.241	
38.00	-64.801	173.651	
39.00	-62.040	178.937	
40.00	-62.111	157.382	
41.00	-61.293	177.201	
42.00	-59.756	-179.937	
43.00	-60.048	-175.383	
44.00	-59.634	-173.487	
45.00	-60.878	-165.857	
46.00	-64.499	-154.532	
47.00	-62.479	-159.338	
48.00	-64.254	-129.419	
49.00	-67.682	-96.040	
50.00	-73.636	-29.166	
51.00	-67.985	-3.539	
52.00	-64.438	26.034	
53.00	-61.817	25.008	
54.00	-58.787	36.291	
55.00	-57.725	58.521	
56.00	-57.256	64.986	
57.00	-57.670	82.631	
58.00	-57.156	87.764	
59.00	-57.175	93.377	
60.00	-57.210	110.550	
61.00	-57.738	122.529	
62.00	-57.141	142.901	
63.00	-55.843	162.076	
64.00	-57.727	174.101	
65.00	-57.362	-157.709	
66.00	-56.325	-142.461	
67.00	-56.525	-122.433	
68.00	-56.239	-113.130	
69.00	-55.265	-96.281	
70.00	-54.882	-87.373	
71.00	-54.699	-61.150	
72.00	-54.584	-44.783	
73.00	-54.053	-31.876	
74.00	-53.442	-21.253	
75.00	-53.722	-10.438	
76.00	-54.012	-10.040	
77.00	-54.083	9.959	
78.00	-55.369	21.799	
79.00	-55.177	27.159	
80.00	-55.795	29.339	
81.00	-56.732	53.684	
82.00	-60.236	69.490	
83.00	-62.061	81.425	
84.00	-64.844	122.885	
85.00	-64.531	139.892	
86.00	-62.736	-160.316	
87.00	-60.981	-140.888	
88.00	-58.120	-124.634	
89.00	-55.113	-100.479	
90.00	-55.045	-92.336	
91.00	-53.595	-74.888	
92.00	-53.056	-66.418	
93.00	-53.382	-50.554	
94.00	-53.726	-41.682	
95.00	-53.429	-20.931	
96.00	-53.394	2.600	
97.00	-53.615	15.977	
98.00	-53.334	43.383	
99.00	-51.528	65.893	
100.00	-50.644	80.494	
101.00	-49.502	93.338	
102.00	-48.980	102.274	
103.00	-47.522	119.289	
104.00	-46.751	133.655	
105.00	-46.228	142.096	
106.00	-45.828	161.623	
107.00	-45.474	170.797	
108.00	-45.711	-172.289	
109.00	-45.309	-157.518	
110.00	-45.306	-137.287	
111.00	-45.320	-132.663	
112.00	-44.707	-112.480	
113.00	-44.361	-101.617	
114.00	-44.419	-81.370	
115.00	-44.282	-66.465	
116.00	-43.726	-50.795	
117.00	-43.091	-32.679	
118.00	-42.249	-18.417	
119.00	-41.846	-2.136	
120.00	-41.131	11.019	
121.00	-40.560	24.350	
122.00	-40.207	37.684	
123.00	-39.619	53.511	
124.00	-39.530	62.900	
125.00	-38.755	78.759	
126.00	-38.130	86.394	
127.00	-37.686	101.920	
128.00	-37.327	114.407	
129.00	-36.868	125.975	
130.00	-36.611	139.889	
131.00	-36.180	148.813	
132.00	-35.811	160.211	
133.00	-35.460	169.291	
134.00	-35.109	179.343	
135.00	-34.752	-173.052	
136.00	-34.413	-163.150	
137.00	-34.092	-154.100	
138.00	-33.752	-142.394	
139.00	-33.430	-130.494	
140.00	-33.188	-122.384	
141.00	-32.917	-107.118	
142.00	-32.670	-100.898	
143.00	-32.412	-88.339	
144.00	-32.208	-81.863	
145.00	-31.989	-71.830	
146.00	-31.740	-65.890	
147.00	-31.538	-61.726	
148.00	-31.340	-55.256	
149.00	-31.137	-45.628	
150.00	-30.856	-41.233	
151.00	-30.658	-33.951	
152.00	-30.493	-30.607	
153.00	-30.240	-14.879	
154.00	-30.048	-17.973	
155.00	-29.849	-6.925	
156.00	-29.693	-9.741	
157.00	-29.480	0.462	
158.00	-29.290	0.016	
159.00	-29.065	7.753	
160.00	-28.913	5.105	
161.00	-28.732	15.218	
162.00	-28.554	16.537	
163.00	-28.434	19.774	
164.00	-28.271	18.824	
165.00	-28.145	18.315	
166.00	-28.011	28.083	
167.00	-27.875	27.054	
168.00	-27.775	28.350	
169.00	-27.680	25.924	
170.00	-27.594	27.459	
171.00	-27.508	29.027	
172.00	-27.438	29.549	
173.00	-27.357	30.786	
174.00	-27.282	31.540	
175.00	-27.242	35.407	
176.00	-27.237	32.389	
177.00	-27.232	27.933	
178.00	-27.243	22.862	
179.00	-27.235	25.771	
180.00	-27.263	19.328	
181.00	-27.286	20.629	
182.00	-27.317	13.252	
183.00	-27.356	13.873	
184.00	-27.411	13.305	
185.00	-27.451	7.916	
186.00	-27.534	0.739	
187.00	-27.595	0.199	
188.00	-27.702	-7.930	
189.00	-27.811	-15.761	
190.00	-27.901	-23.029	
191.00	-28.004	-30.508	
192.00	-28.121	-34.662	
193.00	-28.277	-43.491	
194.00	-28.395	-50.283	
195.00	-28.505	-56.220	
196.00	-28.648	-64.803	
197.00	-28.832	-72.918	
198.00	-29.001	-81.700	
199.00	-29.123	-87.572	
200.00	-29.299	-97.792	
201.00	-29.458	-104.513	
202.00	-29.618	-114.944	
203.00	-29.790	-122.013	
204.00	-29.937	-133.367	
205.00	-30.097	-141.242	
206.00	-30.249	-153.204	
207.00	-30.404	-162.542	
208.00	-30.550	-167.946	
209.00	-30.660	171.430	
210.00	-30.889	168.198	
211.00	-31.031	154.094	
212.00	-31.240	146.484	
213.00	-31.453	136.293	
214.00	-31.649	120.024	
215.00	-31.919	111.657	
216.00	-32.166	100.629	
217.00	-32.438	88.252	
218.00	-32.708	77.081	
219.00	-33.029	60.605	
220.00	-33.341	50.531	
221.00	-33.677	40.422	
222.00	-34.020	25.782	
223.00	-34.388	12.662	
224.00	-34.777	-1.198	
225.00	-35.184	-13.359	
226.00	-35.630	-25.192	
227.00	-36.058	-42.339	
228.00	-36.504	-56.253	
229.00	-37.005	-69.597	
230.00	-37.509	-88.285	
231.00	-37.919	-101.915	
232.00	-38.390	-117.410	
233.00	-38.843	-131.652	
234.00	-39.247	-150.097	
235.00	-39.810	-163.960	
236.00	-40.028	176.646	
237.00	-40.445	163.313	
238.00	-40.853	149.403	
239.00	-41.357	125.127	
240.00	-41.876	112.519	
241.00	-42.434	94.274	
242.00	-43.099	78.951	
243.00	-43.763	65.176	
244.00	-44.407	49.387	
245.00	-45.233	28.872	
246.00	-45.914	13.180	
247.00	-46.722	-9.065	
248.00	-47.250	-22.526	
249.00	-47.959	-42.123	
250.00	-48.476	-60.897	
251.00	-48.943	-75.617	
252.00	-49.435	-94.514	
253.00	-50.087	-109.402	
254.00	-50.656	-122.738	
255.00	-51.340	-144.183	
256.00	-52.189	-154.513	
257.00	-53.214	-172.543	
258.00	-54.376	172.389	
259.00	-55.764	156.569	
260.00	-57.223	134.060	
261.00	-58.991	117.634	
262.00	-60.453	91.558	
263.00	-61.430	72.775	
264.00	-61.739	50.590	
265.00	-62.116	30.647	
266.00	-61.886	19.782	
267.00	-62.720	11.913	
268.00	-63.767	3.723	
269.00	-65.266	2.455	
270.00	-68.049	15.412	
271.00	-67.861	17.391	
272.00	-68.508	51.592	
273.00	-66.759	47.696	
274.00	-64.414	71.465	
275.00	-64.163	66.329	
276.00	-63.992	66.821	
277.00	-63.486	61.963	
278.00	-64.314	57.878	
279.00	-64.967	50.916	
280.00	-65.777	36.751	
281.00	-67.850	31.916	
282.00	-68.866	20.301	
283.00	-72.177	2.137	
284.00	-74.311	-35.524	
285.00	-79.732	-78.816	
286.00	-96.426	72.850	
287.00	-75.737	150.470	
288.00	-72.531	117.871	
289.00	-69.644	105.822	
290.00	-66.845	90.759	
291.00	-65.665	77.677	
292.00	-62.837	63.257	
293.00	-61.061	55.257	
294.00	-59.892	49.962	
295.00	-58.580	37.026	
296.00	-57.730	29.621	
297.00	-56.741	21.631	
298.00	-56.099	14.266	
299.00	-55.839	3.585	
300.00	-55.561	-5.120	
301.00	-55.724	-12.335	
302.00	-55.670	-20.693	
303.00	-55.889	-28.364	
304.00	-56.235	-35.778	
305.00	-56.966	-44.787	
306.00	-58.204	-50.308	
307.00	-58.854	-56.551	
308.00	-61.080	-62.223	
309.00	-63.733	-66.946	
310.00	-67.829	-68.278	
311.00	-70.906	-59.621	
312.00	-82.771	-56.311	
313.00	-78.333	53.621	
314.00	-70.263	69.240	
315.00	-67.783	70.016	
316.00	-67.166	58.051	
317.00	-65.322	52.246	
318.00	-64.953	46.952	
319.00	-65.627	40.069	
320.00	-65.173	27.267	
321.00	-64.862	9.057	
322.00	-65.852	5.909	
323.00	-65.889	-10.072	
324.00	-65.586	-21.316	
325.00	-66.377	-39.140	
326.00	-66.901	-45.951	
327.00	-67.141	-61.513	
328.00	-67.168	-68.333	
329.00	-67.802	-85.421	
330.00	-69.584	-90.679	
331.00	-72.693	-89.948	
332.00	-68.632	-113.643	
333.00	-68.547	-125.422	
334.00	-71.209	-132.019	
335.00	-67.820	-139.320	
336.00	-70.154	-169.986	
337.00	-71.003	-172.787	
338.00	-74.017	-164.082	
339.00	-70.551	-165.214	
340.00	-74.525	-176.593	
341.00	-73.161	-171.598	
342.00	-73.592	174.086	
343.00	-72.838	-179.839	
344.00	-77.963	-176.409	
345.00	-73.853	-179.562	
346.00	-75.294	-173.615	
347.00	-77.148	-164.392	
348.00	-77.042	-164.387	
349.00	-74.182	-146.636	
350.00	-72.703	-152.683	
351.00	-71.738	-165.824	
352.00	-70.921	-158.395	
353.00	-71.619	-153.404	
354.00	-70.065	-166.686	
355.00	-68.582	-168.522	
356.00	-68.827	178.523	
357.00	-68.556	174.054	
358.00	-68.135	164.815	
359.00	-67.633	155.188	
Frequency	2170.00	MHz	
Channel	test		
Scan Axis name	Azimuth  [deg]		
Scan Axis	Amplitude	Phase	
			
0.00	-73.054	83.702	
1.00	-69.343	63.201	
2.00	-71.703	70.729	
3.00	-69.486	70.342	
4.00	-69.955	66.835	
5.00	-69.941	75.706	
6.00	-67.932	75.851	
7.00	-69.916	62.810	
8.00	-68.682	57.002	
9.00	-67.477	62.546	
10.00	-67.587	101.776	
11.00	-67.821	91.261	
12.00	-64.660	107.756	
13.00	-65.217	115.822	
14.00	-63.678	125.528	
15.00	-63.191	126.552	
16.00	-61.230	135.558	
17.00	-61.058	131.394	
18.00	-60.866	137.287	
19.00	-59.764	136.001	
20.00	-59.086	144.233	
21.00	-58.775	149.413	
22.00	-58.521	153.201	
23.00	-58.317	166.817	
24.00	-57.219	164.967	
25.00	-58.340	171.235	
26.00	-57.556	-173.631	
27.00	-57.576	-170.674	
28.00	-57.968	-156.288	
29.00	-58.301	-143.834	
30.00	-58.246	-131.869	
31.00	-58.224	-115.933	
32.00	-57.793	-107.929	
33.00	-57.882	-87.858	
34.00	-57.604	-71.586	
35.00	-57.604	-59.651	
36.00	-57.179	-39.678	
37.00	-57.173	-27.404	
38.00	-56.915	-12.417	
39.00	-56.436	-4.714	
40.00	-55.449	14.526	
41.00	-54.876	25.427	
42.00	-55.571	38.477	
43.00	-54.796	50.058	
44.00	-54.070	61.666	
45.00	-54.103	71.453	
46.00	-54.634	80.261	
47.00	-54.554	91.047	
48.00	-54.819	106.735	
49.00	-55.299	122.194	
50.00	-56.993	129.838	
51.00	-57.466	155.229	
52.00	-59.171	173.498	
53.00	-59.535	-159.709	
54.00	-58.186	-127.362	
55.00	-57.511	-113.409	
56.00	-56.571	-88.177	
57.00	-55.276	-70.726	
58.00	-55.076	-55.910	
59.00	-54.750	-45.185	
60.00	-54.787	-34.177	
61.00	-54.435	-9.794	
62.00	-54.963	3.697	
63.00	-54.951	29.255	
64.00	-55.257	43.491	
65.00	-55.639	61.327	
66.00	-55.700	80.384	
67.00	-54.985	93.941	
68.00	-55.052	118.563	
69.00	-55.415	138.520	
70.00	-55.693	154.936	
71.00	-55.027	170.635	
72.00	-54.381	-168.715	
73.00	-54.588	-143.480	
74.00	-54.232	-137.875	
75.00	-54.389	-116.784	
76.00	-54.145	-98.902	
77.00	-54.673	-77.020	
78.00	-54.680	-60.659	
79.00	-55.066	-47.138	
80.00	-54.568	-25.924	
81.00	-54.177	0.961	
82.00	-53.600	22.680	
83.00	-52.850	33.182	
84.00	-53.076	54.186	
85.00	-52.219	65.024	
86.00	-52.115	84.782	
87.00	-52.007	101.927	
88.00	-52.262	116.540	
89.00	-52.556	128.259	
90.00	-52.853	145.856	
91.00	-53.111	168.495	
92.00	-53.605	-178.030	
93.00	-54.210	-162.474	
94.00	-54.086	-148.231	
95.00	-54.351	-121.249	
96.00	-54.501	-97.913	
97.00	-53.706	-86.440	
98.00	-53.031	-63.487	
99.00	-52.195	-41.758	
100.00	-52.112	-29.348	
101.00	-51.774	-13.899	
102.00	-51.532	-7.826	
103.00	-51.487	10.997	
104.00	-50.718	25.358	
105.00	-50.845	41.894	
106.00	-50.507	58.193	
107.00	-49.824	70.074	
108.00	-49.318	89.728	
109.00	-48.513	102.759	
110.00	-48.503	119.549	
111.00	-47.428	135.859	
112.00	-47.268	142.716	
113.00	-45.883	159.255	
114.00	-45.685	175.870	
115.00	-44.606	-169.825	
116.00	-43.889	-158.936	
117.00	-43.172	-142.200	
118.00	-42.670	-128.788	
119.00	-42.184	-114.025	
120.00	-41.410	-101.626	
121.00	-40.939	-88.691	
122.00	-40.490	-74.439	
123.00	-39.734	-59.986	
124.00	-39.297	-50.149	
125.00	-38.474	-33.018	
126.00	-38.136	-25.546	
127.00	-37.574	-9.646	
128.00	-36.966	4.096	
129.00	-36.367	14.478	
130.00	-36.005	28.954	
131.00	-35.490	37.196	
132.00	-35.122	49.115	
133.00	-34.679	58.490	
134.00	-34.292	69.219	
135.00	-33.894	77.957	
136.00	-33.587	88.678	
137.00	-33.241	97.353	
138.00	-32.842	110.203	
139.00	-32.504	123.135	
140.00	-32.199	131.769	
141.00	-31.903	148.548	
142.00	-31.519	154.989	
143.00	-31.186	169.395	
144.00	-30.899	176.192	
145.00	-30.597	-173.516	
146.00	-30.365	-166.637	
147.00	-30.111	-162.239	
148.00	-29.850	-155.331	
149.00	-29.602	-144.630	
150.00	-29.365	-139.609	
151.00	-29.115	-131.935	
152.00	-28.890	-127.922	
153.00	-28.653	-112.086	
154.00	-28.451	-114.796	
155.00	-28.273	-103.397	
156.00	-28.061	-106.528	
157.00	-27.890	-95.960	
158.00	-27.713	-96.093	
159.00	-27.561	-88.236	
160.00	-27.440	-90.654	
161.00	-27.282	-80.386	
162.00	-27.135	-78.953	
163.00	-27.001	-75.583	
164.00	-26.919	-76.461	
165.00	-26.805	-76.832	
166.00	-26.683	-66.415	
167.00	-26.578	-67.848	
168.00	-26.470	-66.314	
169.00	-26.366	-69.342	
170.00	-26.320	-67.968	
171.00	-26.217	-66.077	
172.00	-26.155	-65.496	
173.00	-26.096	-64.612	
174.00	-26.044	-63.952	
175.00	-25.996	-60.223	
176.00	-25.985	-63.649	
177.00	-25.983	-68.221	
178.00	-25.981	-74.269	
179.00	-25.955	-71.236	
180.00	-25.957	-78.045	
181.00	-25.979	-76.949	
182.00	-26.015	-84.518	
183.00	-26.063	-84.558	
184.00	-26.105	-84.961	
185.00	-26.150	-90.705	
186.00	-26.242	-98.352	
187.00	-26.305	-98.747	
188.00	-26.413	-107.618	
189.00	-26.506	-115.629	
190.00	-26.586	-123.341	
191.00	-26.700	-131.236	
192.00	-26.860	-135.461	
193.00	-26.952	-145.047	
194.00	-27.050	-152.122	
195.00	-27.237	-158.705	
196.00	-27.397	-167.690	
197.00	-27.544	-176.727	
198.00	-27.655	174.912	
199.00	-27.814	168.434	
200.00	-27.977	157.673	
201.00	-28.140	150.635	
202.00	-28.313	139.635	
203.00	-28.496	132.350	
204.00	-28.675	120.660	
205.00	-28.886	112.365	
206.00	-29.079	99.955	
207.00	-29.297	90.185	
208.00	-29.502	84.519	
209.00	-29.760	62.579	
210.00	-30.038	58.933	
211.00	-30.262	44.174	
212.00	-30.549	35.550	
213.00	-30.838	24.405	
214.00	-31.142	6.914	
215.00	-31.454	-2.783	
216.00	-31.748	-14.621	
217.00	-32.099	-28.370	
218.00	-32.495	-40.494	
219.00	-32.836	-58.727	
220.00	-33.216	-70.350	
221.00	-33.633	-81.521	
222.00	-34.070	-98.601	
223.00	-34.488	-113.090	
224.00	-34.893	-129.057	
225.00	-35.363	-142.578	
226.00	-35.725	-156.372	
227.00	-36.127	-175.472	
228.00	-36.602	169.025	
229.00	-36.987	154.316	
230.00	-37.407	134.183	
231.00	-37.867	120.004	
232.00	-38.353	103.166	
233.00	-38.865	88.019	
234.00	-39.453	67.748	
235.00	-39.902	52.407	
236.00	-40.416	31.356	
237.00	-41.002	16.327	
238.00	-41.615	-0.428	
239.00	-42.208	-28.495	
240.00	-42.852	-44.168	
241.00	-43.486	-66.121	
242.00	-44.059	-84.932	
243.00	-44.562	-101.991	
244.00	-45.100	-120.247	
245.00	-45.552	-145.311	
246.00	-45.862	-163.285	
247.00	-46.192	171.869	
248.00	-46.686	156.563	
249.00	-46.891	136.168	
250.00	-47.281	117.014	
251.00	-47.579	101.700	
252.00	-48.131	80.234	
253.00	-48.775	62.797	
254.00	-49.122	46.524	
255.00	-50.191	24.736	
256.00	-50.694	6.739	
257.00	-51.353	-13.584	
258.00	-52.570	-32.942	
259.00	-53.821	-47.806	
260.00	-54.675	-77.848	
261.00	-55.434	-100.940	
262.00	-55.157	-119.298	
263.00	-55.530	-142.702	
264.00	-55.424	-158.426	
265.00	-56.205	-173.877	
266.00	-56.960	169.369	
267.00	-57.661	159.283	
268.00	-59.456	144.566	
269.00	-61.053	133.119	
270.00	-62.078	96.150	
271.00	-63.472	73.334	
272.00	-64.942	51.341	
273.00	-68.802	-5.177	
274.00	-67.124	-23.687	
275.00	-65.645	-37.045	
276.00	-64.349	-55.617	
277.00	-66.450	-72.890	
278.00	-64.154	-88.209	
279.00	-66.936	-88.118	
280.00	-66.381	-127.429	
281.00	-66.515	-132.904	
282.00	-66.856	-117.789	
283.00	-70.297	-137.486	
284.00	-67.263	-164.156	
285.00	-68.583	-168.656	
286.00	-70.020	175.921	
287.00	-69.067	169.480	
288.00	-73.543	138.634	
289.00	-83.465	153.058	
290.00	-74.017	61.970	
291.00	-72.899	-174.056	
292.00	-80.901	91.639	
293.00	-68.122	5.494	
294.00	-70.573	33.297	
295.00	-73.497	26.054	
296.00	-70.555	13.286	
297.00	-66.346	17.406	
298.00	-68.192	19.464	
299.00	-67.632	39.225	
300.00	-69.541	37.045	
301.00	-69.189	48.410	
302.00	-68.501	62.604	
303.00	-64.955	58.818	
304.00	-64.072	66.590	
305.00	-62.200	66.486	
306.00	-62.305	68.394	
307.00	-61.231	61.624	
308.00	-61.614	71.295	
309.00	-60.494	65.870	
310.00	-60.824	63.673	
311.00	-61.491	62.478	
312.00	-61.871	60.285	
313.00	-62.375	55.968	
314.00	-63.174	56.115	
315.00	-62.873	42.998	
316.00	-63.195	33.806	
317.00	-64.023	35.887	
318.00	-65.174	16.490	
319.00	-66.348	10.391	
320.00	-66.379	-5.439	
321.00	-66.550	-13.658	
322.00	-67.475	-22.761	
323.00	-69.720	-35.704	
324.00	-69.069	-38.650	
325.00	-68.589	-21.323	
326.00	-71.265	-29.263	
327.00	-71.299	-57.394	
328.00	-72.330	-67.670	
329.00	-77.532	-46.388	
330.00	-77.443	-80.250	
331.00	-75.254	-106.398	
332.00	-72.284	-124.140	
333.00	-71.082	-142.342	
334.00	-79.159	-162.363	
335.00	-72.059	168.814	
336.00	-78.682	148.709	
337.00	-78.961	11.675	
338.00	-71.870	88.054	
339.00	-70.912	86.507	
340.00	-70.520	91.213	
341.00	-68.612	69.317	
342.00	-68.833	61.490	
343.00	-67.711	64.101	
344.00	-67.387	71.265	
345.00	-66.261	59.824	
346.00	-66.055	61.145	
347.00	-63.962	48.092	
348.00	-63.984	54.260	
349.00	-62.838	47.356	
350.00	-64.298	51.899	
351.00	-63.974	41.132	
352.00	-66.071	43.156	
353.00	-64.463	40.079	
354.00	-67.769	36.179	
355.00	-65.197	43.335	
356.00	-68.747	46.712	
357.00	-68.183	49.754	
358.00	-68.698	54.521	
359.00	-71.982	54.298	
Frequency	2300.00	MHz	
Channel	test		
Scan Axis name	Azimuth  [deg]		
Scan Axis	Amplitude	Phase	
			
0.00	-66.786	-133.898	
1.00	-69.047	-128.950	
2.00	-69.442	-120.409	
3.00	-69.391	-119.629	
4.00	-70.742	-110.326	
5.00	-70.184	-117.394	
6.00	-70.264	-86.826	
7.00	-71.857	-93.587	
8.00	-69.795	-63.598	
9.00	-68.764	-39.842	
10.00	-68.568	-29.567	
11.00	-66.159	-21.392	
12.00	-66.223	-25.638	
13.00	-64.611	-17.972	
14.00	-62.924	-19.315	
15.00	-63.209	-17.907	
16.00	-62.373	2.137	
17.00	-61.525	-3.209	
18.00	-61.947	0.932	
19.00	-63.405	3.333	
20.00	-61.979	2.819	
21.00	-63.522	4.060	
22.00	-62.448	2.219	
23.00	-62.689	3.427	
24.00	-64.842	25.330	
25.00	-64.600	29.186	
26.00	-65.989	6.177	
27.00	-71.327	12.738	
28.00	-72.277	27.741	
29.00	-72.389	-42.108	
30.00	-83.240	66.641	
31.00	-69.111	-89.010	
32.00	-62.984	-88.406	
33.00	-62.061	-81.334	
34.00	-62.296	-55.562	
35.00	-59.506	-78.334	
36.00	-59.868	-71.780	
37.00	-63.552	-71.763	
38.00	-59.149	-47.124	
39.00	-60.380	-46.554	
40.00	-58.281	-58.412	
41.00	-61.382	-25.388	
42.00	-61.625	-27.955	
43.00	-60.374	4.604	
44.00	-62.701	-25.143	
45.00	-62.048	28.944	
46.00	-62.161	62.344	
47.00	-71.428	20.225	
48.00	-66.057	78.023	
49.00	-64.879	95.768	
50.00	-63.377	125.636	
51.00	-64.690	101.397	
52.00	-65.807	-148.576	
53.00	-71.140	-168.197	
54.00	-63.246	-107.594	
55.00	-64.587	-117.021	
56.00	-64.909	-107.054	
57.00	-61.490	-99.671	
58.00	-56.800	-87.306	
59.00	-58.606	-45.841	
60.00	-57.975	-29.757	
61.00	-58.215	-17.068	
62.00	-60.458	46.426	
63.00	-66.935	36.509	
64.00	-62.911	57.818	
65.00	-60.434	91.946	
66.00	-58.794	132.873	
67.00	-57.252	148.098	
68.00	-60.538	146.993	
69.00	-60.520	-171.260	
70.00	-55.320	174.929	
71.00	-59.672	-163.274	
72.00	-55.684	-150.440	
73.00	-59.473	-85.802	
74.00	-56.103	-84.436	
75.00	-68.422	-77.030	
76.00	-62.948	-12.047	
77.00	-57.691	-3.400	
78.00	-61.056	14.784	
79.00	-56.060	-18.406	
80.00	-56.505	44.073	
81.00	-58.934	17.321	
82.00	-56.767	70.160	
83.00	-57.563	90.573	
84.00	-56.125	116.385	
85.00	-57.068	117.180	
86.00	-59.796	136.271	
87.00	-55.553	-170.932	
88.00	-52.764	-174.779	
89.00	-54.018	172.940	
90.00	-54.565	-147.957	
91.00	-56.665	-109.293	
92.00	-61.688	-68.165	
93.00	-56.826	-67.300	
94.00	-60.284	-91.182	
95.00	-58.503	-32.625	
96.00	-57.284	-40.129	
97.00	-57.902	-4.000	
98.00	-56.737	8.314	
99.00	-61.105	0.365	
100.00	-57.747	49.347	
101.00	-63.704	36.074	
102.00	-60.625	74.135	
103.00	-62.705	79.639	
104.00	-67.454	59.397	
105.00	-60.330	69.184	
106.00	-68.215	170.357	
107.00	-64.233	140.220	
108.00	-62.463	142.955	
109.00	-60.409	164.617	
110.00	-55.420	-171.890	
111.00	-55.791	-158.021	
112.00	-54.592	-156.895	
113.00	-52.535	-136.010	
114.00	-52.402	-132.343	
115.00	-52.993	-118.096	
116.00	-50.841	-114.481	
117.00	-49.785	-102.976	
118.00	-49.751	-87.993	
119.00	-50.017	-70.788	
120.00	-48.410	-60.923	
121.00	-48.414	-38.338	
122.00	-47.184	-31.937	
123.00	-47.253	-6.491	
124.00	-45.976	5.226	
125.00	-45.591	25.024	
126.00	-44.291	35.121	
127.00	-43.259	51.831	
128.00	-42.755	65.054	
129.00	-41.913	78.558	
130.00	-41.073	92.242	
131.00	-40.550	102.841	
132.00	-39.628	114.808	
133.00	-39.367	123.689	
134.00	-38.582	135.202	
135.00	-38.063	142.936	
136.00	-37.567	153.963	
137.00	-36.943	164.512	
138.00	-36.581	178.345	
139.00	-36.151	-167.482	
140.00	-35.560	-158.225	
141.00	-34.994	-139.242	
142.00	-34.475	-132.465	
143.00	-34.029	-117.435	
144.00	-33.528	-110.406	
145.00	-33.065	-99.252	
146.00	-32.595	-92.507	
147.00	-32.147	-87.517	
148.00	-31.732	-81.076	
149.00	-31.383	-69.625	
150.00	-31.123	-64.847	
151.00	-30.746	-56.557	
152.00	-30.536	-52.423	
153.00	-30.247	-35.468	
154.00	-30.009	-38.556	
155.00	-29.802	-26.100	
156.00	-29.575	-29.135	
157.00	-29.370	-17.642	
158.00	-29.172	-17.440	
159.00	-28.964	-8.593	
160.00	-28.810	-10.601	
161.00	-28.634	0.449	
162.00	-28.465	2.717	
163.00	-28.301	5.916	
164.00	-28.168	5.651	
165.00	-28.039	4.956	
166.00	-27.941	16.221	
167.00	-27.801	14.689	
168.00	-27.708	16.547	
169.00	-27.633	13.254	
170.00	-27.562	14.784	
171.00	-27.486	17.150	
172.00	-27.414	17.622	
173.00	-27.366	18.596	
174.00	-27.330	19.139	
175.00	-27.280	23.372	
176.00	-27.264	19.603	
177.00	-27.227	15.024	
178.00	-27.253	8.454	
179.00	-27.261	11.570	
180.00	-27.270	4.669	
181.00	-27.269	5.596	
182.00	-27.328	-2.130	
183.00	-27.358	-2.739	
184.00	-27.407	-3.150	
185.00	-27.447	-9.173	
186.00	-27.501	-17.457	
187.00	-27.612	-17.882	
188.00	-27.698	-27.625	
189.00	-27.811	-36.212	
190.00	-27.885	-44.249	
191.00	-28.008	-52.729	
192.00	-28.139	-57.356	
193.00	-28.271	-67.547	
194.00	-28.412	-74.889	
195.00	-28.558	-81.666	
196.00	-28.658	-91.170	
197.00	-28.895	-100.926	
198.00	-29.050	-109.504	
199.00	-29.210	-116.866	
200.00	-29.392	-127.990	
201.00	-29.575	-135.693	
202.00	-29.766	-147.238	
203.00	-29.953	-154.931	
204.00	-30.162	-167.498	
205.00	-30.411	-176.356	
206.00	-30.582	170.496	
207.00	-30.826	160.178	
208.00	-31.062	153.948	
209.00	-31.334	130.659	
210.00	-31.584	126.476	
211.00	-31.841	111.110	
212.00	-32.143	101.430	
213.00	-32.407	90.000	
214.00	-32.707	71.052	
215.00	-33.064	60.726	
216.00	-33.341	48.745	
217.00	-33.742	34.007	
218.00	-34.153	20.728	
219.00	-34.523	1.815	
220.00	-34.878	-10.666	
221.00	-35.272	-22.458	
222.00	-35.682	-39.846	
223.00	-36.165	-55.980	
224.00	-36.484	-71.932	
225.00	-36.993	-86.798	
226.00	-37.397	-100.806	
227.00	-37.867	-120.401	
228.00	-38.405	-136.803	
229.00	-38.877	-151.547	
230.00	-39.311	-173.098	
231.00	-39.850	171.410	
232.00	-40.547	153.130	
233.00	-40.979	136.955	
234.00	-41.638	115.624	
235.00	-42.142	99.522	
236.00	-42.746	77.557	
237.00	-43.463	61.168	
238.00	-44.075	42.972	
239.00	-44.706	13.690	
240.00	-45.296	-2.590	
241.00	-45.889	-25.335	
242.00	-46.652	-44.645	
243.00	-47.139	-62.222	
244.00	-47.823	-80.942	
245.00	-48.759	-107.323	
246.00	-49.317	-124.667	
247.00	-50.085	-148.867	
248.00	-50.689	-166.953	
249.00	-51.519	169.376	
250.00	-52.333	147.615	
251.00	-52.954	128.369	
252.00	-53.381	103.688	
253.00	-53.857	82.992	
254.00	-54.251	63.373	
255.00	-54.409	37.196	
256.00	-54.887	23.424	
257.00	-55.340	4.198	
258.00	-56.065	-9.968	
259.00	-57.975	-23.411	
260.00	-59.598	-42.375	
261.00	-62.074	-49.606	
262.00	-66.224	-59.780	
263.00	-72.649	-89.282	
264.00	-89.361	-86.128	
265.00	-82.366	100.473	
266.00	-70.084	80.157	
267.00	-73.760	97.896	
268.00	-75.229	85.787	
269.00	-76.920	126.657	
270.00	-72.706	176.281	
271.00	-70.231	176.713	
272.00	-65.627	165.300	
273.00	-62.527	166.748	
274.00	-61.570	155.617	
275.00	-60.100	139.793	
276.00	-60.014	133.094	
277.00	-59.421	118.514	
278.00	-59.530	108.399	
279.00	-59.916	89.719	
280.00	-60.787	73.161	
281.00	-60.335	47.656	
282.00	-59.925	26.361	
283.00	-59.519	1.920	
284.00	-58.356	-27.686	
285.00	-58.141	-42.974	
286.00	-57.788	-54.774	
287.00	-57.019	-69.807	
288.00	-57.755	-86.083	
289.00	-58.563	-98.852	
290.00	-59.525	-118.801	
291.00	-60.651	-131.604	
292.00	-62.263	-158.678	
293.00	-62.570	-175.805	
294.00	-63.439	163.802	
295.00	-62.938	133.601	
296.00	-62.375	112.961	
297.00	-61.587	98.182	
298.00	-61.382	86.530	
299.00	-61.228	70.459	
300.00	-61.355	58.097	
301.00	-60.523	42.198	
302.00	-61.679	30.147	
303.00	-62.678	9.108	
304.00	-62.789	-1.460	
305.00	-63.121	-16.236	
306.00	-62.486	-27.385	
307.00	-64.340	-43.286	
308.00	-65.099	-56.620	
309.00	-65.304	-71.100	
310.00	-67.581	-89.015	
311.00	-68.413	-102.012	
312.00	-70.566	-133.783	
313.00	-72.331	-152.844	
314.00	-69.814	-168.652	
315.00	-71.336	157.434	
316.00	-71.918	137.401	
317.00	-70.474	131.583	
318.00	-69.041	100.415	
319.00	-71.074	99.106	
320.00	-69.535	56.176	
321.00	-67.749	27.219	
322.00	-67.358	9.889	
323.00	-64.792	-20.992	
324.00	-64.265	-32.125	
325.00	-61.144	-38.124	
326.00	-60.411	-51.175	
327.00	-59.759	-55.607	
328.00	-59.669	-58.374	
329.00	-58.985	-64.922	
330.00	-59.221	-69.199	
331.00	-58.860	-69.327	
332.00	-59.355	-77.867	
333.00	-59.227	-82.732	
334.00	-60.613	-81.711	
335.00	-62.084	-88.211	
336.00	-62.900	-91.030	
337.00	-64.941	-99.963	
338.00	-66.819	-110.358	
339.00	-67.615	-113.249	
340.00	-69.189	-131.062	
341.00	-73.456	-148.168	
342.00	-76.150	-163.951	
343.00	-83.726	-154.382	
344.00	-99.572	42.485	
345.00	-87.405	128.257	
346.00	-77.904	166.287	
347.00	-80.352	162.964	
348.00	-73.880	156.360	
349.00	-73.031	161.738	
350.00	-75.067	157.131	
351.00	-71.737	177.021	
352.00	-72.815	176.817	
353.00	-70.337	-169.434	
354.00	-71.783	-145.857	
355.00	-70.239	-163.508	
356.00	-69.695	-157.134	
357.00	-69.686	-163.965	
358.00	-67.356	-160.001	
359.00	-68.873	-155.739	
Frequency	2350.00	MHz	
Channel	test		
Scan Axis name	Azimuth  [deg]		
Scan Axis	Amplitude	Phase	
			
0.00	-59.270	-28.600	
1.00	-59.330	-31.281	
2.00	-59.089	-29.328	
3.00	-59.451	-24.351	
4.00	-60.999	-20.226	
5.00	-60.842	-14.762	
6.00	-62.267	-3.318	
7.00	-62.546	7.973	
8.00	-63.749	20.462	
9.00	-63.554	22.017	
10.00	-64.352	55.076	
11.00	-63.847	54.341	
12.00	-62.695	60.482	
13.00	-62.981	68.833	
14.00	-63.666	67.120	
15.00	-64.713	74.682	
16.00	-63.084	97.602	
17.00	-66.686	98.735	
18.00	-66.267	130.544	
19.00	-65.343	128.706	
20.00	-67.446	158.567	
21.00	-67.226	151.996	
22.00	-65.622	167.754	
23.00	-68.199	-168.383	
24.00	-65.232	-154.590	
25.00	-68.564	-95.160	
26.00	-68.007	-108.998	
27.00	-66.894	-76.454	
28.00	-67.523	-78.242	
29.00	-65.394	-46.290	
30.00	-62.988	-15.413	
31.00	-61.707	-7.981	
32.00	-59.756	17.438	
33.00	-60.495	15.747	
34.00	-58.009	13.505	
35.00	-57.447	32.045	
36.00	-56.969	36.198	
37.00	-57.421	53.490	
38.00	-56.517	61.948	
39.00	-61.088	83.463	
40.00	-55.404	88.543	
41.00	-57.128	101.431	
42.00	-56.372	116.165	
43.00	-58.855	133.721	
44.00	-61.153	146.663	
45.00	-58.639	144.564	
46.00	-62.029	174.656	
47.00	-57.872	-154.267	
48.00	-58.625	-116.325	
49.00	-59.405	-96.279	
50.00	-57.988	-73.303	
51.00	-58.119	-68.405	
52.00	-55.448	-48.227	
53.00	-53.737	-26.222	
54.00	-56.688	-27.085	
55.00	-58.102	18.533	
56.00	-59.688	38.716	
57.00	-55.336	62.567	
58.00	-56.122	88.776	
59.00	-56.028	66.708	
60.00	-62.400	131.743	
61.00	-60.596	143.057	
62.00	-58.823	117.591	
63.00	-60.329	179.879	
64.00	-57.499	-171.845	
65.00	-56.015	-161.009	
66.00	-56.739	-120.767	
67.00	-56.274	-119.299	
68.00	-58.695	-87.069	
69.00	-57.749	-64.146	
70.00	-55.645	-57.829	
71.00	-56.940	-22.798	
72.00	-58.353	22.742	
73.00	-56.348	28.684	
74.00	-55.647	39.364	
75.00	-53.642	52.026	
76.00	-52.788	70.465	
77.00	-56.634	105.356	
78.00	-52.945	116.633	
79.00	-50.659	122.269	
80.00	-54.123	141.879	
81.00	-52.454	-167.876	
82.00	-53.011	-172.750	
83.00	-55.164	-159.193	
84.00	-54.542	-143.641	
85.00	-53.632	-97.844	
86.00	-56.200	-80.135	
87.00	-51.903	-59.128	
88.00	-57.832	-48.100	
89.00	-55.191	-40.837	
90.00	-55.045	4.038	
91.00	-53.444	-11.770	
92.00	-53.250	6.362	
93.00	-57.105	35.679	
94.00	-54.962	21.783	
95.00	-57.513	53.220	
96.00	-56.309	114.989	
97.00	-64.039	103.906	
98.00	-57.143	144.812	
99.00	-56.077	170.786	
100.00	-54.871	-170.752	
101.00	-57.345	-155.324	
102.00	-60.474	-146.032	
103.00	-58.233	-147.445	
104.00	-57.768	-134.528	
105.00	-59.079	-117.841	
106.00	-60.578	-115.902	
107.00	-63.135	-100.609	
108.00	-60.148	-112.057	
109.00	-58.008	-67.277	
110.00	-59.799	-50.099	
111.00	-54.878	-57.595	
112.00	-58.184	-28.652	
113.00	-55.712	-29.107	
114.00	-57.486	1.867	
115.00	-56.232	16.576	
116.00	-54.791	24.650	
117.00	-53.761	48.780	
118.00	-51.583	61.230	
119.00	-51.192	81.951	
120.00	-50.379	91.855	
121.00	-49.732	109.565	
122.00	-47.325	125.947	
123.00	-46.521	138.182	
124.00	-45.561	147.174	
125.00	-45.086	165.366	
126.00	-44.209	172.022	
127.00	-42.845	-172.147	
128.00	-42.359	-160.200	
129.00	-41.408	-148.177	
130.00	-41.092	-132.502	
131.00	-40.488	-124.672	
132.00	-40.275	-110.457	
133.00	-39.431	-100.275	
134.00	-38.695	-89.356	
135.00	-38.258	-81.464	
136.00	-37.814	-69.429	
137.00	-37.154	-58.620	
138.00	-36.593	-44.264	
139.00	-36.123	-29.967	
140.00	-35.591	-20.986	
141.00	-34.958	-2.670	
142.00	-34.531	3.706	
143.00	-33.985	18.708	
144.00	-33.544	26.211	
145.00	-33.173	36.979	
146.00	-32.750	44.286	
147.00	-32.299	48.746	
148.00	-31.938	55.801	
149.00	-31.617	68.097	
150.00	-31.266	73.092	
151.00	-30.907	81.742	
152.00	-30.641	87.030	
153.00	-30.333	104.185	
154.00	-30.028	101.933	
155.00	-29.746	114.170	
156.00	-29.448	111.481	
157.00	-29.139	123.275	
158.00	-28.925	123.310	
159.00	-28.688	131.878	
160.00	-28.476	130.201	
161.00	-28.266	140.850	
162.00	-28.121	143.079	
163.00	-27.942	146.263	
164.00	-27.815	145.914	
165.00	-27.676	145.100	
166.00	-27.562	156.878	
167.00	-27.449	155.197	
168.00	-27.367	157.245	
169.00	-27.270	153.726	
170.00	-27.190	155.121	
171.00	-27.142	157.783	
172.00	-27.049	158.154	
173.00	-26.989	159.353	
174.00	-26.940	159.689	
175.00	-26.888	164.028	
176.00	-26.874	160.238	
177.00	-26.845	155.650	
178.00	-26.840	148.686	
179.00	-26.853	151.882	
180.00	-26.848	145.152	
181.00	-26.863	145.966	
182.00	-26.907	138.472	
183.00	-26.936	137.379	
184.00	-26.983	137.124	
185.00	-27.022	131.032	
186.00	-27.081	122.702	
187.00	-27.147	122.287	
188.00	-27.231	112.246	
189.00	-27.316	103.815	
190.00	-27.386	95.796	
191.00	-27.483	87.340	
192.00	-27.594	82.248	
193.00	-27.722	72.370	
194.00	-27.852	64.810	
195.00	-28.001	58.046	
196.00	-28.140	48.602	
197.00	-28.349	38.569	
198.00	-28.481	30.245	
199.00	-28.696	22.934	
200.00	-28.877	11.786	
201.00	-29.104	3.849	
202.00	-29.351	-7.542	
203.00	-29.587	-15.633	
204.00	-29.821	-28.107	
205.00	-30.082	-37.477	
206.00	-30.343	-50.729	
207.00	-30.605	-61.332	
208.00	-30.901	-67.423	
209.00	-31.172	-91.657	
210.00	-31.514	-96.352	
211.00	-31.785	-112.010	
212.00	-32.091	-121.639	
213.00	-32.384	-133.442	
214.00	-32.732	-153.185	
215.00	-33.105	-164.325	
216.00	-33.446	-176.133	
217.00	-33.794	168.872	
218.00	-34.163	155.745	
219.00	-34.579	136.232	
220.00	-34.998	123.086	
221.00	-35.420	111.241	
222.00	-35.899	93.447	
223.00	-36.333	77.470	
224.00	-36.843	60.763	
225.00	-37.300	45.735	
226.00	-37.737	31.380	
227.00	-38.209	11.958	
228.00	-38.716	-4.865	
229.00	-39.258	-19.891	
230.00	-39.856	-41.006	
231.00	-40.445	-56.267	
232.00	-41.215	-74.541	
233.00	-41.810	-91.649	
234.00	-42.593	-113.604	
235.00	-43.248	-130.323	
236.00	-43.903	-154.247	
237.00	-44.638	-169.863	
238.00	-45.309	171.267	
239.00	-45.840	141.749	
240.00	-46.535	126.574	
241.00	-47.461	104.804	
242.00	-48.380	87.249	
243.00	-49.255	69.153	
244.00	-50.560	50.953	
245.00	-51.983	27.509	
246.00	-53.984	7.749	
247.00	-55.898	-22.569	
248.00	-57.195	-46.103	
249.00	-58.879	-79.907	
250.00	-60.523	-110.600	
251.00	-60.456	-146.122	
252.00	-61.195	-175.905	
253.00	-61.240	154.293	
254.00	-60.886	128.267	
255.00	-60.838	95.507	
256.00	-61.332	67.567	
257.00	-61.060	39.299	
258.00	-61.334	8.976	
259.00	-61.025	-19.724	
260.00	-59.635	-51.259	
261.00	-58.976	-73.329	
262.00	-57.702	-94.377	
263.00	-57.548	-117.881	
264.00	-57.201	-134.654	
265.00	-56.906	-158.217	
266.00	-57.176	-178.727	
267.00	-57.202	165.488	
268.00	-57.766	138.924	
269.00	-57.844	120.096	
270.00	-57.818	91.663	
271.00	-57.857	71.908	
272.00	-58.098	45.788	
273.00	-57.632	20.597	
274.00	-57.345	-0.156	
275.00	-57.670	-17.228	
276.00	-57.393	-33.234	
277.00	-57.891	-53.834	
278.00	-58.055	-64.218	
279.00	-59.101	-89.852	
280.00	-60.045	-104.934	
281.00	-60.981	-123.450	
282.00	-62.594	-141.469	
283.00	-65.105	-178.263	
284.00	-65.431	134.050	
285.00	-64.063	106.766	
286.00	-63.680	82.803	
287.00	-63.345	57.859	
288.00	-63.247	42.608	
289.00	-62.396	22.127	
290.00	-63.109	2.732	
291.00	-62.830	-8.810	
292.00	-63.647	-30.973	
293.00	-64.047	-46.480	
294.00	-64.160	-69.014	
295.00	-64.184	-96.955	
296.00	-63.868	-111.545	
297.00	-63.719	-129.202	
298.00	-62.138	-144.734	
299.00	-61.361	-153.665	
300.00	-61.385	-165.817	
301.00	-62.175	-172.632	
302.00	-61.419	-179.690	
303.00	-61.793	175.697	
304.00	-61.745	166.508	
305.00	-62.023	165.411	
306.00	-62.797	156.961	
307.00	-63.626	151.052	
308.00	-65.401	149.447	
309.00	-64.441	154.539	
310.00	-65.599	145.091	
311.00	-67.303	140.180	
312.00	-68.427	135.913	
313.00	-71.489	127.676	
314.00	-71.344	124.519	
315.00	-75.709	112.481	
316.00	-76.145	90.816	
317.00	-77.339	83.744	
318.00	-78.780	61.311	
319.00	-74.780	29.489	
320.00	-73.195	43.411	
321.00	-72.016	33.082	
322.00	-71.645	18.968	
323.00	-71.510	21.043	
324.00	-70.335	15.639	
325.00	-69.975	12.317	
326.00	-69.540	4.141	
327.00	-69.501	3.229	
328.00	-69.764	-3.486	
329.00	-71.873	1.454	
330.00	-72.586	-13.042	
331.00	-73.262	-45.692	
332.00	-72.241	-58.475	
333.00	-71.852	-86.613	
334.00	-71.921	-88.892	
335.00	-68.335	-114.070	
336.00	-66.341	-126.778	
337.00	-66.425	-134.264	
338.00	-64.651	-144.264	
339.00	-65.084	-153.169	
340.00	-64.793	-159.142	
341.00	-64.045	-164.008	
342.00	-63.269	-169.513	
343.00	-63.382	-171.633	
344.00	-62.881	-175.060	
345.00	-63.933	-177.163	
346.00	-64.759	-175.660	
347.00	-64.758	178.269	
348.00	-67.670	-177.551	
349.00	-68.179	-169.000	
350.00	-73.591	-157.275	
351.00	-74.946	-113.269	
352.00	-70.907	-61.231	
353.00	-68.908	-54.727	
354.00	-65.124	-38.399	
355.00	-63.174	-37.481	
356.00	-61.773	-34.219	
357.00	-60.605	-34.763	
358.00	-59.425	-32.629	
359.00	-59.016	-30.497	
Frequency	2400.00	MHz	
Channel	test		
Scan Axis name	Azimuth  [deg]		
Scan Axis	Amplitude	Phase	
			
0.00	-80.885	2.336	
1.00	-85.035	-44.879	
2.00	-77.263	-127.501	
3.00	-80.447	-120.375	
4.00	-73.948	-156.084	
5.00	-73.069	-157.613	
6.00	-73.846	-170.255	
7.00	-70.547	-179.422	
8.00	-69.735	179.984	
9.00	-67.909	-172.457	
10.00	-69.273	-168.475	
11.00	-65.838	-162.724	
12.00	-65.709	-160.943	
13.00	-66.352	-158.038	
14.00	-64.666	-146.315	
15.00	-65.168	-142.784	
16.00	-65.053	-132.712	
17.00	-65.272	-131.508	
18.00	-65.128	-127.293	
19.00	-65.774	-119.895	
20.00	-65.591	-120.529	
21.00	-65.087	-112.099	
22.00	-66.274	-103.460	
23.00	-67.399	-96.828	
24.00	-70.952	-62.209	
25.00	-69.214	-54.437	
26.00	-71.195	-37.742	
27.00	-67.462	-10.895	
28.00	-68.432	7.764	
29.00	-78.040	69.700	
30.00	-70.021	39.478	
31.00	-71.224	86.672	
32.00	-65.970	73.892	
33.00	-68.690	92.653	
34.00	-65.477	77.022	
35.00	-65.928	140.276	
36.00	-63.290	144.595	
37.00	-65.806	125.306	
38.00	-62.173	154.441	
39.00	-66.995	179.049	
40.00	-65.895	-132.703	
41.00	-73.479	-128.047	
42.00	-66.920	-93.426	
43.00	-67.883	-52.913	
44.00	-67.022	-57.832	
45.00	-70.283	-62.191	
46.00	-62.801	24.834	
47.00	-60.569	-3.788	
48.00	-58.181	41.698	
49.00	-58.416	58.314	
50.00	-54.723	72.047	
51.00	-57.592	60.228	
52.00	-56.596	85.227	
53.00	-58.927	96.987	
54.00	-61.336	124.533	
55.00	-56.054	155.858	
56.00	-54.729	-169.998	
57.00	-56.012	178.273	
58.00	-55.290	-151.205	
59.00	-55.336	-131.797	
60.00	-56.576	-117.358	
61.00	-53.536	-103.234	
62.00	-55.166	-86.972	
63.00	-54.867	-49.224	
64.00	-56.002	-47.230	
65.00	-51.816	-33.371	
66.00	-55.148	-4.180	
67.00	-53.135	13.961	
68.00	-55.473	26.960	
69.00	-54.426	42.633	
70.00	-55.581	72.996	
71.00	-56.347	83.609	
72.00	-56.668	111.521	
73.00	-56.835	130.865	
74.00	-55.387	159.013	
75.00	-53.505	163.947	
76.00	-55.693	-172.785	
77.00	-55.865	-143.204	
78.00	-54.656	-120.369	
79.00	-55.456	-85.007	
80.00	-54.185	-58.735	
81.00	-52.245	-58.041	
82.00	-51.460	-37.855	
83.00	-51.064	-21.225	
84.00	-54.145	-22.029	
85.00	-55.151	3.814	
86.00	-53.566	28.558	
87.00	-56.508	52.899	
88.00	-54.386	80.095	
89.00	-57.058	71.519	
90.00	-59.164	81.787	
91.00	-56.061	138.499	
92.00	-62.292	147.387	
93.00	-59.191	169.179	
94.00	-59.549	171.821	
95.00	-60.750	-131.322	
96.00	-59.273	-122.337	
97.00	-59.926	-111.767	
98.00	-64.423	-60.222	
99.00	-62.449	-8.740	
100.00	-60.457	-14.844	
101.00	-59.615	3.357	
102.00	-59.293	18.204	
103.00	-59.700	17.783	
104.00	-59.506	44.217	
105.00	-59.531	35.748	
106.00	-59.605	70.256	
107.00	-59.061	48.948	
108.00	-61.571	39.703	
109.00	-63.416	70.856	
110.00	-59.736	94.679	
111.00	-59.482	91.593	
112.00	-58.187	99.132	
113.00	-59.112	106.523	
114.00	-57.618	147.955	
115.00	-55.392	165.629	
116.00	-55.829	176.000	
117.00	-52.981	-177.049	
118.00	-54.502	-152.866	
119.00	-52.897	-135.548	
120.00	-51.014	-127.609	
121.00	-49.124	-107.089	
122.00	-48.492	-100.735	
123.00	-47.907	-80.784	
124.00	-46.902	-70.640	
125.00	-46.372	-51.538	
126.00	-46.032	-42.289	
127.00	-44.962	-28.612	
128.00	-44.273	-12.709	
129.00	-43.489	0.543	
130.00	-42.887	14.354	
131.00	-42.256	24.965	
132.00	-41.532	36.120	
133.00	-40.916	46.623	
134.00	-40.267	58.343	
135.00	-39.853	65.922	
136.00	-39.252	78.395	
137.00	-38.709	87.206	
138.00	-38.310	100.307	
139.00	-37.705	115.950	
140.00	-37.355	124.973	
141.00	-36.861	143.972	
142.00	-36.360	149.617	
143.00	-35.931	165.600	
144.00	-35.452	172.727	
145.00	-35.078	-175.602	
146.00	-34.612	-168.082	
147.00	-34.230	-163.499	
148.00	-33.820	-156.185	
149.00	-33.449	-142.903	
150.00	-33.051	-137.741	
151.00	-32.685	-129.064	
152.00	-32.309	-123.394	
153.00	-31.966	-106.852	
154.00	-31.613	-108.714	
155.00	-31.259	-96.417	
156.00	-30.978	-99.186	
157.00	-30.628	-88.057	
158.00	-30.342	-87.429	
159.00	-30.074	-79.183	
160.00	-29.873	-80.951	
161.00	-29.654	-70.593	
162.00	-29.490	-68.367	
163.00	-29.291	-65.504	
164.00	-29.175	-65.839	
165.00	-29.031	-66.453	
166.00	-28.911	-54.446	
167.00	-28.797	-56.463	
168.00	-28.714	-54.121	
169.00	-28.630	-57.937	
170.00	-28.566	-56.353	
171.00	-28.499	-53.478	
172.00	-28.424	-52.903	
173.00	-28.337	-51.668	
174.00	-28.318	-51.560	
175.00	-28.280	-46.995	
176.00	-28.237	-50.921	
177.00	-28.223	-55.136	
178.00	-28.207	-62.574	
179.00	-28.225	-59.500	
180.00	-28.211	-66.042	
181.00	-28.238	-65.314	
182.00	-28.308	-72.673	
183.00	-28.321	-74.118	
184.00	-28.366	-74.198	
185.00	-28.420	-80.255	
186.00	-28.506	-88.723	
187.00	-28.589	-89.033	
188.00	-28.685	-99.402	
189.00	-28.768	-108.038	
190.00	-28.895	-115.936	
191.00	-29.018	-124.427	
192.00	-29.172	-129.895	
193.00	-29.314	-139.759	
194.00	-29.466	-147.398	
195.00	-29.626	-154.076	
196.00	-29.804	-163.469	
197.00	-30.030	-174.195	
198.00	-30.219	178.167	
199.00	-30.428	170.624	
200.00	-30.683	159.496	
201.00	-30.956	151.309	
202.00	-31.235	139.653	
203.00	-31.508	131.773	
204.00	-31.806	119.007	
205.00	-32.117	109.083	
206.00	-32.420	95.699	
207.00	-32.742	84.747	
208.00	-33.045	78.285	
209.00	-33.342	53.764	
210.00	-33.728	48.805	
211.00	-34.003	32.991	
212.00	-34.337	22.991	
213.00	-34.669	10.705	
214.00	-35.046	-9.130	
215.00	-35.442	-20.724	
216.00	-35.766	-32.502	
217.00	-36.236	-48.083	
218.00	-36.592	-61.388	
219.00	-37.078	-80.269	
220.00	-37.597	-94.085	
221.00	-38.120	-105.371	
222.00	-38.635	-123.414	
223.00	-39.306	-139.857	
224.00	-39.850	-156.434	
225.00	-40.529	-171.975	
226.00	-41.240	173.152	
227.00	-41.895	152.816	
228.00	-42.551	134.741	
229.00	-43.270	118.980	
230.00	-43.814	96.507	
231.00	-44.739	81.163	
232.00	-45.645	62.086	
233.00	-46.477	45.177	
234.00	-47.786	22.560	
235.00	-48.838	4.445	
236.00	-50.376	-21.345	
237.00	-51.854	-42.513	
238.00	-53.284	-67.363	
239.00	-54.599	-108.064	
240.00	-55.040	-133.355	
241.00	-55.231	-165.492	
242.00	-55.390	167.454	
243.00	-55.445	140.485	
244.00	-54.981	117.775	
245.00	-54.655	88.900	
246.00	-54.452	69.236	
247.00	-54.714	38.635	
248.00	-54.720	22.344	
249.00	-55.034	-1.377	
250.00	-55.826	-25.184	
251.00	-56.020	-48.183	
252.00	-56.278	-75.523	
253.00	-56.162	-97.712	
254.00	-56.573	-119.867	
255.00	-56.315	-150.278	
256.00	-56.649	-173.798	
257.00	-57.106	163.956	
258.00	-57.027	134.530	
259.00	-57.004	113.823	
260.00	-57.430	84.239	
261.00	-57.299	62.843	
262.00	-56.940	38.692	
263.00	-57.162	15.336	
264.00	-56.423	-2.648	
265.00	-57.304	-29.156	
266.00	-57.097	-49.995	
267.00	-57.355	-67.153	
268.00	-58.151	-89.442	
269.00	-58.320	-109.804	
270.00	-59.112	-135.554	
271.00	-59.602	-158.185	
272.00	-60.463	171.278	
273.00	-60.011	146.951	
274.00	-61.158	124.183	
275.00	-61.588	102.002	
276.00	-61.671	80.896	
277.00	-62.772	56.793	
278.00	-63.149	41.069	
279.00	-66.538	13.656	
280.00	-66.869	-2.132	
281.00	-68.364	-44.568	
282.00	-67.784	-78.203	
283.00	-65.702	-126.601	
284.00	-62.274	-157.829	
285.00	-61.564	-175.395	
286.00	-61.419	168.646	
287.00	-60.803	152.800	
288.00	-61.473	144.360	
289.00	-61.853	132.261	
290.00	-62.471	117.881	
291.00	-64.179	106.306	
292.00	-66.909	92.732	
293.00	-68.080	84.124	
294.00	-73.049	50.732	
295.00	-77.458	39.443	
296.00	-79.471	-14.041	
297.00	-76.187	-33.454	
298.00	-72.925	-63.489	
299.00	-73.830	-80.537	
300.00	-74.009	-84.048	
301.00	-72.571	-107.140	
302.00	-75.212	-106.250	
303.00	-74.509	-80.638	
304.00	-77.254	-65.833	
305.00	-70.506	-46.992	
306.00	-69.510	-55.060	
307.00	-67.183	-49.266	
308.00	-66.647	-67.848	
309.00	-66.139	-73.014	
310.00	-65.072	-72.834	
311.00	-66.529	-92.394	
312.00	-65.034	-107.644	
313.00	-66.301	-127.209	
314.00	-67.205	-142.455	
315.00	-66.314	-163.002	
316.00	-66.242	-179.093	
317.00	-66.454	159.021	
318.00	-66.953	141.745	
319.00	-66.125	132.203	
320.00	-66.105	112.211	
321.00	-66.127	92.687	
322.00	-66.614	80.419	
323.00	-65.430	67.672	
324.00	-65.918	46.317	
325.00	-65.645	40.979	
326.00	-65.394	25.128	
327.00	-64.754	13.988	
328.00	-64.950	0.154	
329.00	-65.400	-5.704	
330.00	-65.676	-26.122	
331.00	-65.363	-32.736	
332.00	-66.176	-53.875	
333.00	-66.448	-57.321	
334.00	-68.010	-73.049	
335.00	-69.286	-80.759	
336.00	-67.580	-87.072	
337.00	-68.476	-106.152	
338.00	-68.229	-113.547	
339.00	-70.094	-121.806	
340.00	-70.292	-130.975	
341.00	-69.335	-162.625	
342.00	-71.853	-165.592	
343.00	-70.416	-179.292	
344.00	-74.377	168.998	
345.00	-74.190	144.084	
346.00	-71.263	107.350	
347.00	-69.970	104.673	
348.00	-67.816	100.153	
349.00	-69.746	79.062	
350.00	-68.839	76.346	
351.00	-70.176	70.163	
352.00	-67.709	72.656	
353.00	-68.859	42.249	
354.00	-68.403	41.798	
355.00	-68.894	28.496	
356.00	-70.430	22.443	
357.00	-70.556	17.590	
358.00	-71.478	6.399	
359.00	-76.538	-5.510	
Frequency	2450.00	MHz	
Channel	test		
Scan Axis name	Azimuth  [deg]		
Scan Axis	Amplitude	Phase	
			
0.00	-67.846	71.075	
1.00	-73.358	87.710	
2.00	-72.336	120.341	
3.00	-72.410	138.699	
4.00	-71.002	158.164	
5.00	-69.373	174.137	
6.00	-68.719	170.337	
7.00	-67.268	172.523	
8.00	-65.954	-175.852	
9.00	-65.721	-170.779	
10.00	-67.705	-152.389	
11.00	-68.430	-155.747	
12.00	-69.435	-119.308	
13.00	-73.164	-109.100	
14.00	-69.416	-88.243	
15.00	-71.461	-86.279	
16.00	-68.936	-63.544	
17.00	-67.602	-56.654	
18.00	-66.524	-22.511	
19.00	-64.085	-15.733	
20.00	-63.642	-2.957	
21.00	-62.983	3.078	
22.00	-63.235	11.516	
23.00	-59.936	34.823	
24.00	-59.349	32.291	
25.00	-59.480	30.112	
26.00	-58.722	36.442	
27.00	-59.269	54.368	
28.00	-60.913	65.600	
29.00	-62.471	79.147	
30.00	-62.790	127.841	
31.00	-63.529	126.211	
32.00	-64.280	157.645	
33.00	-59.566	-179.373	
34.00	-59.232	-171.197	
35.00	-57.620	-149.192	
36.00	-56.670	-133.588	
37.00	-56.336	-127.269	
38.00	-56.493	-113.755	
39.00	-55.490	-109.076	
40.00	-56.393	-101.412	
41.00	-56.135	-81.061	
42.00	-60.233	-68.662	
43.00	-59.856	-40.954	
44.00	-59.543	-19.178	
45.00	-67.845	-20.571	
46.00	-64.054	32.690	
47.00	-62.920	59.850	
48.00	-61.181	75.608	
49.00	-60.253	132.991	
50.00	-59.418	122.166	
51.00	-57.715	139.374	
52.00	-55.568	156.781	
53.00	-56.901	-175.459	
54.00	-56.699	-176.022	
55.00	-57.158	-149.839	
56.00	-57.765	-132.785	
57.00	-55.203	-96.984	
58.00	-55.635	-95.621	
59.00	-59.651	-71.593	
60.00	-59.187	-55.337	
61.00	-61.030	-26.708	
62.00	-64.988	20.248	
63.00	-57.357	33.360	
64.00	-58.983	46.141	
65.00	-57.282	86.446	
66.00	-56.001	107.300	
67.00	-55.174	104.743	
68.00	-54.345	142.888	
69.00	-54.500	-174.265	
70.00	-57.909	163.866	
71.00	-55.988	-177.925	
72.00	-56.796	-152.056	
73.00	-58.117	-113.737	
74.00	-59.789	-84.733	
75.00	-60.790	17.248	
76.00	-58.239	-35.139	
77.00	-55.492	-5.182	
78.00	-56.707	-18.896	
79.00	-56.292	27.338	
80.00	-57.485	35.775	
81.00	-56.797	56.432	
82.00	-58.687	92.752	
83.00	-59.113	99.339	
84.00	-56.746	150.575	
85.00	-61.856	160.773	
86.00	-55.364	-167.853	
87.00	-56.181	-149.559	
88.00	-54.345	-107.284	
89.00	-52.576	-95.243	
90.00	-58.612	-60.863	
91.00	-54.718	-49.630	
92.00	-53.373	-24.890	
93.00	-53.734	-20.232	
94.00	-50.747	9.864	
95.00	-54.352	31.134	
96.00	-52.949	53.515	
97.00	-53.732	54.148	
98.00	-53.139	89.405	
99.00	-54.899	118.938	
100.00	-55.970	141.319	
101.00	-55.473	144.784	
102.00	-58.475	172.367	
103.00	-60.225	-137.476	
104.00	-58.778	-132.593	
105.00	-56.989	-85.732	
106.00	-56.555	-86.433	
107.00	-58.263	-80.228	
108.00	-55.957	-86.443	
109.00	-61.909	-71.975	
110.00	-58.501	-47.047	
111.00	-61.643	-24.934	
112.00	-61.179	-63.143	
113.00	-58.248	-37.650	
114.00	-65.125	-41.360	
115.00	-62.914	-37.177	
116.00	-63.013	-55.761	
117.00	-57.248	-13.043	
118.00	-57.099	-9.666	
119.00	-55.543	8.995	
120.00	-54.970	28.592	
121.00	-52.389	8.356	
122.00	-53.730	53.625	
123.00	-51.292	55.417	
124.00	-50.756	67.085	
125.00	-50.669	85.479	
126.00	-48.477	105.376	
127.00	-47.281	112.769	
128.00	-47.497	128.450	
129.00	-46.047	150.893	
130.00	-44.883	160.819	
131.00	-44.085	168.466	
132.00	-43.217	-173.955	
133.00	-42.323	-165.200	
134.00	-41.685	-154.760	
135.00	-40.745	-146.262	
136.00	-40.415	-131.584	
137.00	-39.711	-122.700	
138.00	-38.767	-110.216	
139.00	-38.294	-95.170	
140.00	-37.852	-86.627	
141.00	-37.186	-67.441	
142.00	-36.570	-62.656	
143.00	-36.215	-46.712	
144.00	-35.661	-40.110	
145.00	-35.247	-29.050	
146.00	-34.876	-21.481	
147.00	-34.494	-17.279	
148.00	-34.070	-9.711	
149.00	-33.689	3.098	
150.00	-33.272	8.030	
151.00	-32.940	16.891	
152.00	-32.530	22.457	
153.00	-32.229	38.754	
154.00	-31.897	37.254	
155.00	-31.573	49.220	
156.00	-31.274	46.712	
157.00	-31.007	57.850	
158.00	-30.739	58.672	
159.00	-30.473	67.010	
160.00	-30.222	65.865	
161.00	-30.010	76.283	
162.00	-29.807	78.854	
163.00	-29.643	81.723	
164.00	-29.452	81.599	
165.00	-29.288	80.949	
166.00	-29.148	93.112	
167.00	-29.026	91.081	
168.00	-28.917	93.804	
169.00	-28.797	89.356	
170.00	-28.703	91.217	
171.00	-28.601	94.131	
172.00	-28.512	94.626	
173.00	-28.478	95.898	
174.00	-28.401	96.007	
175.00	-28.351	100.662	
176.00	-28.310	96.721	
177.00	-28.279	92.637	
178.00	-28.261	84.916	
179.00	-28.271	88.340	
180.00	-28.275	82.010	
181.00	-28.307	82.617	
182.00	-28.345	75.731	
183.00	-28.407	73.760	
184.00	-28.481	73.837	
185.00	-28.544	68.023	
186.00	-28.648	59.383	
187.00	-28.773	59.103	
188.00	-28.903	48.263	
189.00	-29.038	39.420	
190.00	-29.168	31.424	
191.00	-29.347	22.437	
192.00	-29.510	16.523	
193.00	-29.671	6.569	
194.00	-29.850	-1.627	
195.00	-30.063	-8.824	
196.00	-30.229	-18.408	
197.00	-30.428	-30.268	
198.00	-30.629	-38.174	
199.00	-30.832	-46.213	
200.00	-31.040	-57.979	
201.00	-31.277	-66.740	
202.00	-31.481	-78.803	
203.00	-31.748	-87.155	
204.00	-31.948	-100.085	
205.00	-32.179	-110.378	
206.00	-32.478	-123.763	
207.00	-32.741	-134.928	
208.00	-32.974	-141.162	
209.00	-33.277	-165.961	
210.00	-33.631	-171.013	
211.00	-33.960	173.789	
212.00	-34.294	163.413	
213.00	-34.692	151.526	
214.00	-35.081	131.715	
215.00	-35.580	119.219	
216.00	-35.971	107.605	
217.00	-36.482	91.947	
218.00	-37.071	77.950	
219.00	-37.593	57.741	
220.00	-38.238	43.235	
221.00	-38.788	30.390	
222.00	-39.407	11.686	
223.00	-39.976	-6.216	
224.00	-40.497	-23.395	
225.00	-41.124	-40.300	
226.00	-41.735	-55.423	
227.00	-42.349	-76.708	
228.00	-43.089	-95.381	
229.00	-43.725	-111.850	
230.00	-44.585	-134.728	
231.00	-45.408	-151.665	
232.00	-46.226	-171.597	
233.00	-47.357	167.885	
234.00	-48.670	142.290	
235.00	-49.571	121.768	
236.00	-50.628	94.043	
237.00	-51.400	70.498	
238.00	-52.250	45.475	
239.00	-52.720	7.308	
240.00	-53.286	-14.533	
241.00	-53.639	-42.575	
242.00	-54.236	-71.576	
243.00	-54.422	-93.466	
244.00	-54.578	-118.368	
245.00	-54.567	-153.494	
246.00	-54.323	-177.039	
247.00	-54.315	152.317	
248.00	-53.960	132.139	
249.00	-53.610	104.282	
250.00	-53.585	82.857	
251.00	-53.651	60.033	
252.00	-53.886	37.798	
253.00	-54.086	12.068	
254.00	-53.865	-9.463	
255.00	-53.639	-40.125	
256.00	-53.862	-59.126	
257.00	-53.654	-84.389	
258.00	-53.861	-107.436	
259.00	-53.829	-129.018	
260.00	-53.767	-157.093	
261.00	-53.631	-174.991	
262.00	-53.358	161.309	
263.00	-53.299	142.400	
264.00	-53.653	122.479	
265.00	-54.078	103.587	
266.00	-55.156	81.317	
267.00	-55.895	66.220	
268.00	-57.530	42.722	
269.00	-58.893	18.022	
270.00	-61.218	-18.895	
271.00	-61.822	-50.860	
272.00	-61.553	-87.668	
273.00	-60.828	-121.814	
274.00	-59.408	-149.203	
275.00	-59.542	-170.073	
276.00	-58.937	169.102	
277.00	-58.602	141.982	
278.00	-58.551	129.130	
279.00	-58.316	98.652	
280.00	-58.287	83.201	
281.00	-58.227	60.214	
282.00	-58.778	44.570	
283.00	-58.941	14.917	
284.00	-59.861	-12.267	
285.00	-60.939	-38.266	
286.00	-62.321	-60.936	
287.00	-63.866	-96.425	
288.00	-63.333	-131.157	
289.00	-62.993	-159.547	
290.00	-61.012	175.375	
291.00	-60.913	149.795	
292.00	-59.847	131.802	
293.00	-58.770	120.948	
294.00	-59.516	100.972	
295.00	-59.830	87.373	
296.00	-60.005	70.778	
297.00	-61.226	51.821	
298.00	-61.001	30.058	
299.00	-60.838	0.575	
300.00	-60.759	-21.207	
301.00	-60.723	-38.104	
302.00	-60.096	-52.301	
303.00	-59.580	-74.310	
304.00	-60.106	-87.690	
305.00	-60.398	-100.866	
306.00	-61.016	-114.169	
307.00	-62.428	-128.590	
308.00	-62.600	-137.912	
309.00	-63.599	-146.040	
310.00	-64.705	-156.774	
311.00	-63.947	-166.455	
312.00	-66.559	-163.810	
313.00	-68.448	-163.365	
314.00	-69.789	-148.212	
315.00	-71.634	-122.277	
316.00	-69.238	-129.281	
317.00	-68.281	-126.562	
318.00	-66.838	-139.808	
319.00	-66.632	-118.024	
320.00	-67.284	-112.230	
321.00	-66.356	-102.344	
322.00	-68.742	-105.707	
323.00	-69.309	-84.947	
324.00	-72.302	-81.452	
325.00	-70.206	-57.335	
326.00	-67.903	-58.868	
327.00	-67.393	-53.553	
328.00	-68.380	-62.565	
329.00	-68.047	-53.086	
330.00	-68.004	-60.469	
331.00	-68.379	-63.766	
332.00	-69.203	-65.136	
333.00	-69.640	-74.615	
334.00	-71.696	-91.589	
335.00	-72.340	-77.965	
336.00	-72.283	-124.447	
337.00	-76.752	-133.274	
338.00	-74.339	-150.311	
339.00	-77.320	170.999	
340.00	-71.430	159.452	
341.00	-73.448	121.207	
342.00	-69.443	125.176	
343.00	-69.569	93.172	
344.00	-68.266	97.415	
345.00	-67.218	83.857	
346.00	-67.804	72.542	
347.00	-66.742	63.813	
348.00	-65.519	55.528	
349.00	-65.343	50.389	
350.00	-64.736	47.459	
351.00	-64.331	38.684	
352.00	-63.245	38.564	
353.00	-63.501	31.222	
354.00	-62.851	35.047	
355.00	-64.523	28.690	
356.00	-65.071	32.510	
357.00	-66.627	38.098	
358.00	-68.168	38.002	
359.00	-68.591	54.573	
Frequency	2496.00	MHz	
Channel	test		
Scan Axis name	Azimuth  [deg]		
Scan Axis	Amplitude	Phase	
			
0.00	-67.427	-153.907	
1.00	-68.734	-151.151	
2.00	-68.804	-161.564	
3.00	-69.188	-153.103	
4.00	-69.411	-140.428	
5.00	-70.004	-122.070	
6.00	-70.299	-108.309	
7.00	-69.339	-93.239	
8.00	-70.340	-79.853	
9.00	-70.867	-60.787	
10.00	-68.685	-54.590	
11.00	-69.298	-34.607	
12.00	-66.566	-28.309	
13.00	-68.842	-22.692	
14.00	-70.906	-8.573	
15.00	-69.624	15.082	
16.00	-66.298	26.176	
17.00	-65.631	22.477	
18.00	-64.427	40.392	
19.00	-65.607	47.640	
20.00	-64.562	48.095	
21.00	-66.086	47.176	
22.00	-65.841	54.539	
23.00	-66.171	63.359	
24.00	-68.434	62.203	
25.00	-66.561	60.169	
26.00	-71.039	63.763	
27.00	-71.150	91.705	
28.00	-72.353	69.168	
29.00	-78.785	65.656	
30.00	-73.516	39.440	
31.00	-68.349	8.763	
32.00	-67.970	-10.814	
33.00	-65.353	0.999	
34.00	-62.631	3.331	
35.00	-60.660	10.490	
36.00	-59.120	20.502	
37.00	-57.912	28.378	
38.00	-57.633	33.309	
39.00	-57.708	39.470	
40.00	-58.148	49.651	
41.00	-59.223	56.167	
42.00	-60.694	77.619	
43.00	-61.420	85.620	
44.00	-62.909	108.673	
45.00	-63.468	130.806	
46.00	-63.142	159.023	
47.00	-62.250	-172.519	
48.00	-59.980	-144.825	
49.00	-59.891	-122.726	
50.00	-58.715	-102.224	
51.00	-55.720	-89.069	
52.00	-57.815	-73.487	
53.00	-56.290	-55.372	
54.00	-56.390	-33.198	
55.00	-56.426	-24.081	
56.00	-56.324	7.465	
57.00	-56.113	20.497	
58.00	-55.397	47.262	
59.00	-56.959	66.060	
60.00	-55.624	74.184	
61.00	-56.026	99.813	
62.00	-55.355	127.264	
63.00	-57.367	154.937	
64.00	-57.698	166.729	
65.00	-56.982	-168.098	
66.00	-57.440	-146.068	
67.00	-55.497	-109.524	
68.00	-56.845	-91.834	
69.00	-55.143	-71.664	
70.00	-55.331	-46.593	
71.00	-55.039	-26.755	
72.00	-54.921	-6.078	
73.00	-54.330	12.490	
74.00	-55.123	29.408	
75.00	-54.207	56.373	
76.00	-55.419	75.505	
77.00	-54.211	96.951	
78.00	-54.774	112.525	
79.00	-54.207	130.424	
80.00	-54.610	160.412	
81.00	-53.936	-177.845	
82.00	-54.345	-159.086	
83.00	-56.127	-138.913	
84.00	-54.231	-108.379	
85.00	-55.394	-97.055	
86.00	-56.145	-57.271	
87.00	-55.226	-33.107	
88.00	-55.298	-8.096	
89.00	-54.520	12.890	
90.00	-54.204	37.293	
91.00	-54.088	63.415	
92.00	-54.304	82.802	
93.00	-54.233	108.307	
94.00	-54.150	119.258	
95.00	-53.993	150.247	
96.00	-53.678	-174.112	
97.00	-54.732	-155.209	
98.00	-53.524	-128.859	
99.00	-53.685	-106.386	
100.00	-53.261	-87.069	
101.00	-54.089	-74.041	
102.00	-54.523	-54.963	
103.00	-55.804	-36.550	
104.00	-54.298	-13.913	
105.00	-56.538	-1.013	
106.00	-58.811	17.934	
107.00	-60.006	25.255	
108.00	-64.978	59.452	
109.00	-67.414	86.333	
110.00	-64.734	143.896	
111.00	-66.013	145.437	
112.00	-71.638	172.066	
113.00	-71.472	-179.421	
114.00	-76.033	-125.140	
115.00	-69.560	-87.279	
116.00	-77.045	26.695	
117.00	-71.671	76.893	
118.00	-63.885	108.350	
119.00	-63.849	101.357	
120.00	-60.331	132.345	
121.00	-57.934	142.887	
122.00	-56.120	159.117	
123.00	-56.540	175.625	
124.00	-54.747	-173.660	
125.00	-52.150	-156.428	
126.00	-51.240	-142.240	
127.00	-50.193	-123.754	
128.00	-49.011	-107.550	
129.00	-48.562	-92.387	
130.00	-47.452	-73.920	
131.00	-46.487	-65.211	
132.00	-45.538	-50.814	
133.00	-44.608	-40.081	
134.00	-43.931	-27.681	
135.00	-43.027	-18.646	
136.00	-42.317	-5.452	
137.00	-41.718	4.085	
138.00	-40.885	17.210	
139.00	-40.236	32.565	
140.00	-39.582	41.173	
141.00	-39.024	61.187	
142.00	-38.449	66.253	
143.00	-37.854	82.932	
144.00	-37.370	90.880	
145.00	-36.865	102.730	
146.00	-36.363	110.690	
147.00	-35.854	115.411	
148.00	-35.428	122.503	
149.00	-34.967	136.225	
150.00	-34.524	141.358	
151.00	-34.090	150.448	
152.00	-33.695	156.506	
153.00	-33.273	172.914	
154.00	-32.873	172.285	
155.00	-32.517	-175.568	
156.00	-32.127	-177.845	
157.00	-31.784	-166.578	
158.00	-31.458	-165.491	
159.00	-31.112	-157.015	
160.00	-30.853	-157.712	
161.00	-30.559	-147.461	
162.00	-30.305	-144.181	
163.00	-30.083	-141.520	
164.00	-29.868	-141.333	
165.00	-29.678	-141.928	
166.00	-29.497	-129.327	
167.00	-29.354	-131.391	
168.00	-29.206	-128.543	
169.00	-29.058	-133.075	
170.00	-28.955	-131.264	
171.00	-28.866	-127.860	
172.00	-28.772	-127.462	
173.00	-28.698	-125.936	
174.00	-28.617	-125.947	
175.00	-28.566	-121.227	
176.00	-28.512	-125.164	
177.00	-28.469	-129.186	
178.00	-28.448	-137.466	
179.00	-28.420	-134.224	
180.00	-28.424	-140.454	
181.00	-28.432	-140.213	
182.00	-28.473	-146.890	
183.00	-28.490	-149.560	
184.00	-28.536	-149.666	
185.00	-28.589	-155.602	
186.00	-28.663	-164.598	
187.00	-28.737	-164.987	
188.00	-28.840	-176.272	
189.00	-28.932	174.623	
190.00	-29.048	166.601	
191.00	-29.165	157.490	
192.00	-29.328	151.048	
193.00	-29.462	141.311	
194.00	-29.610	132.976	
195.00	-29.804	125.660	
196.00	-29.955	116.279	
197.00	-30.151	103.563	
198.00	-30.331	96.425	
199.00	-30.556	87.781	
200.00	-30.728	76.234	
201.00	-30.947	67.167	
202.00	-31.181	55.208	
203.00	-31.409	46.746	
204.00	-31.633	33.712	
205.00	-31.909	23.141	
206.00	-32.164	9.905	
207.00	-32.457	-1.536	
208.00	-32.738	-7.983	
209.00	-33.053	-33.296	
210.00	-33.411	-38.514	
211.00	-33.731	-54.325	
212.00	-34.085	-64.689	
213.00	-34.460	-76.972	
214.00	-34.849	-97.471	
215.00	-35.275	-110.338	
216.00	-35.666	-121.764	
217.00	-36.123	-138.028	
218.00	-36.629	-152.142	
219.00	-37.148	-172.593	
220.00	-37.714	172.749	
221.00	-38.263	160.590	
222.00	-38.844	141.973	
223.00	-39.486	124.596	
224.00	-40.113	107.034	
225.00	-40.813	89.898	
226.00	-41.542	74.773	
227.00	-42.236	53.009	
228.00	-43.010	33.314	
229.00	-43.753	15.849	
230.00	-44.493	-8.121	
231.00	-45.299	-25.488	
232.00	-46.244	-47.004	
233.00	-47.108	-66.007	
234.00	-48.143	-90.544	
235.00	-49.438	-110.940	
236.00	-50.611	-138.739	
237.00	-51.830	-161.610	
238.00	-53.037	170.535	
239.00	-53.847	129.615	
240.00	-54.328	100.496	
241.00	-54.210	69.247	
242.00	-53.951	41.385	
243.00	-53.677	15.612	
244.00	-53.474	-8.475	
245.00	-53.165	-41.872	
246.00	-52.823	-61.477	
247.00	-52.690	-91.858	
248.00	-52.274	-111.290	
249.00	-52.354	-135.336	
250.00	-52.320	-160.195	
251.00	-52.160	179.247	
252.00	-52.555	154.905	
253.00	-52.622	130.542	
254.00	-52.740	110.429	
255.00	-52.696	79.111	
256.00	-52.796	55.059	
257.00	-52.608	29.950	
258.00	-52.706	5.986	
259.00	-52.420	-14.515	
260.00	-52.583	-43.071	
261.00	-52.430	-63.280	
262.00	-52.516	-85.639	
263.00	-52.441	-108.166	
264.00	-52.841	-129.457	
265.00	-53.085	-151.455	
266.00	-53.431	-172.143	
267.00	-54.196	169.383	
268.00	-55.500	141.195	
269.00	-56.483	119.198	
270.00	-57.363	85.184	
271.00	-57.240	54.153	
272.00	-56.520	19.261	
273.00	-55.402	-11.091	
274.00	-55.081	-31.117	
275.00	-54.682	-50.668	
276.00	-54.339	-66.440	
277.00	-54.320	-91.076	
278.00	-54.729	-107.029	
279.00	-54.913	-133.120	
280.00	-54.730	-147.440	
281.00	-55.472	-168.615	
282.00	-56.130	173.635	
283.00	-56.764	145.249	
284.00	-58.298	112.524	
285.00	-59.515	84.861	
286.00	-60.362	56.211	
287.00	-61.653	26.526	
288.00	-60.838	-8.870	
289.00	-60.711	-31.030	
290.00	-60.189	-56.068	
291.00	-59.233	-76.879	
292.00	-58.293	-96.046	
293.00	-59.031	-106.725	
294.00	-58.481	-119.874	
295.00	-58.863	-144.062	
296.00	-59.742	-156.400	
297.00	-60.870	-173.952	
298.00	-61.464	165.087	
299.00	-62.410	136.689	
300.00	-63.238	116.137	
301.00	-63.353	88.151	
302.00	-64.059	57.577	
303.00	-64.605	30.784	
304.00	-63.848	10.282	
305.00	-63.047	-14.296	
306.00	-62.749	-29.616	
307.00	-64.105	-41.498	
308.00	-65.237	-59.738	
309.00	-67.655	-74.916	
310.00	-66.964	-96.160	
311.00	-70.555	-114.346	
312.00	-71.841	-124.151	
313.00	-75.247	-150.525	
314.00	-79.531	136.575	
315.00	-74.414	83.031	
316.00	-71.939	74.012	
317.00	-72.725	55.034	
318.00	-71.804	32.172	
319.00	-70.214	15.178	
320.00	-71.303	16.593	
321.00	-72.508	-0.220	
322.00	-71.859	-19.509	
323.00	-71.475	-37.816	
324.00	-70.331	-49.881	
325.00	-74.490	-57.704	
326.00	-74.118	-84.461	
327.00	-76.103	-92.031	
328.00	-85.817	-86.190	
329.00	-94.315	-120.230	
330.00	-80.483	34.431	
331.00	-95.087	141.844	
332.00	-80.580	35.473	
333.00	-84.107	19.575	
334.00	-74.310	30.354	
335.00	-76.036	19.266	
336.00	-73.989	32.260	
337.00	-78.526	-7.329	
338.00	-74.542	-8.061	
339.00	-74.029	-41.747	
340.00	-71.504	-35.748	
341.00	-74.870	-68.860	
342.00	-72.282	-78.705	
343.00	-73.469	-78.685	
344.00	-72.280	-77.510	
345.00	-70.804	-84.619	
346.00	-71.919	-96.784	
347.00	-71.291	-80.112	
348.00	-72.520	-106.325	
349.00	-76.407	-105.704	
350.00	-73.990	-99.701	
351.00	-72.127	-141.599	
352.00	-71.355	-128.717	
353.00	-71.124	-147.236	
354.00	-69.272	-156.668	
355.00	-71.270	-174.818	
356.00	-67.743	-158.449	
357.00	-66.929	-155.097	
358.00	-68.559	-175.967	
359.00	-67.306	-159.435	
Frequency	2550.00	MHz	
Channel	test		
Scan Axis name	Azimuth  [deg]		
Scan Axis	Amplitude	Phase	
			
0.00	-69.825	-59.053	
1.00	-69.611	-58.762	
2.00	-69.972	-39.855	
3.00	-68.679	-24.353	
4.00	-67.753	-3.780	
5.00	-66.239	3.417	
6.00	-65.314	15.982	
7.00	-63.738	15.230	
8.00	-62.570	29.245	
9.00	-61.897	31.464	
10.00	-59.879	45.350	
11.00	-59.998	47.313	
12.00	-58.773	52.877	
13.00	-59.596	57.968	
14.00	-59.342	64.826	
15.00	-59.027	71.956	
16.00	-59.452	77.329	
17.00	-59.647	79.711	
18.00	-60.469	84.006	
19.00	-60.472	92.565	
20.00	-61.274	100.298	
21.00	-62.590	113.961	
22.00	-61.895	131.446	
23.00	-63.223	135.770	
24.00	-64.036	150.775	
25.00	-64.857	169.022	
26.00	-64.249	-169.427	
27.00	-66.143	-166.688	
28.00	-65.662	-151.386	
29.00	-69.387	-119.681	
30.00	-68.621	-96.825	
31.00	-68.061	-93.453	
32.00	-71.840	-50.030	
33.00	-71.057	-15.390	
34.00	-71.407	19.795	
35.00	-69.015	48.423	
36.00	-66.798	72.423	
37.00	-66.252	83.173	
38.00	-65.111	101.861	
39.00	-64.578	117.697	
40.00	-61.889	125.776	
41.00	-60.259	134.413	
42.00	-60.510	151.783	
43.00	-60.972	166.275	
44.00	-61.200	174.163	
45.00	-59.350	-173.190	
46.00	-60.711	-162.105	
47.00	-63.187	-141.449	
48.00	-63.735	-122.909	
49.00	-68.396	-70.259	
50.00	-70.606	-34.026	
51.00	-66.201	4.467	
52.00	-64.883	27.015	
53.00	-62.354	53.076	
54.00	-61.661	77.183	
55.00	-60.360	94.297	
56.00	-58.881	105.653	
57.00	-59.758	133.769	
58.00	-59.551	149.061	
59.00	-60.285	170.072	
60.00	-59.804	-172.257	
61.00	-59.013	-138.259	
62.00	-58.716	-113.576	
63.00	-57.748	-99.381	
64.00	-57.962	-71.827	
65.00	-57.053	-55.629	
66.00	-57.382	-36.470	
67.00	-57.070	-14.249	
68.00	-56.088	6.465	
69.00	-59.178	27.852	
70.00	-56.602	45.361	
71.00	-56.348	78.520	
72.00	-58.150	102.906	
73.00	-58.930	137.003	
74.00	-58.469	155.124	
75.00	-56.645	175.670	
76.00	-57.000	-169.123	
77.00	-56.004	-133.988	
78.00	-56.107	-119.591	
79.00	-56.267	-105.522	
80.00	-55.339	-85.554	
81.00	-55.555	-62.351	
82.00	-55.388	-31.026	
83.00	-57.193	-15.926	
84.00	-55.911	15.692	
85.00	-57.942	28.707	
86.00	-57.407	63.214	
87.00	-56.392	86.716	
88.00	-56.683	122.539	
89.00	-57.195	137.576	
90.00	-56.577	162.891	
91.00	-56.370	-160.352	
92.00	-55.447	-140.054	
93.00	-54.586	-118.139	
94.00	-54.197	-99.409	
95.00	-55.435	-73.293	
96.00	-55.513	-49.031	
97.00	-55.733	-16.204	
98.00	-54.751	4.042	
99.00	-55.402	48.826	
100.00	-55.874	60.468	
101.00	-54.537	84.939	
102.00	-55.158	92.770	
103.00	-54.879	124.798	
104.00	-54.595	134.689	
105.00	-54.820	147.599	
106.00	-54.627	178.465	
107.00	-55.464	-169.435	
108.00	-55.427	-152.399	
109.00	-57.187	-141.556	
110.00	-58.729	-138.992	
111.00	-56.725	-85.404	
112.00	-58.612	-97.473	
113.00	-60.578	-73.994	
114.00	-61.602	-69.380	
115.00	-62.280	-81.878	
116.00	-64.804	-50.258	
117.00	-69.310	-62.199	
118.00	-68.275	-49.968	
119.00	-69.288	-62.834	
120.00	-64.142	-68.688	
121.00	-62.111	-62.695	
122.00	-61.487	-55.945	
123.00	-59.575	-36.260	
124.00	-58.370	-28.306	
125.00	-56.086	0.701	
126.00	-54.492	0.562	
127.00	-53.010	15.481	
128.00	-51.942	34.771	
129.00	-50.398	49.260	
130.00	-49.251	63.602	
131.00	-48.234	72.532	
132.00	-47.479	86.233	
133.00	-46.686	94.589	
134.00	-45.915	108.376	
135.00	-45.183	118.194	
136.00	-44.537	132.242	
137.00	-43.756	142.446	
138.00	-42.877	156.830	
139.00	-42.171	173.574	
140.00	-41.273	-177.782	
141.00	-40.551	-155.547	
142.00	-39.851	-151.227	
143.00	-39.048	-134.640	
144.00	-38.440	-126.849	
145.00	-37.848	-116.023	
146.00	-37.360	-107.482	
147.00	-36.835	-103.590	
148.00	-36.323	-96.422	
149.00	-35.836	-82.246	
150.00	-35.380	-77.244	
151.00	-34.956	-67.325	
152.00	-34.518	-61.008	
153.00	-34.074	-44.801	
154.00	-33.644	-45.072	
155.00	-33.245	-32.811	
156.00	-32.923	-34.938	
157.00	-32.558	-23.638	
158.00	-32.239	-22.197	
159.00	-31.908	-13.527	
160.00	-31.677	-13.599	
161.00	-31.377	-3.477	
162.00	-31.145	0.028	
163.00	-30.900	2.469	
164.00	-30.691	3.107	
165.00	-30.488	2.615	
166.00	-30.314	15.145	
167.00	-30.161	13.098	
168.00	-30.032	15.992	
169.00	-29.898	10.896	
170.00	-29.780	12.716	
171.00	-29.667	16.189	
172.00	-29.557	16.523	
173.00	-29.462	17.963	
174.00	-29.395	17.487	
175.00	-29.354	22.303	
176.00	-29.286	18.122	
177.00	-29.239	14.032	
178.00	-29.243	5.459	
179.00	-29.232	8.518	
180.00	-29.222	2.481	
181.00	-29.197	2.506	
182.00	-29.213	-3.946	
183.00	-29.245	-6.981	
184.00	-29.271	-6.993	
185.00	-29.309	-12.747	
186.00	-29.366	-21.795	
187.00	-29.422	-21.929	
188.00	-29.508	-33.611	
189.00	-29.601	-42.483	
190.00	-29.713	-50.242	
191.00	-29.823	-59.397	
192.00	-29.966	-65.950	
193.00	-30.117	-75.389	
194.00	-30.281	-84.082	
195.00	-30.481	-91.140	
196.00	-30.672	-100.465	
197.00	-30.903	-113.446	
198.00	-31.129	-120.327	
199.00	-31.339	-129.119	
200.00	-31.614	-140.721	
201.00	-31.889	-150.090	
202.00	-32.138	-162.165	
203.00	-32.432	-171.038	
204.00	-32.736	175.844	
205.00	-33.045	164.441	
206.00	-33.342	150.788	
207.00	-33.643	139.282	
208.00	-33.949	132.398	
209.00	-34.277	106.507	
210.00	-34.678	100.933	
211.00	-34.960	85.285	
212.00	-35.387	74.641	
213.00	-35.781	62.074	
214.00	-36.209	41.469	
215.00	-36.692	27.727	
216.00	-37.176	16.552	
217.00	-37.669	0.150	
218.00	-38.237	-14.369	
219.00	-38.818	-35.185	
220.00	-39.445	-50.921	
221.00	-40.058	-63.512	
222.00	-40.753	-82.503	
223.00	-41.498	-100.080	
224.00	-42.197	-119.005	
225.00	-42.895	-136.356	
226.00	-43.768	-151.579	
227.00	-44.581	-173.970	
228.00	-45.512	165.355	
229.00	-46.611	147.660	
230.00	-47.656	121.964	
231.00	-48.878	103.102	
232.00	-50.298	79.229	
233.00	-51.636	54.614	
234.00	-52.994	22.468	
235.00	-53.454	-5.428	
236.00	-54.402	-41.425	
237.00	-54.223	-70.580	
238.00	-54.250	-99.488	
239.00	-53.668	-138.537	
240.00	-53.118	-164.923	
241.00	-52.526	168.716	
242.00	-52.383	146.131	
243.00	-51.787	124.273	
244.00	-51.549	103.237	
245.00	-51.620	73.816	
246.00	-51.271	56.039	
247.00	-51.415	25.320	
248.00	-51.568	6.081	
249.00	-51.569	-17.593	
250.00	-51.893	-43.674	
251.00	-51.968	-65.496	
252.00	-51.927	-91.138	
253.00	-52.109	-114.093	
254.00	-52.235	-137.630	
255.00	-51.991	-165.991	
256.00	-52.083	168.467	
257.00	-51.821	142.510	
258.00	-51.946	120.219	
259.00	-51.773	99.726	
260.00	-51.996	72.591	
261.00	-52.145	50.683	
262.00	-52.568	26.816	
263.00	-52.793	3.183	
264.00	-53.181	-22.691	
265.00	-52.844	-46.878	
266.00	-53.389	-73.910	
267.00	-53.034	-94.129	
268.00	-53.056	-122.148	
269.00	-53.163	-142.575	
270.00	-53.153	-168.752	
271.00	-53.113	173.252	
272.00	-53.257	147.546	
273.00	-53.573	121.747	
274.00	-54.346	101.258	
275.00	-55.299	80.168	
276.00	-56.124	58.602	
277.00	-57.000	27.657	
278.00	-57.229	4.264	
279.00	-57.220	-25.820	
280.00	-57.641	-48.173	
281.00	-57.475	-73.836	
282.00	-57.556	-94.748	
283.00	-57.149	-124.035	
284.00	-57.545	-159.082	
285.00	-58.337	176.329	
286.00	-58.657	156.310	
287.00	-59.513	131.335	
288.00	-60.652	104.839	
289.00	-60.127	76.840	
290.00	-60.155	54.216	
291.00	-60.823	29.814	
292.00	-59.943	6.245	
293.00	-61.230	-13.352	
294.00	-60.861	-28.802	
295.00	-61.683	-61.944	
296.00	-61.169	-81.344	
297.00	-61.394	-108.462	
298.00	-60.749	-123.896	
299.00	-61.554	-153.713	
300.00	-61.248	-167.436	
301.00	-61.462	167.569	
302.00	-62.929	155.642	
303.00	-63.761	135.160	
304.00	-64.780	112.618	
305.00	-67.697	75.775	
306.00	-68.343	40.417	
307.00	-69.355	-17.844	
308.00	-66.812	-40.440	
309.00	-63.101	-64.668	
310.00	-61.332	-74.599	
311.00	-61.018	-90.073	
312.00	-59.420	-100.109	
313.00	-59.383	-106.461	
314.00	-59.293	-114.853	
315.00	-59.091	-126.335	
316.00	-59.787	-136.364	
317.00	-60.741	-144.546	
318.00	-61.510	-158.454	
319.00	-62.339	-155.837	
320.00	-64.541	-172.757	
321.00	-65.193	176.359	
322.00	-66.114	175.401	
323.00	-67.530	165.804	
324.00	-68.347	159.172	
325.00	-68.747	154.018	
326.00	-71.003	149.695	
327.00	-72.713	163.720	
328.00	-78.818	147.057	
329.00	-76.735	-169.326	
330.00	-75.522	-140.472	
331.00	-79.727	-159.541	
332.00	-76.069	-135.916	
333.00	-77.265	-130.585	
334.00	-75.065	-149.347	
335.00	-75.069	-121.926	
336.00	-78.470	-145.723	
337.00	-76.839	-154.608	
338.00	-73.760	-144.372	
339.00	-75.795	-141.206	
340.00	-88.846	-120.008	
341.00	-78.063	-114.398	
342.00	-76.378	-140.867	
343.00	-76.002	-122.334	
344.00	-75.829	-117.166	
345.00	-75.574	-116.635	
346.00	-74.020	-101.639	
347.00	-70.326	-123.493	
348.00	-71.039	-108.846	
349.00	-70.982	-119.428	
350.00	-68.348	-112.635	
351.00	-67.254	-105.190	
352.00	-68.313	-96.260	
353.00	-67.667	-104.887	
354.00	-67.242	-98.891	
355.00	-67.779	-103.286	
356.00	-67.527	-98.969	
357.00	-68.592	-85.399	
358.00	-68.580	-93.639	
359.00	-70.586	-83.696	
Frequency	2600.00	MHz	
Channel	test		
Scan Axis name	Azimuth  [deg]		
Scan Axis	Amplitude	Phase	
			
0.00	-77.291	51.215	
1.00	-74.624	83.818	
2.00	-70.279	102.362	
3.00	-67.606	119.833	
4.00	-66.121	117.386	
5.00	-63.473	120.138	
6.00	-63.222	126.343	
7.00	-62.919	129.184	
8.00	-62.453	136.709	
9.00	-62.265	138.023	
10.00	-62.359	151.401	
11.00	-62.531	160.764	
12.00	-63.026	163.153	
13.00	-64.007	178.087	
14.00	-64.741	-164.910	
15.00	-64.705	-154.127	
16.00	-64.705	-140.750	
17.00	-64.569	-126.150	
18.00	-65.296	-103.360	
19.00	-64.079	-83.829	
20.00	-62.589	-73.595	
21.00	-61.712	-62.604	
22.00	-60.423	-51.915	
23.00	-60.084	-45.341	
24.00	-59.879	-40.069	
25.00	-60.250	-33.742	
26.00	-60.914	-24.376	
27.00	-61.402	-14.270	
28.00	-62.643	0.732	
29.00	-64.128	22.953	
30.00	-65.065	43.708	
31.00	-66.495	70.694	
32.00	-66.461	91.951	
33.00	-64.382	119.357	
34.00	-63.730	139.034	
35.00	-63.412	166.294	
36.00	-62.730	-173.557	
37.00	-62.591	-156.151	
38.00	-61.743	-131.231	
39.00	-60.308	-114.341	
40.00	-59.393	-96.258	
41.00	-58.383	-84.733	
42.00	-57.588	-66.556	
43.00	-56.825	-55.383	
44.00	-56.298	-42.175	
45.00	-56.493	-31.374	
46.00	-56.844	-17.417	
47.00	-57.013	-0.668	
48.00	-57.483	15.935	
49.00	-58.271	47.613	
50.00	-58.797	67.366	
51.00	-58.750	91.982	
52.00	-59.366	118.458	
53.00	-59.131	143.422	
54.00	-58.458	169.321	
55.00	-58.067	-169.448	
56.00	-58.115	-145.546	
57.00	-57.830	-121.808	
58.00	-57.629	-102.247	
59.00	-57.863	-81.093	
60.00	-58.493	-62.043	
61.00	-57.797	-28.688	
62.00	-57.556	-2.150	
63.00	-56.358	31.467	
64.00	-55.462	49.993	
65.00	-54.717	71.422	
66.00	-54.304	86.456	
67.00	-54.036	107.236	
68.00	-53.898	126.567	
69.00	-54.111	146.630	
70.00	-54.562	166.317	
71.00	-54.664	-174.248	
72.00	-55.100	-148.714	
73.00	-55.096	-112.203	
74.00	-55.140	-98.814	
75.00	-54.754	-74.314	
76.00	-54.386	-56.281	
77.00	-54.036	-28.152	
78.00	-53.752	-10.048	
79.00	-53.656	3.645	
80.00	-53.816	24.376	
81.00	-54.141	51.937	
82.00	-54.278	76.722	
83.00	-54.392	96.503	
84.00	-54.813	121.002	
85.00	-54.782	138.320	
86.00	-55.360	173.791	
87.00	-55.475	-162.946	
88.00	-55.236	-134.816	
89.00	-55.282	-112.383	
90.00	-55.235	-91.752	
91.00	-55.328	-60.153	
92.00	-55.486	-42.949	
93.00	-56.418	-17.385	
94.00	-56.967	5.195	
95.00	-57.168	41.048	
96.00	-57.060	73.744	
97.00	-56.891	99.396	
98.00	-56.093	129.184	
99.00	-55.705	155.049	
100.00	-55.539	175.193	
101.00	-55.406	-161.349	
102.00	-55.751	-146.520	
103.00	-55.633	-126.843	
104.00	-56.655	-109.230	
105.00	-57.285	-98.253	
106.00	-58.749	-70.617	
107.00	-60.079	-53.223	
108.00	-61.496	-25.048	
109.00	-62.016	0.004	
110.00	-64.507	36.300	
111.00	-63.015	58.899	
112.00	-62.034	82.546	
113.00	-63.135	98.052	
114.00	-61.885	103.510	
115.00	-62.502	107.919	
116.00	-63.389	106.934	
117.00	-63.603	110.655	
118.00	-62.209	102.086	
119.00	-62.439	106.837	
120.00	-60.139	97.552	
121.00	-58.126	103.929	
122.00	-56.983	107.722	
123.00	-56.602	115.119	
124.00	-55.176	125.376	
125.00	-54.440	137.769	
126.00	-53.823	151.792	
127.00	-52.799	168.421	
128.00	-52.016	-177.218	
129.00	-51.277	-161.190	
130.00	-50.455	-145.858	
131.00	-49.414	-136.059	
132.00	-48.250	-119.719	
133.00	-47.462	-110.987	
134.00	-46.530	-99.270	
135.00	-45.767	-89.151	
136.00	-44.885	-77.865	
137.00	-44.133	-66.701	
138.00	-43.471	-53.410	
139.00	-42.844	-37.722	
140.00	-42.102	-28.089	
141.00	-41.409	-5.787	
142.00	-40.699	-1.475	
143.00	-40.031	14.838	
144.00	-39.409	23.422	
145.00	-38.784	35.512	
146.00	-38.236	44.033	
147.00	-37.634	48.561	
148.00	-37.056	55.495	
149.00	-36.564	70.260	
150.00	-36.058	74.949	
151.00	-35.558	84.819	
152.00	-35.109	91.357	
153.00	-34.658	107.242	
154.00	-34.244	107.355	
155.00	-33.832	119.216	
156.00	-33.437	117.165	
157.00	-33.086	128.378	
158.00	-32.751	130.238	
159.00	-32.389	138.880	
160.00	-32.116	139.170	
161.00	-31.754	149.077	
162.00	-31.483	152.777	
163.00	-31.236	154.944	
164.00	-31.033	155.601	
165.00	-30.817	154.933	
166.00	-30.621	167.867	
167.00	-30.470	165.450	
168.00	-30.331	168.686	
169.00	-30.204	163.255	
170.00	-30.099	165.037	
171.00	-30.004	168.615	
172.00	-29.925	169.140	
173.00	-29.833	170.807	
174.00	-29.773	170.151	
175.00	-29.705	175.110	
176.00	-29.672	170.870	
177.00	-29.625	167.106	
178.00	-29.633	158.071	
179.00	-29.609	161.263	
180.00	-29.626	155.367	
181.00	-29.631	155.207	
182.00	-29.679	149.137	
183.00	-29.690	145.560	
184.00	-29.753	145.321	
185.00	-29.799	139.697	
186.00	-29.888	130.385	
187.00	-29.954	130.094	
188.00	-30.079	117.861	
189.00	-30.184	108.837	
190.00	-30.313	100.914	
191.00	-30.451	91.431	
192.00	-30.634	84.210	
193.00	-30.783	74.746	
194.00	-30.988	65.751	
195.00	-31.197	58.204	
196.00	-31.382	48.744	
197.00	-31.632	34.724	
198.00	-31.823	28.203	
199.00	-32.085	18.759	
200.00	-32.341	6.803	
201.00	-32.597	-3.100	
202.00	-32.890	-15.507	
203.00	-33.155	-24.578	
204.00	-33.462	-37.814	
205.00	-33.796	-49.725	
206.00	-34.081	-63.488	
207.00	-34.417	-75.479	
208.00	-34.754	-82.623	
209.00	-35.115	-108.786	
210.00	-35.487	-114.915	
211.00	-35.862	-130.833	
212.00	-36.297	-141.551	
213.00	-36.720	-154.311	
214.00	-37.219	-175.325	
215.00	-37.773	170.481	
216.00	-38.288	159.433	
217.00	-38.890	142.127	
218.00	-39.578	127.420	
219.00	-40.253	105.767	
220.00	-41.050	89.584	
221.00	-41.752	76.492	
222.00	-42.575	56.540	
223.00	-43.416	37.649	
224.00	-44.240	18.269	
225.00	-45.239	-0.210	
226.00	-46.186	-17.810	
227.00	-47.128	-41.581	
228.00	-48.206	-63.916	
229.00	-49.458	-82.806	
230.00	-50.894	-110.349	
231.00	-52.499	-133.338	
232.00	-54.143	-161.878	
233.00	-55.680	163.382	
234.00	-56.253	121.149	
235.00	-55.951	84.532	
236.00	-54.130	49.378	
237.00	-53.064	24.495	
238.00	-51.912	0.974	
239.00	-50.967	-29.886	
240.00	-50.639	-50.127	
241.00	-50.272	-72.949	
242.00	-50.396	-95.747	
243.00	-50.211	-116.737	
244.00	-50.183	-136.134	
245.00	-50.411	-169.336	
246.00	-50.378	170.083	
247.00	-50.172	137.982	
248.00	-50.066	117.737	
249.00	-49.544	92.005	
250.00	-49.241	67.652	
251.00	-48.922	46.757	
252.00	-48.689	25.027	
253.00	-48.430	2.110	
254.00	-48.449	-15.738	
255.00	-48.529	-43.086	
256.00	-48.676	-64.163	
257.00	-48.854	-86.943	
258.00	-49.194	-110.265	
259.00	-49.502	-129.392	
260.00	-49.673	-158.950	
261.00	-49.941	-178.386	
262.00	-50.338	157.937	
263.00	-50.905	133.958	
264.00	-51.160	110.202	
265.00	-51.777	86.090	
266.00	-52.309	61.567	
267.00	-52.929	41.789	
268.00	-53.584	11.581	
269.00	-53.780	-14.345	
270.00	-53.946	-45.195	
271.00	-54.149	-69.707	
272.00	-53.637	-96.607	
273.00	-53.723	-126.960	
274.00	-54.006	-146.829	
275.00	-54.221	-168.098	
276.00	-54.732	172.444	
277.00	-55.278	143.554	
278.00	-55.790	123.526	
279.00	-56.459	93.214	
280.00	-56.595	73.452	
281.00	-56.773	46.567	
282.00	-57.292	18.856	
283.00	-57.380	-11.699	
284.00	-57.500	-46.864	
285.00	-58.251	-72.587	
286.00	-58.653	-96.762	
287.00	-58.791	-127.200	
288.00	-59.650	-156.382	
289.00	-59.140	177.834	
290.00	-58.114	148.004	
291.00	-57.378	131.516	
292.00	-57.329	107.971	
293.00	-57.397	96.029	
294.00	-57.175	77.275	
295.00	-57.987	56.801	
296.00	-58.179	39.590	
297.00	-59.427	18.269	
298.00	-59.801	-3.794	
299.00	-61.543	-31.714	
300.00	-61.076	-51.783	
301.00	-61.673	-78.326	
302.00	-61.730	-104.018	
303.00	-61.386	-125.036	
304.00	-62.700	-144.566	
305.00	-64.528	-171.100	
306.00	-66.463	169.744	
307.00	-67.205	136.002	
308.00	-68.416	114.818	
309.00	-68.255	63.239	
310.00	-66.735	47.940	
311.00	-65.054	16.258	
312.00	-64.269	-5.844	
313.00	-63.008	-19.562	
314.00	-62.610	-32.481	
315.00	-63.673	-40.027	
316.00	-63.865	-48.382	
317.00	-63.894	-62.681	
318.00	-65.229	-75.424	
319.00	-65.376	-86.964	
320.00	-67.118	-93.855	
321.00	-69.969	-105.320	
322.00	-71.798	-119.782	
323.00	-72.147	-131.243	
324.00	-72.721	-134.726	
325.00	-72.496	-136.392	
326.00	-72.888	-152.799	
327.00	-71.665	-151.813	
328.00	-72.969	-130.074	
329.00	-73.236	-112.007	
330.00	-70.685	-117.555	
331.00	-69.991	-112.655	
332.00	-68.692	-121.752	
333.00	-70.186	-100.443	
334.00	-68.976	-95.991	
335.00	-69.309	-93.353	
336.00	-67.348	-92.356	
337.00	-67.941	-76.936	
338.00	-66.171	-67.195	
339.00	-65.593	-65.448	
340.00	-65.033	-66.435	
341.00	-64.427	-52.874	
342.00	-63.384	-49.685	
343.00	-62.801	-42.078	
344.00	-61.247	-45.431	
345.00	-60.559	-42.877	
346.00	-61.369	-35.115	
347.00	-60.838	-44.173	
348.00	-61.097	-38.131	
349.00	-61.107	-38.695	
350.00	-61.449	-37.854	
351.00	-61.914	-36.294	
352.00	-62.186	-31.553	
353.00	-62.306	-37.749	
354.00	-63.338	-37.787	
355.00	-64.152	-41.080	
356.00	-66.064	-33.480	
357.00	-66.889	-26.097	
358.00	-69.653	-23.501	
359.00	-71.815	-9.361	
Frequency	2650.00	MHz	
Channel	test		
Scan Axis name	Azimuth  [deg]		
Scan Axis	Amplitude	Phase	
			
0.00	-63.570	49.817	
1.00	-62.340	40.614	
2.00	-63.843	48.560	
3.00	-61.989	42.288	
4.00	-62.940	43.279	
5.00	-63.585	49.129	
6.00	-63.072	48.207	
7.00	-62.859	49.734	
8.00	-64.505	52.000	
9.00	-63.977	47.308	
10.00	-65.272	48.676	
11.00	-64.882	53.041	
12.00	-65.852	52.957	
13.00	-65.528	57.766	
14.00	-66.784	51.192	
15.00	-69.180	69.573	
16.00	-68.240	68.678	
17.00	-69.872	75.968	
18.00	-69.990	88.295	
19.00	-68.921	91.288	
20.00	-70.427	101.622	
21.00	-72.078	116.337	
22.00	-70.316	143.415	
23.00	-71.563	129.945	
24.00	-68.944	135.669	
25.00	-68.273	144.411	
26.00	-70.111	163.336	
27.00	-68.540	163.881	
28.00	-69.385	173.871	
29.00	-69.483	-167.055	
30.00	-70.136	-145.097	
31.00	-72.016	-139.022	
32.00	-69.974	-106.229	
33.00	-69.575	-74.910	
34.00	-68.960	-42.260	
35.00	-66.638	-48.120	
36.00	-65.366	-25.256	
37.00	-65.295	-11.454	
38.00	-64.223	-0.986	
39.00	-66.417	36.116	
40.00	-66.036	39.920	
41.00	-65.292	75.414	
42.00	-60.912	89.598	
43.00	-61.359	117.078	
44.00	-60.445	129.711	
45.00	-58.941	135.554	
46.00	-57.435	156.340	
47.00	-57.667	171.753	
48.00	-56.195	-176.953	
49.00	-56.159	-150.163	
50.00	-56.524	-136.721	
51.00	-56.382	-120.566	
52.00	-54.857	-98.112	
53.00	-54.906	-82.727	
54.00	-55.436	-58.010	
55.00	-55.367	-42.231	
56.00	-54.799	-22.261	
57.00	-55.323	-0.303	
58.00	-54.448	20.124	
59.00	-54.918	38.868	
60.00	-55.219	52.267	
61.00	-54.249	78.958	
62.00	-54.334	103.863	
63.00	-55.895	125.634	
64.00	-55.829	144.125	
65.00	-56.079	172.695	
66.00	-56.623	-158.207	
67.00	-55.526	-134.049	
68.00	-55.531	-111.917	
69.00	-54.951	-88.266	
70.00	-54.850	-60.379	
71.00	-55.077	-42.577	
72.00	-54.159	-19.350	
73.00	-54.472	10.409	
74.00	-53.848	19.281	
75.00	-53.935	44.582	
76.00	-54.203	60.086	
77.00	-54.197	89.832	
78.00	-54.539	108.330	
79.00	-54.775	125.214	
80.00	-55.421	145.603	
81.00	-55.774	-174.955	
82.00	-55.199	-143.976	
83.00	-54.308	-121.820	
84.00	-53.957	-94.460	
85.00	-54.096	-81.030	
86.00	-53.477	-48.510	
87.00	-53.816	-29.771	
88.00	-53.883	0.672	
89.00	-53.994	20.176	
90.00	-53.832	42.083	
91.00	-53.962	79.817	
92.00	-53.314	99.258	
93.00	-53.466	121.379	
94.00	-53.409	145.633	
95.00	-53.367	172.583	
96.00	-53.433	-162.540	
97.00	-53.574	-137.024	
98.00	-53.764	-110.354	
99.00	-54.038	-80.693	
100.00	-54.356	-56.020	
101.00	-53.444	-35.939	
102.00	-53.924	-19.795	
103.00	-53.930	0.343	
104.00	-54.293	25.235	
105.00	-54.346	47.618	
106.00	-54.729	64.139	
107.00	-54.594	78.300	
108.00	-56.982	98.847	
109.00	-57.106	124.062	
110.00	-58.277	144.327	
111.00	-58.851	158.422	
112.00	-59.224	176.058	
113.00	-59.214	-162.905	
114.00	-61.127	-152.950	
115.00	-62.121	-134.465	
116.00	-63.930	-130.346	
117.00	-64.282	-99.260	
118.00	-64.129	-100.097	
119.00	-64.152	-87.410	
120.00	-62.330	-86.443	
121.00	-61.677	-76.064	
122.00	-59.915	-74.591	
123.00	-58.622	-67.227	
124.00	-58.258	-68.008	
125.00	-56.533	-53.514	
126.00	-56.403	-46.837	
127.00	-55.258	-30.035	
128.00	-54.212	-12.391	
129.00	-53.406	0.978	
130.00	-52.493	15.153	
131.00	-51.095	29.630	
132.00	-50.010	41.522	
133.00	-49.151	51.633	
134.00	-48.158	59.927	
135.00	-47.343	68.202	
136.00	-46.371	78.781	
137.00	-45.872	87.249	
138.00	-44.885	99.727	
139.00	-44.232	113.752	
140.00	-43.565	120.968	
141.00	-42.921	142.312	
142.00	-42.238	145.283	
143.00	-41.554	161.211	
144.00	-41.117	169.477	
145.00	-40.505	-179.861	
146.00	-40.022	-171.059	
147.00	-39.427	-166.982	
148.00	-38.876	-160.352	
149.00	-38.320	-146.691	
150.00	-37.717	-142.208	
151.00	-37.123	-132.724	
152.00	-36.681	-126.507	
153.00	-36.213	-111.667	
154.00	-35.805	-111.369	
155.00	-35.363	-100.193	
156.00	-35.021	-102.270	
157.00	-34.694	-91.457	
158.00	-34.392	-89.940	
159.00	-34.031	-81.529	
160.00	-33.750	-81.125	
161.00	-33.484	-71.612	
162.00	-33.233	-67.639	
163.00	-33.005	-65.456	
164.00	-32.797	-64.698	
165.00	-32.579	-64.995	
166.00	-32.384	-51.835	
167.00	-32.231	-53.898	
168.00	-32.071	-50.474	
169.00	-31.946	-56.131	
170.00	-31.814	-54.376	
171.00	-31.676	-50.360	
172.00	-31.584	-49.906	
173.00	-31.469	-48.270	
174.00	-31.397	-49.327	
175.00	-31.283	-44.176	
176.00	-31.231	-48.742	
177.00	-31.181	-52.372	
178.00	-31.134	-61.813	
179.00	-31.083	-58.882	
180.00	-31.063	-64.670	
181.00	-31.042	-65.291	
182.00	-31.057	-70.984	
183.00	-31.045	-75.180	
184.00	-31.086	-75.468	
185.00	-31.132	-81.106	
186.00	-31.209	-90.457	
187.00	-31.248	-90.638	
188.00	-31.382	-103.291	
189.00	-31.498	-112.573	
190.00	-31.652	-120.374	
191.00	-31.780	-130.019	
192.00	-31.988	-137.292	
193.00	-32.193	-147.010	
194.00	-32.404	-156.190	
195.00	-32.654	-163.930	
196.00	-32.888	-173.388	
197.00	-33.170	171.632	
198.00	-33.397	165.292	
199.00	-33.674	155.391	
200.00	-33.971	143.115	
201.00	-34.259	132.739	
202.00	-34.525	120.048	
203.00	-34.806	109.929	
204.00	-35.101	96.802	
205.00	-35.418	83.788	
206.00	-35.667	70.120	
207.00	-35.998	57.688	
208.00	-36.365	50.375	
209.00	-36.745	23.716	
210.00	-37.188	16.670	
211.00	-37.414	1.298	
212.00	-37.934	-10.416	
213.00	-38.354	-23.812	
214.00	-38.890	-44.453	
215.00	-39.549	-60.826	
216.00	-40.000	-72.197	
217.00	-40.797	-89.611	
218.00	-41.425	-105.767	
219.00	-42.023	-128.379	
220.00	-42.660	-144.577	
221.00	-43.356	-158.128	
222.00	-44.053	-179.116	
223.00	-44.831	162.034	
224.00	-45.880	143.644	
225.00	-46.698	124.634	
226.00	-47.899	108.439	
227.00	-49.022	83.502	
228.00	-50.167	59.706	
229.00	-51.788	40.543	
230.00	-53.476	10.373	
231.00	-55.626	-16.146	
232.00	-57.339	-52.484	
233.00	-58.586	-91.199	
234.00	-57.714	-142.062	
235.00	-55.874	-171.439	
236.00	-54.577	153.584	
237.00	-53.154	131.016	
238.00	-51.882	106.589	
239.00	-50.818	74.589	
240.00	-50.281	53.959	
241.00	-49.454	29.881	
242.00	-48.980	8.563	
243.00	-48.723	-10.175	
244.00	-48.579	-28.381	
245.00	-48.432	-58.968	
246.00	-48.465	-75.435	
247.00	-48.207	-105.174	
248.00	-48.324	-124.999	
249.00	-48.515	-149.431	
250.00	-48.083	-173.413	
251.00	-48.097	164.478	
252.00	-47.840	142.907	
253.00	-47.685	117.887	
254.00	-47.697	99.598	
255.00	-47.800	71.262	
256.00	-47.685	49.805	
257.00	-47.881	28.824	
258.00	-48.265	5.780	
259.00	-48.451	-11.148	
260.00	-48.900	-39.653	
261.00	-49.817	-57.159	
262.00	-50.419	-84.775	
263.00	-51.130	-111.610	
264.00	-52.059	-138.229	
265.00	-52.287	-165.941	
266.00	-52.015	166.659	
267.00	-51.525	144.364	
268.00	-51.946	114.263	
269.00	-51.951	91.747	
270.00	-52.222	64.831	
271.00	-52.156	44.706	
272.00	-51.857	15.626	
273.00	-51.869	-15.174	
274.00	-52.352	-32.133	
275.00	-52.478	-50.283	
276.00	-53.240	-66.111	
277.00	-54.534	-99.708	
278.00	-55.499	-113.606	
279.00	-56.096	-141.853	
280.00	-57.228	-170.017	
281.00	-57.807	165.898	
282.00	-57.119	136.933	
283.00	-58.448	99.278	
284.00	-58.343	52.289	
285.00	-58.084	39.833	
286.00	-58.396	5.480	
287.00	-58.810	-7.736	
288.00	-58.944	-42.191	
289.00	-59.668	-64.860	
290.00	-58.917	-82.143	
291.00	-58.116	-108.185	
292.00	-60.537	-137.626	
293.00	-60.931	-146.886	
294.00	-61.355	172.852	
295.00	-62.908	160.616	
296.00	-62.845	131.951	
297.00	-63.509	105.402	
298.00	-65.719	74.000	
299.00	-66.077	59.211	
300.00	-67.763	37.988	
301.00	-75.766	7.753	
302.00	-68.932	-62.508	
303.00	-67.898	-107.463	
304.00	-62.806	-121.758	
305.00	-61.159	-147.738	
306.00	-60.410	-161.454	
307.00	-60.813	-169.931	
308.00	-61.081	175.703	
309.00	-60.642	165.429	
310.00	-62.487	148.593	
311.00	-64.181	127.119	
312.00	-64.563	132.521	
313.00	-67.529	86.622	
314.00	-65.947	82.632	
315.00	-67.958	58.052	
316.00	-72.085	49.380	
317.00	-78.824	-3.649	
318.00	-75.589	-32.681	
319.00	-90.887	-92.632	
320.00	-79.642	-169.940	
321.00	-72.272	171.390	
322.00	-70.221	-148.856	
323.00	-74.124	-172.456	
324.00	-73.271	144.957	
325.00	-76.236	160.143	
326.00	-75.241	130.283	
327.00	-72.187	30.418	
328.00	-70.953	26.050	
329.00	-73.348	22.098	
330.00	-74.094	-16.064	
331.00	-72.516	-8.993	
332.00	-70.523	4.783	
333.00	-70.357	-24.124	
334.00	-67.423	-59.884	
335.00	-67.559	-73.821	
336.00	-67.664	-81.009	
337.00	-70.979	-113.128	
338.00	-71.259	-141.509	
339.00	-68.579	-132.501	
340.00	-66.360	-161.143	
341.00	-69.478	-163.369	
342.00	-68.370	163.078	
343.00	-68.411	168.340	
344.00	-66.909	144.808	
345.00	-66.157	125.965	
346.00	-65.565	118.457	
347.00	-65.608	108.399	
348.00	-65.748	99.710	
349.00	-64.497	95.335	
350.00	-64.090	88.321	
351.00	-62.713	80.126	
352.00	-63.428	71.887	
353.00	-62.362	65.765	
354.00	-63.727	55.398	
355.00	-62.078	51.043	
356.00	-63.022	52.909	
357.00	-62.156	50.194	
358.00	-62.534	38.649	
359.00	-62.981	49.229	
Frequency	2700.00	MHz	
Channel	test		
Scan Axis name	Azimuth  [deg]		
Scan Axis	Amplitude	Phase	
			
0.00	-95.762	173.909	
1.00	-82.471	-145.965	
2.00	-79.452	-55.036	
3.00	-82.019	-20.288	
4.00	-76.008	-28.355	
5.00	-72.878	-45.415	
6.00	-71.575	-32.642	
7.00	-70.423	-39.379	
8.00	-67.030	-45.410	
9.00	-70.085	-44.464	
10.00	-69.159	-22.249	
11.00	-69.813	-22.111	
12.00	-69.788	-9.107	
13.00	-70.001	-9.990	
14.00	-68.349	14.497	
15.00	-67.146	27.095	
16.00	-69.032	43.165	
17.00	-74.549	67.591	
18.00	-67.202	75.392	
19.00	-67.379	86.776	
20.00	-69.484	75.181	
21.00	-65.500	105.295	
22.00	-64.793	129.431	
23.00	-64.312	127.452	
24.00	-64.493	140.241	
25.00	-64.193	160.185	
26.00	-61.417	172.160	
27.00	-63.071	-172.199	
28.00	-63.610	-171.142	
29.00	-69.883	-133.154	
30.00	-63.225	-140.768	
31.00	-63.005	-121.698	
32.00	-67.278	-95.618	
33.00	-70.390	-91.401	
34.00	-70.298	-39.203	
35.00	-66.174	-24.656	
36.00	-63.343	-26.700	
37.00	-66.288	-34.352	
38.00	-65.731	14.930	
39.00	-64.933	52.109	
40.00	-64.067	73.453	
41.00	-68.425	31.606	
42.00	-67.471	58.719	
43.00	-63.367	127.400	
44.00	-64.019	117.333	
45.00	-62.207	105.878	
46.00	-68.612	153.904	
47.00	-63.150	146.386	
48.00	-68.256	-166.581	
49.00	-70.601	-174.387	
50.00	-73.121	-146.779	
51.00	-89.998	-99.258	
52.00	-71.290	57.451	
53.00	-62.370	-41.576	
54.00	-62.743	2.291	
55.00	-72.443	70.862	
56.00	-70.089	39.779	
57.00	-66.831	-45.517	
58.00	-69.365	-46.423	
59.00	-78.808	160.999	
60.00	-68.550	26.914	
61.00	-79.272	-25.095	
62.00	-58.519	-23.362	
63.00	-56.891	-37.889	
64.00	-55.807	-12.464	
65.00	-60.974	-14.161	
66.00	-62.971	19.291	
67.00	-60.724	13.961	
68.00	-54.295	77.793	
69.00	-55.511	77.643	
70.00	-54.577	92.089	
71.00	-58.743	121.122	
72.00	-54.297	125.833	
73.00	-54.198	160.374	
74.00	-54.597	179.259	
75.00	-54.327	-169.647	
76.00	-55.861	-153.537	
77.00	-51.148	-105.865	
78.00	-53.410	-108.992	
79.00	-53.962	-81.462	
80.00	-55.835	-29.935	
81.00	-55.112	-39.735	
82.00	-53.606	7.926	
83.00	-55.142	26.925	
84.00	-53.010	64.203	
85.00	-50.551	54.349	
86.00	-52.661	104.654	
87.00	-52.324	117.875	
88.00	-51.353	156.240	
89.00	-52.533	161.491	
90.00	-48.708	-175.125	
91.00	-49.035	-137.206	
92.00	-52.335	-125.873	
93.00	-51.074	-95.552	
94.00	-51.963	-79.145	
95.00	-51.990	-52.076	
96.00	-52.336	-14.621	
97.00	-51.686	-12.693	
98.00	-50.936	37.480	
99.00	-53.141	70.806	
100.00	-53.245	82.972	
101.00	-53.331	112.252	
102.00	-50.829	136.827	
103.00	-50.198	152.472	
104.00	-49.268	-174.851	
105.00	-53.357	-158.200	
106.00	-52.569	-122.380	
107.00	-50.975	-110.951	
108.00	-52.842	-93.513	
109.00	-53.897	-98.194	
110.00	-55.437	-84.568	
111.00	-55.092	-32.630	
112.00	-55.884	-8.730	
113.00	-55.872	-8.537	
114.00	-55.986	21.438	
115.00	-56.907	18.863	
116.00	-56.044	39.499	
117.00	-57.747	55.153	
118.00	-61.504	70.466	
119.00	-61.079	99.318	
120.00	-63.065	82.180	
121.00	-62.230	76.145	
122.00	-63.004	64.762	
123.00	-58.796	91.338	
124.00	-64.276	80.058	
125.00	-57.546	83.000	
126.00	-56.221	94.691	
127.00	-57.927	89.338	
128.00	-55.150	130.536	
129.00	-54.617	127.536	
130.00	-54.436	149.477	
131.00	-52.737	151.971	
132.00	-52.637	-179.713	
133.00	-51.574	-176.887	
134.00	-49.986	-166.315	
135.00	-49.722	-155.076	
136.00	-48.905	-139.763	
137.00	-48.316	-131.510	
138.00	-47.557	-118.401	
139.00	-46.555	-101.034	
140.00	-46.312	-95.030	
141.00	-45.087	-72.000	
142.00	-44.757	-66.345	
143.00	-44.006	-52.096	
144.00	-43.359	-42.636	
145.00	-42.556	-32.388	
146.00	-41.899	-25.343	
147.00	-41.192	-21.796	
148.00	-40.596	-15.287	
149.00	-39.934	-1.714	
150.00	-39.392	2.655	
151.00	-38.730	10.525	
152.00	-38.350	16.531	
153.00	-37.692	31.852	
154.00	-37.315	31.872	
155.00	-36.786	43.022	
156.00	-36.415	41.159	
157.00	-36.020	51.396	
158.00	-35.570	54.164	
159.00	-35.265	61.959	
160.00	-34.871	63.350	
161.00	-34.498	72.619	
162.00	-34.176	77.235	
163.00	-33.909	79.042	
164.00	-33.647	80.085	
165.00	-33.354	79.859	
166.00	-33.113	93.127	
167.00	-32.881	90.886	
168.00	-32.763	94.479	
169.00	-32.576	88.647	
170.00	-32.407	90.597	
171.00	-32.258	95.008	
172.00	-32.153	95.388	
173.00	-32.071	97.080	
174.00	-32.014	96.042	
175.00	-31.935	101.296	
176.00	-31.865	97.090	
177.00	-31.832	93.497	
178.00	-31.774	83.914	
179.00	-31.761	86.688	
180.00	-31.735	81.290	
181.00	-31.751	80.041	
182.00	-31.805	74.920	
183.00	-31.794	70.328	
184.00	-31.833	69.873	
185.00	-31.923	64.233	
186.00	-31.985	54.670	
187.00	-32.073	54.431	
188.00	-32.150	41.415	
189.00	-32.299	32.003	
190.00	-32.426	24.030	
191.00	-32.590	14.221	
192.00	-32.742	6.168	
193.00	-32.959	-3.432	
194.00	-33.169	-12.957	
195.00	-33.389	-21.041	
196.00	-33.585	-30.690	
197.00	-33.865	-46.110	
198.00	-34.069	-51.838	
199.00	-34.336	-62.371	
200.00	-34.628	-74.632	
201.00	-34.842	-85.439	
202.00	-35.164	-98.336	
203.00	-35.461	-108.126	
204.00	-35.788	-121.665	
205.00	-36.158	-134.826	
206.00	-36.294	-148.483	
207.00	-36.679	-161.157	
208.00	-36.975	-168.754	
209.00	-37.399	165.353	
210.00	-37.854	157.311	
211.00	-38.315	141.135	
212.00	-38.794	130.128	
213.00	-39.258	115.907	
214.00	-39.834	94.594	
215.00	-40.604	78.013	
216.00	-41.102	65.794	
217.00	-41.707	47.241	
218.00	-42.354	31.062	
219.00	-42.932	9.703	
220.00	-43.670	-9.151	
221.00	-44.480	-21.767	
222.00	-45.286	-43.200	
223.00	-46.618	-61.477	
224.00	-47.429	-81.665	
225.00	-48.581	-103.829	
226.00	-49.849	-123.267	
227.00	-51.165	-146.450	
228.00	-52.897	-173.856	
229.00	-54.237	162.498	
230.00	-55.213	122.827	
231.00	-55.801	89.528	
232.00	-56.637	50.048	
233.00	-55.973	17.610	
234.00	-54.894	-17.036	
235.00	-54.551	-44.690	
236.00	-53.242	-75.538	
237.00	-51.782	-102.854	
238.00	-51.098	-125.780	
239.00	-50.185	-156.905	
240.00	-49.268	-179.508	
241.00	-48.959	156.228	
242.00	-48.556	134.946	
243.00	-48.330	111.707	
244.00	-47.660	97.412	
245.00	-47.443	65.624	
246.00	-47.150	47.639	
247.00	-47.240	18.690	
248.00	-47.384	1.295	
249.00	-47.216	-21.857	
250.00	-47.127	-48.329	
251.00	-47.046	-67.798	
252.00	-47.186	-89.678	
253.00	-47.535	-114.725	
254.00	-47.563	-133.336	
255.00	-47.789	-162.562	
256.00	-48.199	174.917	
257.00	-48.769	150.288	
258.00	-48.883	122.967	
259.00	-49.167	101.502	
260.00	-49.320	71.648	
261.00	-49.472	51.108	
262.00	-49.335	24.596	
263.00	-49.950	1.435	
264.00	-50.233	-23.820	
265.00	-50.304	-48.805	
266.00	-50.637	-75.275	
267.00	-50.921	-94.110	
268.00	-50.883	-121.453	
269.00	-51.170	-143.388	
270.00	-52.452	-171.704	
271.00	-52.679	167.083	
272.00	-53.507	135.336	
273.00	-53.882	103.835	
274.00	-54.253	75.877	
275.00	-54.365	54.690	
276.00	-54.544	31.291	
277.00	-54.591	1.140	
278.00	-55.401	-20.842	
279.00	-55.870	-52.630	
280.00	-55.730	-71.260	
281.00	-56.408	-100.024	
282.00	-56.512	-127.665	
283.00	-56.573	-164.138	
284.00	-57.426	162.876	
285.00	-56.944	135.668	
286.00	-57.471	111.651	
287.00	-57.259	88.136	
288.00	-56.707	55.902	
289.00	-56.597	35.605	
290.00	-57.554	8.629	
291.00	-58.325	-6.434	
292.00	-58.791	-38.457	
293.00	-60.453	-54.983	
294.00	-59.355	-87.063	
295.00	-60.320	-107.271	
296.00	-60.136	-137.665	
297.00	-58.974	-161.608	
298.00	-58.274	169.456	
299.00	-59.399	153.265	
300.00	-58.945	127.633	
301.00	-59.295	111.264	
302.00	-59.666	86.452	
303.00	-59.022	67.773	
304.00	-63.422	39.851	
305.00	-63.253	10.503	
306.00	-64.837	-31.152	
307.00	-66.531	-59.110	
308.00	-67.082	-78.249	
309.00	-63.751	-130.133	
310.00	-65.390	-142.050	
311.00	-64.192	-157.933	
312.00	-64.339	161.958	
313.00	-64.757	145.624	
314.00	-62.695	130.738	
315.00	-65.427	125.507	
316.00	-65.147	92.199	
317.00	-66.718	77.103	
318.00	-67.956	48.849	
319.00	-67.913	9.182	
320.00	-67.346	-17.396	
321.00	-67.973	-59.569	
322.00	-65.779	-81.741	
323.00	-62.618	-95.484	
324.00	-63.268	-103.707	
325.00	-62.401	-124.968	
326.00	-61.693	-139.743	
327.00	-61.903	-148.976	
328.00	-62.340	-167.723	
329.00	-62.717	179.846	
330.00	-63.565	165.800	
331.00	-63.269	155.484	
332.00	-65.004	121.418	
333.00	-63.608	108.346	
334.00	-64.181	79.883	
335.00	-65.005	65.242	
336.00	-65.298	51.731	
337.00	-68.072	30.626	
338.00	-66.907	29.884	
339.00	-67.927	2.387	
340.00	-65.775	-12.223	
341.00	-63.985	-20.892	
342.00	-64.770	-34.178	
343.00	-65.312	-56.838	
344.00	-65.099	-67.520	
345.00	-65.036	-78.641	
346.00	-66.661	-86.380	
347.00	-65.862	-99.578	
348.00	-64.772	-99.293	
349.00	-65.346	-112.900	
350.00	-66.598	-121.441	
351.00	-67.859	-134.706	
352.00	-69.879	-138.123	
353.00	-71.235	-153.169	
354.00	-71.909	-133.423	
355.00	-73.482	-178.444	
356.00	-70.230	176.171	
357.00	-74.505	-169.192	
358.00	-71.794	177.167	
359.00	-76.573	153.035	
