Test Title:	Alpha Wireless Indoor Range						
Date:	02/11/2017						
Time:	15:50						
Operator Name:	FL						
Comment:	Version 2 Run 2
Cable length changed						
Caib. File Name:	C:\Program Files\Midas 2.01d\Calibration Files\test sigma 180900.cal						
							
[Scan Axis] Name: 	Azimuth  [deg]Start: 	0.000000	Stop	359.000000	Increment	1.000000[Step Axis] Name: 	Start: 	0.000000	Stop	0.000000	Increment	0.000000[Tert] Name: 	None [Forth] Name: 	None  [ Freq.]  (List) 	MHz.	1694.000000	1710.000000	1800.000000	1850.000000	1950.000000	2050.000000	2170.000000	2300.000000	2350.000000	2400.000000	2450.000000	2496.000000	2550.000000	2600.000000	2650.000000	2700.000000
 [Switch]  	None [Channel]  	test			 [ Beam] 	None			
Database:			
First Question			
2nd			
3rd			
4th			
			
Frequency	1694.00	MHz	
Channel	test		
Scan Axis name	Azimuth  [deg]		
Scan Axis	Amplitude	Phase	
			
0.00	-57.245	119.517	
1.00	-56.196	101.453	
2.00	-54.368	95.024	
3.00	-53.939	85.007	
4.00	-52.676	81.625	
5.00	-51.966	76.420	
6.00	-51.756	73.155	
7.00	-52.020	67.795	
8.00	-51.649	63.458	
9.00	-51.855	58.150	
10.00	-52.077	56.843	
11.00	-52.781	52.035	
12.00	-53.056	45.189	
13.00	-53.695	41.150	
14.00	-52.801	39.789	
15.00	-53.561	37.068	
16.00	-52.679	36.263	
17.00	-53.042	36.801	
18.00	-52.565	37.373	
19.00	-53.042	40.736	
20.00	-53.735	46.207	
21.00	-55.414	48.246	
22.00	-56.988	49.825	
23.00	-58.260	58.239	
24.00	-63.102	71.699	
25.00	-71.944	96.559	
26.00	-68.879	-155.052	
27.00	-63.618	-140.744	
28.00	-58.888	-130.084	
29.00	-56.116	-122.258	
30.00	-54.795	-116.386	
31.00	-54.030	-110.712	
32.00	-53.003	-103.568	
33.00	-53.402	-99.480	
34.00	-54.423	-92.247	
35.00	-55.847	-83.729	
36.00	-59.400	-80.975	
37.00	-63.022	-53.358	
38.00	-76.145	3.009	
39.00	-69.749	82.736	
40.00	-62.806	106.207	
41.00	-59.680	108.724	
42.00	-58.526	119.387	
43.00	-57.178	123.997	
44.00	-56.576	125.086	
45.00	-57.011	125.253	
46.00	-57.227	124.705	
47.00	-58.512	132.289	
48.00	-59.018	126.628	
49.00	-59.144	122.554	
50.00	-60.170	122.569	
51.00	-61.108	118.668	
52.00	-60.485	119.559	
53.00	-60.858	127.087	
54.00	-61.761	125.282	
55.00	-62.550	129.723	
56.00	-63.079	121.924	
57.00	-62.932	125.572	
58.00	-63.054	120.660	
59.00	-61.859	125.068	
60.00	-61.823	130.911	
61.00	-60.302	134.500	
62.00	-59.846	138.542	
63.00	-59.068	150.312	
64.00	-59.360	159.657	
65.00	-58.995	168.714	
66.00	-59.517	-172.439	
67.00	-59.452	-157.653	
68.00	-60.421	-134.057	
69.00	-59.755	-117.882	
70.00	-59.533	-94.737	
71.00	-59.883	-81.392	
72.00	-60.213	-66.670	
73.00	-59.635	-51.029	
74.00	-60.435	-29.116	
75.00	-60.574	-10.063	
76.00	-61.453	5.470	
77.00	-63.083	27.136	
78.00	-61.156	50.653	
79.00	-64.920	62.859	
80.00	-61.062	110.680	
81.00	-67.118	134.694	
82.00	-60.042	114.802	
83.00	-68.421	-168.009	
84.00	-67.391	-163.689	
85.00	-59.152	-143.928	
86.00	-62.232	-109.101	
87.00	-56.105	-88.464	
88.00	-58.494	-67.516	
89.00	-58.062	-41.443	
90.00	-56.280	-30.196	
91.00	-55.059	-20.397	
92.00	-54.861	-2.643	
93.00	-54.347	13.195	
94.00	-53.577	26.295	
95.00	-52.713	37.679	
96.00	-53.054	51.902	
97.00	-53.086	64.784	
98.00	-52.999	80.367	
99.00	-54.291	93.617	
100.00	-54.779	110.617	
101.00	-55.673	135.227	
102.00	-56.700	167.815	
103.00	-55.943	-166.320	
104.00	-55.667	-144.064	
105.00	-53.845	-119.795	
106.00	-52.482	-99.389	
107.00	-51.378	-84.631	
108.00	-50.704	-70.589	
109.00	-49.797	-56.646	
110.00	-49.366	-45.653	
111.00	-49.234	-31.234	
112.00	-49.374	-20.158	
113.00	-49.971	-4.772	
114.00	-50.554	7.429	
115.00	-51.569	23.436	
116.00	-52.811	39.319	
117.00	-54.476	60.262	
118.00	-56.551	82.188	
119.00	-57.729	113.486	
120.00	-58.945	157.168	
121.00	-56.945	-169.520	
122.00	-56.157	-143.704	
123.00	-54.493	-124.869	
124.00	-52.861	-105.103	
125.00	-52.251	-86.687	
126.00	-51.583	-74.789	
127.00	-51.430	-56.072	
128.00	-51.885	-34.003	
129.00	-54.016	-9.117	
130.00	-55.055	8.938	
131.00	-54.912	41.018	
132.00	-53.279	80.198	
133.00	-51.702	103.974	
134.00	-50.097	126.978	
135.00	-48.442	138.464	
136.00	-47.339	156.787	
137.00	-46.537	167.422	
138.00	-46.338	179.986	
139.00	-45.898	-168.084	
140.00	-45.977	-159.313	
141.00	-46.852	-147.834	
142.00	-48.651	-138.103	
143.00	-49.651	-121.187	
144.00	-51.677	-108.920	
145.00	-54.531	-80.299	
146.00	-55.376	-42.558	
147.00	-52.993	-7.798	
148.00	-52.110	10.588	
149.00	-49.901	23.192	
150.00	-48.992	35.390	
151.00	-48.198	39.830	
152.00	-47.711	44.425	
153.00	-48.029	44.686	
154.00	-48.091	46.773	
155.00	-49.324	46.433	
156.00	-49.798	41.306	
157.00	-51.582	34.103	
158.00	-53.250	21.547	
159.00	-55.066	3.714	
160.00	-55.298	-26.663	
161.00	-53.735	-59.298	
162.00	-52.253	-77.430	
163.00	-49.024	-91.703	
164.00	-47.415	-98.487	
165.00	-46.280	-100.717	
166.00	-45.169	-103.812	
167.00	-45.479	-106.915	
168.00	-46.316	-106.616	
169.00	-48.536	-104.872	
170.00	-55.082	-106.841	
171.00	-61.662	67.748	
172.00	-47.928	75.937	
173.00	-41.890	75.585	
174.00	-38.219	77.264	
175.00	-35.348	77.580	
176.00	-33.283	77.189	
177.00	-31.631	78.570	
178.00	-30.506	79.952	
179.00	-29.671	79.852	
180.00	-29.111	79.703	
181.00	-29.000	79.609	
182.00	-29.095	79.912	
183.00	-29.562	79.128	
184.00	-30.314	77.607	
185.00	-31.402	76.594	
186.00	-32.964	74.327	
187.00	-35.023	71.874	
188.00	-37.795	66.489	
189.00	-41.561	59.577	
190.00	-47.158	40.096	
191.00	-52.273	-17.729	
192.00	-48.728	-66.101	
193.00	-45.426	-82.848	
194.00	-43.931	-89.570	
195.00	-43.332	-89.663	
196.00	-43.711	-88.228	
197.00	-44.629	-83.450	
198.00	-45.667	-72.874	
199.00	-46.778	-59.168	
200.00	-47.278	-42.380	
201.00	-46.325	-27.841	
202.00	-45.543	-20.616	
203.00	-45.482	-16.780	
204.00	-45.059	-16.405	
205.00	-45.658	-20.965	
206.00	-46.500	-24.753	
207.00	-48.397	-35.365	
208.00	-50.521	-42.055	
209.00	-52.680	-65.033	
210.00	-54.336	-79.595	
211.00	-56.012	-101.363	
212.00	-58.085	-124.688	
213.00	-59.410	-133.506	
214.00	-61.296	-122.688	
215.00	-61.292	-89.627	
216.00	-55.716	-66.611	
217.00	-52.356	-58.220	
218.00	-48.249	-66.124	
219.00	-45.772	-69.770	
220.00	-44.208	-76.508	
221.00	-42.893	-83.479	
222.00	-41.600	-91.422	
223.00	-40.704	-97.493	
224.00	-40.037	-105.118	
225.00	-39.750	-112.464	
226.00	-39.607	-118.300	
227.00	-39.443	-126.027	
228.00	-39.681	-131.320	
229.00	-39.945	-137.224	
230.00	-40.591	-142.059	
231.00	-41.215	-147.324	
232.00	-42.317	-151.491	
233.00	-43.333	-156.467	
234.00	-44.613	-159.724	
235.00	-45.436	-163.656	
236.00	-47.231	-164.717	
237.00	-48.453	-166.927	
238.00	-49.201	-169.559	
239.00	-50.245	-171.482	
240.00	-51.321	179.301	
241.00	-51.376	174.845	
242.00	-51.416	166.608	
243.00	-51.007	155.208	
244.00	-50.560	147.277	
245.00	-49.911	138.165	
246.00	-49.342	128.438	
247.00	-48.750	118.715	
248.00	-47.975	112.261	
249.00	-47.278	106.489	
250.00	-47.411	99.287	
251.00	-47.038	93.175	
252.00	-47.357	86.502	
253.00	-47.281	80.528	
254.00	-47.783	74.219	
255.00	-48.046	66.950	
256.00	-48.835	59.589	
257.00	-49.501	53.056	
258.00	-50.697	43.731	
259.00	-51.292	35.304	
260.00	-52.502	25.644	
261.00	-53.741	14.679	
262.00	-55.435	2.484	
263.00	-57.277	-9.104	
264.00	-59.250	-24.697	
265.00	-61.820	-41.739	
266.00	-65.144	-68.907	
267.00	-67.392	-120.820	
268.00	-64.453	-157.308	
269.00	-61.910	-178.311	
270.00	-60.563	163.846	
271.00	-58.979	149.717	
272.00	-59.159	137.320	
273.00	-58.555	124.478	
274.00	-58.854	110.295	
275.00	-59.070	92.597	
276.00	-59.658	70.176	
277.00	-59.297	52.011	
278.00	-58.337	28.250	
279.00	-57.874	8.150	
280.00	-55.648	-7.383	
281.00	-55.884	-18.872	
282.00	-55.048	-33.630	
283.00	-55.527	-43.700	
284.00	-55.173	-60.637	
285.00	-55.759	-66.597	
286.00	-55.951	-78.616	
287.00	-56.582	-93.375	
288.00	-57.386	-107.007	
289.00	-59.094	-115.307	
290.00	-61.571	-129.619	
291.00	-64.093	-132.684	
292.00	-67.825	-135.178	
293.00	-73.775	-164.120	
294.00	-77.917	-57.206	
295.00	-72.258	-36.163	
296.00	-71.432	-38.003	
297.00	-67.923	-45.783	
298.00	-69.140	-51.178	
299.00	-68.906	-85.453	
300.00	-71.087	-107.498	
301.00	-70.247	-157.878	
302.00	-67.506	164.558	
303.00	-66.466	153.560	
304.00	-64.904	138.880	
305.00	-65.057	110.614	
306.00	-62.682	93.788	
307.00	-63.775	83.148	
308.00	-62.294	65.418	
309.00	-63.742	41.122	
310.00	-64.722	16.733	
311.00	-64.775	-3.562	
312.00	-64.620	-19.221	
313.00	-64.951	-33.629	
314.00	-67.909	-30.111	
315.00	-71.333	-62.735	
316.00	-76.952	-110.158	
317.00	-80.883	-53.796	
318.00	-90.496	-62.377	
319.00	-77.073	102.744	
320.00	-74.568	95.453	
321.00	-70.456	96.516	
322.00	-70.502	90.483	
323.00	-69.847	83.439	
324.00	-69.596	73.184	
325.00	-68.579	83.231	
326.00	-70.620	80.648	
327.00	-69.917	99.505	
328.00	-71.067	96.019	
329.00	-70.521	120.323	
330.00	-67.730	134.441	
331.00	-65.592	144.584	
332.00	-64.102	145.504	
333.00	-62.706	139.832	
334.00	-60.477	137.414	
335.00	-59.396	132.212	
336.00	-59.263	115.921	
337.00	-58.577	108.537	
338.00	-57.745	86.684	
339.00	-57.526	76.192	
340.00	-57.845	58.429	
341.00	-57.252	41.243	
342.00	-56.918	23.106	
343.00	-56.874	11.165	
344.00	-56.581	0.272	
345.00	-56.091	-15.636	
346.00	-55.710	-24.173	
347.00	-55.938	-33.859	
348.00	-55.913	-41.279	
349.00	-57.165	-50.700	
350.00	-58.142	-54.675	
351.00	-58.751	-75.180	
352.00	-59.866	-88.376	
353.00	-60.376	-106.407	
354.00	-61.815	-128.517	
355.00	-61.685	-139.374	
356.00	-60.978	-158.886	
357.00	-60.517	176.878	
358.00	-60.423	148.031	
359.00	-59.757	133.025	
Frequency	1710.00	MHz	
Channel	test		
Scan Axis name	Azimuth  [deg]		
Scan Axis	Amplitude	Phase	
			
0.00	-61.009	74.674	
1.00	-57.831	67.853	
2.00	-55.628	68.846	
3.00	-56.195	59.816	
4.00	-55.444	71.426	
5.00	-54.765	53.739	
6.00	-53.964	49.941	
7.00	-52.338	41.808	
8.00	-53.630	40.291	
9.00	-50.988	31.501	
10.00	-53.050	30.061	
11.00	-53.979	18.632	
12.00	-53.298	7.966	
13.00	-53.624	-14.927	
14.00	-52.730	-6.399	
15.00	-54.293	-16.763	
16.00	-53.163	-24.859	
17.00	-52.713	-17.389	
18.00	-52.907	-26.199	
19.00	-55.176	-21.258	
20.00	-55.962	-14.122	
21.00	-57.415	-8.928	
22.00	-61.198	-2.612	
23.00	-62.999	-7.736	
24.00	-67.206	72.538	
25.00	-65.549	107.522	
26.00	-65.414	158.187	
27.00	-58.332	156.705	
28.00	-55.211	167.044	
29.00	-54.203	175.637	
30.00	-51.466	178.271	
31.00	-51.304	-177.188	
32.00	-51.030	-172.302	
33.00	-51.741	-167.761	
34.00	-53.556	-165.692	
35.00	-55.232	-161.931	
36.00	-55.190	-159.614	
37.00	-59.398	-156.680	
38.00	-62.810	-152.665	
39.00	-68.966	-148.037	
40.00	-75.282	127.993	
41.00	-81.895	-169.989	
42.00	-68.606	34.927	
43.00	-64.554	31.310	
44.00	-63.910	45.422	
45.00	-60.470	44.852	
46.00	-59.478	52.672	
47.00	-57.456	54.163	
48.00	-55.976	61.026	
49.00	-56.422	69.545	
50.00	-54.688	81.843	
51.00	-55.756	90.725	
52.00	-55.785	97.403	
53.00	-56.989	104.807	
54.00	-55.548	107.725	
55.00	-56.933	126.202	
56.00	-60.391	124.511	
57.00	-60.217	121.887	
58.00	-64.944	96.118	
59.00	-60.696	65.648	
60.00	-60.865	73.678	
61.00	-58.362	79.157	
62.00	-56.180	84.744	
63.00	-55.727	94.653	
64.00	-55.861	113.280	
65.00	-55.836	123.338	
66.00	-56.412	135.959	
67.00	-57.522	156.171	
68.00	-56.412	-177.690	
69.00	-57.149	-169.263	
70.00	-58.373	-135.821	
71.00	-59.446	-112.712	
72.00	-56.622	-94.166	
73.00	-58.113	-82.562	
74.00	-56.774	-66.652	
75.00	-57.200	-27.966	
76.00	-57.505	-10.165	
77.00	-57.742	15.429	
78.00	-58.869	39.040	
79.00	-57.760	54.599	
80.00	-58.289	77.738	
81.00	-58.277	91.378	
82.00	-57.956	132.877	
83.00	-57.848	148.853	
84.00	-55.876	177.059	
85.00	-54.585	-175.671	
86.00	-53.332	-147.436	
87.00	-54.445	-131.048	
88.00	-51.518	-111.238	
89.00	-51.431	-103.584	
90.00	-52.484	-98.972	
91.00	-51.586	-78.341	
92.00	-51.518	-56.771	
93.00	-51.850	-37.636	
94.00	-52.254	-15.852	
95.00	-51.518	-0.427	
96.00	-51.465	19.264	
97.00	-50.997	37.810	
98.00	-50.473	59.485	
99.00	-50.216	78.746	
100.00	-49.489	95.822	
101.00	-48.965	119.075	
102.00	-48.525	137.449	
103.00	-48.435	155.613	
104.00	-47.357	174.780	
105.00	-47.278	-171.033	
106.00	-46.563	-153.425	
107.00	-46.723	-140.890	
108.00	-46.589	-125.980	
109.00	-46.797	-111.298	
110.00	-46.978	-97.655	
111.00	-48.020	-80.990	
112.00	-48.557	-62.069	
113.00	-48.835	-49.195	
114.00	-49.850	-25.496	
115.00	-51.261	-5.648	
116.00	-51.480	22.135	
117.00	-51.759	52.144	
118.00	-50.581	82.869	
119.00	-50.173	107.224	
120.00	-49.134	119.147	
121.00	-48.840	140.882	
122.00	-46.794	157.424	
123.00	-46.840	167.203	
124.00	-47.704	-178.726	
125.00	-48.142	-164.149	
126.00	-48.575	-154.617	
127.00	-49.964	-138.418	
128.00	-52.567	-126.390	
129.00	-56.233	-110.476	
130.00	-64.056	-66.908	
131.00	-65.327	60.659	
132.00	-56.680	87.916	
133.00	-52.332	102.712	
134.00	-49.100	115.886	
135.00	-47.014	128.103	
136.00	-45.431	139.758	
137.00	-44.322	152.886	
138.00	-43.671	163.361	
139.00	-43.476	174.673	
140.00	-43.453	-174.609	
141.00	-43.626	-160.294	
142.00	-44.476	-147.622	
143.00	-45.362	-131.165	
144.00	-45.990	-112.870	
145.00	-47.166	-92.891	
146.00	-47.678	-67.487	
147.00	-47.709	-45.368	
148.00	-47.197	-24.022	
149.00	-47.098	-6.858	
150.00	-46.759	7.181	
151.00	-47.027	19.266	
152.00	-47.129	32.465	
153.00	-47.859	40.591	
154.00	-48.781	48.043	
155.00	-49.955	56.807	
156.00	-51.767	64.228	
157.00	-55.197	71.782	
158.00	-59.801	84.427	
159.00	-62.932	171.555	
160.00	-57.314	-160.430	
161.00	-52.717	-139.664	
162.00	-49.497	-153.262	
163.00	-47.189	-151.527	
164.00	-45.038	-152.562	
165.00	-43.500	-152.587	
166.00	-42.563	-152.603	
167.00	-42.187	-155.799	
168.00	-42.460	-158.956	
169.00	-43.558	-165.857	
170.00	-45.010	178.526	
171.00	-46.066	145.797	
172.00	-42.878	110.102	
173.00	-38.847	91.809	
174.00	-35.424	85.737	
175.00	-32.760	81.464	
176.00	-30.648	79.474	
177.00	-29.020	79.331	
178.00	-27.796	80.434	
179.00	-26.936	80.564	
180.00	-26.380	80.992	
181.00	-26.146	81.395	
182.00	-26.213	82.912	
183.00	-26.558	83.564	
184.00	-27.319	83.575	
185.00	-28.389	84.477	
186.00	-29.861	85.090	
187.00	-31.882	87.170	
188.00	-34.661	89.306	
189.00	-38.552	93.577	
190.00	-44.181	103.568	
191.00	-52.220	158.176	
192.00	-47.810	-129.942	
193.00	-43.972	-114.748	
194.00	-42.119	-109.310	
195.00	-42.085	-104.758	
196.00	-42.558	-98.485	
197.00	-43.979	-88.376	
198.00	-46.491	-70.599	
199.00	-47.547	-40.849	
200.00	-46.721	-10.368	
201.00	-45.260	8.643	
202.00	-43.776	18.041	
203.00	-43.196	22.919	
204.00	-43.513	25.999	
205.00	-44.616	27.103	
206.00	-47.089	29.530	
207.00	-51.619	35.492	
208.00	-63.229	75.314	
209.00	-55.602	-173.448	
210.00	-49.078	-163.884	
211.00	-45.907	-159.739	
212.00	-43.988	-158.036	
213.00	-42.994	-154.116	
214.00	-42.191	-150.632	
215.00	-42.035	-144.380	
216.00	-41.627	-136.342	
217.00	-41.256	-129.970	
218.00	-40.339	-122.891	
219.00	-39.730	-118.009	
220.00	-38.869	-115.793	
221.00	-38.262	-113.697	
222.00	-37.585	-114.755	
223.00	-37.162	-117.092	
224.00	-36.924	-120.561	
225.00	-36.612	-124.816	
226.00	-36.531	-129.114	
227.00	-36.652	-135.197	
228.00	-36.652	-141.180	
229.00	-36.651	-146.014	
230.00	-37.054	-152.161	
231.00	-37.403	-156.749	
232.00	-37.862	-162.161	
233.00	-38.333	-167.142	
234.00	-38.939	-170.203	
235.00	-39.550	-172.884	
236.00	-40.070	-175.904	
237.00	-40.851	-177.890	
238.00	-41.452	-178.779	
239.00	-41.939	179.846	
240.00	-42.377	178.531	
241.00	-42.758	176.154	
242.00	-43.174	173.046	
243.00	-43.169	169.382	
244.00	-43.198	164.315	
245.00	-43.378	158.342	
246.00	-43.192	151.224	
247.00	-43.314	141.914	
248.00	-43.412	134.628	
249.00	-43.295	126.091	
250.00	-43.453	116.611	
251.00	-43.292	107.376	
252.00	-43.381	96.737	
253.00	-43.421	85.487	
254.00	-43.636	74.476	
255.00	-43.768	63.529	
256.00	-44.105	54.113	
257.00	-44.333	40.921	
258.00	-44.529	30.429	
259.00	-44.888	18.456	
260.00	-45.917	6.172	
261.00	-46.109	-7.362	
262.00	-47.177	-17.434	
263.00	-48.285	-30.348	
264.00	-49.367	-50.954	
265.00	-49.631	-64.640	
266.00	-50.271	-86.548	
267.00	-50.839	-101.166	
268.00	-50.713	-121.189	
269.00	-51.577	-139.806	
270.00	-51.275	-156.423	
271.00	-51.655	-173.221	
272.00	-52.139	170.067	
273.00	-52.349	153.479	
274.00	-53.199	134.792	
275.00	-53.834	115.153	
276.00	-54.340	95.984	
277.00	-52.673	76.688	
278.00	-54.158	55.955	
279.00	-54.209	28.239	
280.00	-54.321	14.219	
281.00	-55.913	-5.285	
282.00	-53.880	-35.880	
283.00	-56.024	-42.801	
284.00	-54.832	-61.076	
285.00	-54.339	-82.105	
286.00	-54.468	-101.026	
287.00	-53.606	-127.892	
288.00	-53.713	-136.836	
289.00	-54.874	-151.975	
290.00	-54.852	-163.899	
291.00	-56.981	176.495	
292.00	-63.369	167.108	
293.00	-65.624	146.559	
294.00	-69.741	48.076	
295.00	-63.151	-7.249	
296.00	-59.653	-14.232	
297.00	-58.538	-25.574	
298.00	-54.350	-30.420	
299.00	-55.933	-52.811	
300.00	-54.376	-52.442	
301.00	-55.621	-52.169	
302.00	-55.459	-67.183	
303.00	-57.911	-59.406	
304.00	-61.322	-57.926	
305.00	-57.983	-66.015	
306.00	-64.848	-59.978	
307.00	-61.920	-53.548	
308.00	-60.114	-74.665	
309.00	-58.687	-103.259	
310.00	-60.633	-98.323	
311.00	-65.463	-108.331	
312.00	-60.965	-156.485	
313.00	-61.525	-152.323	
314.00	-64.041	-155.200	
315.00	-63.782	119.237	
316.00	-71.976	133.509	
317.00	-65.469	56.599	
318.00	-60.944	49.344	
319.00	-59.330	55.907	
320.00	-57.741	23.565	
321.00	-59.621	42.600	
322.00	-56.521	1.478	
323.00	-56.873	-4.780	
324.00	-60.648	-9.526	
325.00	-60.447	-34.402	
326.00	-61.655	-40.891	
327.00	-56.044	-65.326	
328.00	-55.465	-104.516	
329.00	-58.141	-114.679	
330.00	-55.752	-143.857	
331.00	-53.171	-145.398	
332.00	-54.931	-175.258	
333.00	-54.229	-171.541	
334.00	-49.922	171.955	
335.00	-53.585	169.846	
336.00	-52.819	151.017	
337.00	-53.055	126.014	
338.00	-55.104	129.317	
339.00	-60.388	50.506	
340.00	-62.006	44.671	
341.00	-57.041	18.899	
342.00	-54.584	-34.632	
343.00	-55.884	-26.050	
344.00	-54.405	-45.360	
345.00	-55.944	-73.582	
346.00	-57.062	-86.311	
347.00	-53.892	-93.322	
348.00	-53.648	-80.579	
349.00	-55.735	-120.104	
350.00	-52.803	-112.489	
351.00	-53.673	-148.640	
352.00	-54.365	-163.001	
353.00	-57.077	-139.158	
354.00	-54.651	-155.204	
355.00	-58.780	155.025	
356.00	-62.945	145.330	
357.00	-62.530	153.905	
358.00	-65.581	131.520	
359.00	-59.697	133.594	
Frequency	1800.00	MHz	
Channel	test		
Scan Axis name	Azimuth  [deg]		
Scan Axis	Amplitude	Phase	
			
0.00	-64.149	99.330	
1.00	-62.700	71.205	
2.00	-60.399	51.555	
3.00	-58.769	33.748	
4.00	-58.850	21.175	
5.00	-58.727	5.009	
6.00	-59.461	-13.655	
7.00	-58.859	-32.987	
8.00	-58.736	-51.722	
9.00	-57.968	-66.665	
10.00	-57.220	-75.395	
11.00	-57.406	-85.044	
12.00	-57.225	-94.934	
13.00	-57.180	-100.400	
14.00	-57.456	-100.946	
15.00	-58.534	-102.914	
16.00	-58.357	-103.587	
17.00	-59.334	-101.905	
18.00	-60.923	-96.355	
19.00	-61.699	-98.050	
20.00	-61.853	-87.213	
21.00	-61.352	-84.685	
22.00	-62.247	-79.947	
23.00	-59.624	-63.858	
24.00	-59.148	-60.414	
25.00	-58.120	-52.974	
26.00	-56.294	-40.782	
27.00	-56.937	-38.122	
28.00	-56.781	-15.489	
29.00	-56.330	-15.503	
30.00	-57.434	-1.347	
31.00	-58.488	0.353	
32.00	-60.037	26.358	
33.00	-59.207	47.502	
34.00	-58.506	54.603	
35.00	-58.420	70.749	
36.00	-57.138	78.029	
37.00	-57.235	90.412	
38.00	-57.909	92.879	
39.00	-58.583	108.134	
40.00	-62.316	111.558	
41.00	-64.012	119.226	
42.00	-69.420	131.084	
43.00	-93.228	123.781	
44.00	-74.721	-11.909	
45.00	-71.180	-13.931	
46.00	-69.248	18.989	
47.00	-68.187	48.439	
48.00	-68.671	79.082	
49.00	-65.323	108.657	
50.00	-64.909	137.234	
51.00	-65.700	164.452	
52.00	-65.511	-167.010	
53.00	-65.370	-141.620	
54.00	-65.848	-91.527	
55.00	-64.144	-56.476	
56.00	-61.451	-21.157	
57.00	-58.560	-3.005	
58.00	-57.164	17.953	
59.00	-56.061	39.432	
60.00	-54.678	51.621	
61.00	-54.310	67.436	
62.00	-53.848	79.455	
63.00	-54.599	94.564	
64.00	-55.331	103.758	
65.00	-56.857	121.362	
66.00	-58.718	122.980	
67.00	-62.538	130.947	
68.00	-66.768	129.288	
69.00	-78.340	23.365	
70.00	-68.451	9.270	
71.00	-62.034	27.299	
72.00	-59.750	35.894	
73.00	-58.005	51.178	
74.00	-57.027	64.782	
75.00	-56.050	78.329	
76.00	-55.546	97.391	
77.00	-54.593	112.788	
78.00	-54.418	125.789	
79.00	-53.044	137.483	
80.00	-52.852	160.531	
81.00	-52.513	-176.224	
82.00	-53.239	-161.834	
83.00	-52.509	-143.391	
84.00	-51.945	-122.617	
85.00	-53.041	-112.729	
86.00	-52.096	-99.881	
87.00	-49.822	-77.922	
88.00	-50.706	-66.624	
89.00	-49.864	-50.041	
90.00	-49.214	-39.719	
91.00	-48.617	-19.924	
92.00	-47.891	-4.715	
93.00	-47.097	8.865	
94.00	-46.557	22.294	
95.00	-46.097	35.951	
96.00	-45.812	47.221	
97.00	-45.453	62.052	
98.00	-45.436	73.727	
99.00	-45.546	88.551	
100.00	-45.689	103.467	
101.00	-45.871	126.463	
102.00	-46.202	147.053	
103.00	-46.176	164.944	
104.00	-45.870	-175.436	
105.00	-45.962	-154.498	
106.00	-45.720	-134.767	
107.00	-45.299	-113.340	
108.00	-44.735	-94.453	
109.00	-44.199	-72.801	
110.00	-43.324	-55.280	
111.00	-42.676	-34.079	
112.00	-41.684	-18.108	
113.00	-40.915	-1.652	
114.00	-40.340	12.885	
115.00	-39.965	27.192	
116.00	-39.725	41.618	
117.00	-39.757	55.398	
118.00	-40.008	69.665	
119.00	-40.330	84.044	
120.00	-40.773	100.517	
121.00	-41.692	115.746	
122.00	-42.793	133.564	
123.00	-44.530	149.765	
124.00	-46.489	171.454	
125.00	-48.742	-156.524	
126.00	-50.650	-112.132	
127.00	-48.976	-64.113	
128.00	-45.989	-31.948	
129.00	-43.335	-10.303	
130.00	-41.345	6.970	
131.00	-39.817	20.829	
132.00	-38.916	35.413	
133.00	-38.239	48.817	
134.00	-37.858	61.754	
135.00	-37.969	75.754	
136.00	-38.057	90.048	
137.00	-38.402	106.744	
138.00	-38.712	122.586	
139.00	-38.980	140.192	
140.00	-39.288	155.961	
141.00	-39.534	173.846	
142.00	-39.920	-170.382	
143.00	-40.400	-153.471	
144.00	-40.940	-136.001	
145.00	-41.564	-118.211	
146.00	-42.221	-97.199	
147.00	-42.515	-76.109	
148.00	-42.588	-54.024	
149.00	-42.277	-33.394	
150.00	-41.907	-14.627	
151.00	-41.632	1.095	
152.00	-41.425	17.132	
153.00	-41.235	30.940	
154.00	-41.150	44.698	
155.00	-41.156	58.496	
156.00	-41.196	71.409	
157.00	-41.331	81.395	
158.00	-41.282	90.880	
159.00	-41.331	99.263	
160.00	-41.366	105.152	
161.00	-41.442	109.584	
162.00	-41.224	110.769	
163.00	-40.862	111.761	
164.00	-40.419	112.672	
165.00	-39.778	114.713	
166.00	-39.050	116.484	
167.00	-38.345	119.513	
168.00	-37.630	125.018	
169.00	-36.846	133.135	
170.00	-35.992	141.993	
171.00	-34.975	150.154	
172.00	-33.838	158.538	
173.00	-32.578	165.587	
174.00	-31.324	172.252	
175.00	-30.107	175.798	
176.00	-29.088	178.251	
177.00	-28.092	-179.248	
178.00	-27.314	-177.270	
179.00	-26.664	-177.137	
180.00	-26.214	-177.536	
181.00	-25.950	-178.547	
182.00	-25.898	-178.737	
183.00	-26.085	179.771	
184.00	-26.511	177.423	
185.00	-27.197	175.687	
186.00	-28.190	173.451	
187.00	-29.506	173.134	
188.00	-31.253	170.584	
189.00	-33.499	169.167	
190.00	-36.360	167.670	
191.00	-40.164	169.183	
192.00	-45.416	173.652	
193.00	-52.583	-166.915	
194.00	-58.341	-99.294	
195.00	-55.166	-65.099	
196.00	-56.517	-68.260	
197.00	-63.997	-105.799	
198.00	-57.527	153.040	
199.00	-49.781	131.686	
200.00	-46.219	123.356	
201.00	-43.970	115.521	
202.00	-42.929	107.031	
203.00	-42.426	97.710	
204.00	-43.073	87.622	
205.00	-44.469	75.359	
206.00	-46.788	57.368	
207.00	-49.658	24.672	
208.00	-49.938	-23.834	
209.00	-46.917	-64.139	
210.00	-44.008	-84.714	
211.00	-41.988	-98.203	
212.00	-40.653	-108.885	
213.00	-40.232	-116.358	
214.00	-40.112	-122.848	
215.00	-40.631	-126.865	
216.00	-41.620	-126.542	
217.00	-42.849	-121.279	
218.00	-43.590	-107.178	
219.00	-42.889	-88.030	
220.00	-40.729	-75.927	
221.00	-38.571	-71.643	
222.00	-36.586	-72.854	
223.00	-35.142	-76.489	
224.00	-34.074	-82.402	
225.00	-33.267	-89.421	
226.00	-32.786	-96.937	
227.00	-32.513	-105.531	
228.00	-32.452	-114.441	
229.00	-32.543	-123.564	
230.00	-32.796	-132.850	
231.00	-33.196	-142.186	
232.00	-33.747	-151.250	
233.00	-34.434	-160.040	
234.00	-35.338	-168.152	
235.00	-36.391	-175.299	
236.00	-37.588	178.526	
237.00	-38.930	173.089	
238.00	-40.444	170.468	
239.00	-42.065	170.015	
240.00	-43.489	171.163	
241.00	-44.562	174.341	
242.00	-45.037	178.873	
243.00	-45.353	-179.479	
244.00	-44.997	178.693	
245.00	-44.806	175.696	
246.00	-44.742	168.784	
247.00	-44.594	160.037	
248.00	-44.624	151.170	
249.00	-44.709	139.955	
250.00	-44.794	128.814	
251.00	-45.271	116.123	
252.00	-45.530	103.366	
253.00	-45.930	88.637	
254.00	-46.229	73.891	
255.00	-46.677	58.932	
256.00	-47.021	42.691	
257.00	-47.374	26.812	
258.00	-47.539	11.914	
259.00	-47.752	-4.175	
260.00	-47.909	-19.348	
261.00	-48.351	-35.746	
262.00	-48.662	-50.807	
263.00	-49.096	-66.188	
264.00	-49.596	-83.637	
265.00	-50.069	-101.192	
266.00	-50.220	-120.297	
267.00	-50.402	-138.486	
268.00	-50.076	-157.379	
269.00	-50.132	-174.958	
270.00	-50.013	169.824	
271.00	-49.702	155.087	
272.00	-50.096	141.708	
273.00	-50.403	126.810	
274.00	-50.902	112.060	
275.00	-51.543	93.702	
276.00	-52.430	77.591	
277.00	-53.168	57.585	
278.00	-53.275	36.976	
279.00	-53.863	17.154	
280.00	-54.050	1.215	
281.00	-54.612	-18.582	
282.00	-55.400	-40.042	
283.00	-55.584	-60.075	
284.00	-56.923	-84.581	
285.00	-57.094	-112.570	
286.00	-56.662	-134.883	
287.00	-55.738	-168.111	
288.00	-55.654	178.501	
289.00	-55.343	158.468	
290.00	-56.176	147.230	
291.00	-57.270	128.439	
292.00	-57.590	104.009	
293.00	-58.679	83.043	
294.00	-59.669	54.050	
295.00	-59.358	29.267	
296.00	-59.739	10.659	
297.00	-60.309	-8.231	
298.00	-61.283	-20.725	
299.00	-63.748	-46.567	
300.00	-66.753	-79.942	
301.00	-69.200	-127.039	
302.00	-66.315	-175.973	
303.00	-63.999	156.675	
304.00	-61.010	142.273	
305.00	-59.445	125.126	
306.00	-57.736	113.033	
307.00	-57.351	98.989	
308.00	-56.744	88.948	
309.00	-56.537	77.622	
310.00	-55.932	66.130	
311.00	-55.875	53.860	
312.00	-55.093	44.473	
313.00	-55.342	29.509	
314.00	-55.093	17.822	
315.00	-55.269	2.540	
316.00	-55.500	-10.444	
317.00	-56.042	-29.219	
318.00	-56.159	-45.720	
319.00	-56.751	-68.778	
320.00	-57.456	-88.532	
321.00	-57.812	-113.918	
322.00	-57.563	-135.489	
323.00	-57.163	-161.604	
324.00	-56.877	175.141	
325.00	-57.810	156.835	
326.00	-57.345	136.996	
327.00	-57.755	116.493	
328.00	-57.913	91.246	
329.00	-58.421	63.848	
330.00	-57.703	32.978	
331.00	-55.137	15.743	
332.00	-54.436	-8.042	
333.00	-53.072	-21.501	
334.00	-51.749	-34.637	
335.00	-50.960	-46.455	
336.00	-50.148	-56.956	
337.00	-49.981	-68.569	
338.00	-50.057	-77.803	
339.00	-50.353	-89.231	
340.00	-51.001	-99.736	
341.00	-52.261	-111.356	
342.00	-54.058	-130.013	
343.00	-55.587	-147.978	
344.00	-57.723	-172.071	
345.00	-58.601	158.790	
346.00	-59.153	130.048	
347.00	-58.915	104.430	
348.00	-59.250	84.579	
349.00	-60.482	56.878	
350.00	-60.501	29.007	
351.00	-61.717	1.099	
352.00	-61.199	-25.264	
353.00	-61.434	-48.711	
354.00	-61.440	-77.151	
355.00	-62.884	-98.638	
356.00	-62.500	-126.549	
357.00	-63.816	-154.319	
358.00	-65.301	172.282	
359.00	-64.974	134.362	
Frequency	1850.00	MHz	
Channel	test		
Scan Axis name	Azimuth  [deg]		
Scan Axis	Amplitude	Phase	
			
0.00	-69.433	9.847	
1.00	-68.787	7.493	
2.00	-72.224	26.336	
3.00	-79.770	21.789	
4.00	-77.308	-97.878	
5.00	-70.564	-103.394	
6.00	-66.410	-94.659	
7.00	-64.203	-94.768	
8.00	-62.855	-101.845	
9.00	-62.582	-98.853	
10.00	-64.522	-103.586	
11.00	-67.329	-95.476	
12.00	-71.091	-144.839	
13.00	-69.565	121.754	
14.00	-60.523	95.605	
15.00	-59.345	94.944	
16.00	-56.605	84.948	
17.00	-54.578	86.749	
18.00	-53.884	85.293	
19.00	-53.118	88.933	
20.00	-53.901	92.041	
21.00	-55.892	97.710	
22.00	-59.773	103.800	
23.00	-68.446	113.988	
24.00	-70.486	-70.939	
25.00	-60.083	-60.516	
26.00	-55.774	-54.798	
27.00	-53.436	-46.037	
28.00	-52.525	-40.842	
29.00	-51.656	-37.394	
30.00	-51.605	-34.016	
31.00	-51.827	-32.976	
32.00	-52.592	-30.488	
33.00	-53.153	-24.426	
34.00	-55.211	-20.889	
35.00	-56.273	-14.983	
36.00	-58.331	5.362	
37.00	-61.082	13.465	
38.00	-64.543	44.360	
39.00	-65.063	69.619	
40.00	-65.966	80.130	
41.00	-65.943	91.547	
42.00	-64.650	78.139	
43.00	-62.573	60.026	
44.00	-60.511	57.028	
45.00	-58.355	61.979	
46.00	-56.576	71.208	
47.00	-56.060	77.836	
48.00	-56.723	90.173	
49.00	-58.039	101.339	
50.00	-60.997	120.019	
51.00	-66.503	140.869	
52.00	-74.862	-108.752	
53.00	-64.455	-57.042	
54.00	-59.796	-33.843	
55.00	-56.685	-21.836	
56.00	-56.033	-8.043	
57.00	-55.844	3.155	
58.00	-56.677	13.214	
59.00	-57.586	27.878	
60.00	-60.585	38.799	
61.00	-65.509	44.274	
62.00	-83.078	19.040	
63.00	-67.120	-89.229	
64.00	-61.472	-77.815	
65.00	-58.260	-69.080	
66.00	-56.551	-52.423	
67.00	-55.204	-36.595	
68.00	-54.444	-19.685	
69.00	-53.921	-1.493	
70.00	-53.712	15.264	
71.00	-52.907	37.189	
72.00	-52.717	52.352	
73.00	-52.694	65.269	
74.00	-52.710	83.340	
75.00	-52.843	98.938	
76.00	-53.304	113.591	
77.00	-53.678	127.818	
78.00	-54.777	142.801	
79.00	-55.919	158.895	
80.00	-57.851	176.943	
81.00	-60.093	-160.886	
82.00	-62.614	-127.658	
83.00	-63.063	-94.831	
84.00	-62.372	-57.591	
85.00	-60.935	-36.674	
86.00	-59.609	-10.366	
87.00	-57.927	9.188	
88.00	-57.097	23.706	
89.00	-56.229	41.824	
90.00	-56.763	55.906	
91.00	-55.383	70.068	
92.00	-55.367	84.808	
93.00	-55.424	99.595	
94.00	-55.274	115.225	
95.00	-55.423	131.842	
96.00	-55.891	151.687	
97.00	-55.563	172.855	
98.00	-55.225	-162.418	
99.00	-54.040	-141.761	
100.00	-52.695	-123.292	
101.00	-51.585	-96.051	
102.00	-50.199	-77.869	
103.00	-48.891	-61.746	
104.00	-47.999	-47.820	
105.00	-46.743	-32.635	
106.00	-46.325	-19.664	
107.00	-45.227	-4.223	
108.00	-44.467	8.914	
109.00	-43.884	23.244	
110.00	-43.277	35.767	
111.00	-42.920	51.468	
112.00	-42.675	63.392	
113.00	-42.489	77.903	
114.00	-42.256	92.264	
115.00	-42.300	106.702	
116.00	-42.337	121.729	
117.00	-43.031	136.424	
118.00	-42.796	152.761	
119.00	-43.208	168.225	
120.00	-43.464	-173.968	
121.00	-44.158	-158.628	
122.00	-44.884	-141.456	
123.00	-45.777	-124.839	
124.00	-46.989	-107.836	
125.00	-48.646	-88.148	
126.00	-51.525	-65.116	
127.00	-54.263	-29.084	
128.00	-55.232	35.121	
129.00	-51.323	75.633	
130.00	-46.753	98.909	
131.00	-44.868	119.007	
132.00	-42.966	131.878	
133.00	-41.751	145.074	
134.00	-40.885	157.106	
135.00	-40.396	169.522	
136.00	-40.195	-175.881	
137.00	-40.310	-162.838	
138.00	-40.435	-148.709	
139.00	-40.747	-132.199	
140.00	-41.174	-115.736	
141.00	-41.537	-97.837	
142.00	-42.014	-78.970	
143.00	-42.487	-62.516	
144.00	-42.858	-40.100	
145.00	-43.013	-19.476	
146.00	-43.162	0.260	
147.00	-43.055	19.877	
148.00	-42.820	37.621	
149.00	-43.057	52.903	
150.00	-43.636	67.226	
151.00	-44.569	81.611	
152.00	-46.129	99.712	
153.00	-48.263	114.236	
154.00	-50.650	138.421	
155.00	-52.487	175.789	
156.00	-51.785	-152.623	
157.00	-50.594	-127.111	
158.00	-49.282	-115.738	
159.00	-48.712	-112.290	
160.00	-48.340	-111.611	
161.00	-48.123	-120.186	
162.00	-47.025	-133.161	
163.00	-45.980	-146.254	
164.00	-44.204	-153.114	
165.00	-42.977	-157.139	
166.00	-42.285	-157.335	
167.00	-42.205	-154.796	
168.00	-43.094	-145.568	
169.00	-44.341	-123.390	
170.00	-43.919	-87.717	
171.00	-40.675	-59.131	
172.00	-36.793	-42.689	
173.00	-33.630	-34.488	
174.00	-31.031	-29.356	
175.00	-28.997	-27.289	
176.00	-27.345	-26.082	
177.00	-26.040	-25.280	
178.00	-25.113	-24.335	
179.00	-24.459	-24.905	
180.00	-24.149	-25.831	
181.00	-24.053	-27.321	
182.00	-24.299	-27.789	
183.00	-24.821	-29.047	
184.00	-25.769	-31.980	
185.00	-27.052	-33.780	
186.00	-28.778	-36.219	
187.00	-31.117	-37.638	
188.00	-34.278	-40.404	
189.00	-38.904	-42.622	
190.00	-47.012	-42.366	
191.00	-56.541	105.642	
192.00	-45.195	118.601	
193.00	-42.059	115.715	
194.00	-40.699	111.122	
195.00	-41.207	104.187	
196.00	-42.521	97.995	
197.00	-44.748	87.385	
198.00	-47.584	67.854	
199.00	-51.805	38.732	
200.00	-53.187	-2.947	
201.00	-52.203	-32.746	
202.00	-52.317	-39.654	
203.00	-52.675	-40.125	
204.00	-53.022	-11.180	
205.00	-51.344	0.227	
206.00	-47.560	18.254	
207.00	-44.758	21.417	
208.00	-42.607	18.851	
209.00	-41.070	14.902	
210.00	-40.192	11.730	
211.00	-39.743	7.694	
212.00	-40.101	3.053	
213.00	-41.265	-0.736	
214.00	-42.869	-1.125	
215.00	-45.515	3.673	
216.00	-48.439	29.090	
217.00	-47.667	67.723	
218.00	-44.060	81.489	
219.00	-40.999	82.769	
220.00	-39.022	80.712	
221.00	-37.523	74.636	
222.00	-36.597	67.586	
223.00	-36.166	59.709	
224.00	-36.074	51.926	
225.00	-36.298	43.203	
226.00	-36.856	34.675	
227.00	-37.795	25.812	
228.00	-39.050	17.462	
229.00	-40.551	8.814	
230.00	-42.873	3.954	
231.00	-45.598	1.093	
232.00	-48.910	6.725	
233.00	-51.316	32.076	
234.00	-50.419	54.781	
235.00	-47.776	64.379	
236.00	-45.613	60.816	
237.00	-44.329	53.281	
238.00	-43.290	45.595	
239.00	-42.608	34.166	
240.00	-42.256	22.936	
241.00	-42.163	9.811	
242.00	-42.350	-3.526	
243.00	-42.604	-17.125	
244.00	-42.988	-31.670	
245.00	-43.572	-47.081	
246.00	-44.116	-63.303	
247.00	-44.633	-79.901	
248.00	-45.149	-97.290	
249.00	-45.526	-114.910	
250.00	-45.882	-131.073	
251.00	-46.167	-148.060	
252.00	-46.237	-163.432	
253.00	-46.475	-178.350	
254.00	-46.662	167.717	
255.00	-47.043	153.619	
256.00	-47.345	141.159	
257.00	-47.881	128.202	
258.00	-48.399	115.366	
259.00	-48.990	101.926	
260.00	-49.314	89.888	
261.00	-49.875	75.553	
262.00	-50.448	62.937	
263.00	-50.770	49.343	
264.00	-51.308	36.153	
265.00	-51.594	22.556	
266.00	-52.208	7.836	
267.00	-52.760	-5.526	
268.00	-53.196	-19.249	
269.00	-53.840	-34.178	
270.00	-54.674	-50.436	
271.00	-55.085	-66.192	
272.00	-55.606	-80.020	
273.00	-56.290	-95.444	
274.00	-56.889	-111.460	
275.00	-58.157	-127.184	
276.00	-58.785	-141.130	
277.00	-60.130	-160.054	
278.00	-61.230	-174.432	
279.00	-62.203	179.688	
280.00	-63.957	168.241	
281.00	-64.727	153.598	
282.00	-67.535	139.743	
283.00	-70.378	156.449	
284.00	-67.885	179.839	
285.00	-67.165	-164.960	
286.00	-64.889	-160.687	
287.00	-64.625	-173.489	
288.00	-63.074	174.817	
289.00	-62.469	171.808	
290.00	-61.927	154.815	
291.00	-61.560	131.407	
292.00	-61.635	116.453	
293.00	-62.583	93.653	
294.00	-60.229	66.194	
295.00	-58.937	42.822	
296.00	-57.274	22.831	
297.00	-56.813	6.797	
298.00	-56.030	-9.839	
299.00	-55.135	-21.744	
300.00	-54.983	-31.333	
301.00	-55.780	-31.921	
302.00	-53.457	-32.192	
303.00	-54.496	-58.239	
304.00	-54.454	-64.777	
305.00	-54.079	-69.387	
306.00	-54.085	-76.899	
307.00	-53.816	-86.365	
308.00	-53.054	-85.895	
309.00	-52.451	-93.109	
310.00	-51.670	-100.116	
311.00	-51.167	-109.549	
312.00	-51.079	-117.927	
313.00	-51.386	-127.477	
314.00	-51.681	-140.206	
315.00	-52.507	-154.170	
316.00	-53.534	-169.808	
317.00	-54.600	170.795	
318.00	-55.658	150.436	
319.00	-56.125	126.493	
320.00	-56.299	104.532	
321.00	-56.836	86.563	
322.00	-57.130	66.015	
323.00	-57.453	47.063	
324.00	-58.908	27.556	
325.00	-60.204	3.895	
326.00	-61.020	-22.312	
327.00	-60.906	-48.516	
328.00	-58.748	-76.540	
329.00	-60.496	-90.448	
330.00	-60.998	-104.588	
331.00	-62.241	-119.571	
332.00	-66.076	-138.964	
333.00	-72.713	-176.441	
334.00	-72.491	90.345	
335.00	-64.962	48.992	
336.00	-61.110	32.019	
337.00	-58.463	4.577	
338.00	-57.731	1.094	
339.00	-56.275	-13.890	
340.00	-55.304	-29.283	
341.00	-54.455	-41.309	
342.00	-54.143	-52.802	
343.00	-53.814	-61.660	
344.00	-53.922	-71.961	
345.00	-54.455	-79.274	
346.00	-55.102	-87.368	
347.00	-56.471	-91.788	
348.00	-58.008	-94.656	
349.00	-60.210	-94.897	
350.00	-64.021	-80.758	
351.00	-66.110	-57.188	
352.00	-66.192	-28.988	
353.00	-63.711	-18.682	
354.00	-61.797	-13.735	
355.00	-63.489	-18.062	
356.00	-62.689	-16.635	
357.00	-64.550	-23.203	
358.00	-65.876	-15.686	
359.00	-67.649	-16.727	
Frequency	1950.00	MHz	
Channel	test		
Scan Axis name	Azimuth  [deg]		
Scan Axis	Amplitude	Phase	
			
0.00	-63.163	-73.636	
1.00	-61.692	-104.123	
2.00	-60.067	-118.845	
3.00	-59.682	-133.701	
4.00	-58.049	-131.390	
5.00	-57.262	-138.676	
6.00	-56.940	-137.624	
7.00	-57.736	-142.611	
8.00	-58.612	-157.981	
9.00	-58.830	-149.801	
10.00	-56.833	-163.756	
11.00	-56.798	-165.122	
12.00	-56.700	-165.616	
13.00	-56.550	-175.547	
14.00	-56.289	-174.860	
15.00	-56.264	-174.706	
16.00	-57.078	-173.802	
17.00	-57.233	-177.476	
18.00	-58.152	-171.572	
19.00	-60.666	-169.634	
20.00	-63.023	-171.299	
21.00	-68.752	-170.391	
22.00	-70.262	155.014	
23.00	-72.633	127.257	
24.00	-70.932	121.638	
25.00	-67.766	109.156	
26.00	-66.749	133.682	
27.00	-66.925	129.880	
28.00	-70.806	124.889	
29.00	-70.541	155.057	
30.00	-73.732	178.158	
31.00	-68.434	22.495	
32.00	-69.883	-23.267	
33.00	-67.161	-45.229	
34.00	-63.573	-12.265	
35.00	-62.034	32.226	
36.00	-64.442	20.866	
37.00	-62.871	1.174	
38.00	-63.588	26.719	
39.00	-66.173	57.401	
40.00	-68.620	73.291	
41.00	-64.242	115.980	
42.00	-63.069	143.373	
43.00	-64.809	168.201	
44.00	-68.593	-168.015	
45.00	-74.240	-119.951	
46.00	-73.298	-39.141	
47.00	-67.676	-32.279	
48.00	-60.951	15.415	
49.00	-58.767	29.240	
50.00	-57.483	43.456	
51.00	-56.707	55.261	
52.00	-56.861	69.199	
53.00	-57.331	82.215	
54.00	-58.364	99.891	
55.00	-61.417	109.333	
56.00	-63.611	121.517	
57.00	-70.598	144.563	
58.00	-70.261	-178.019	
59.00	-70.244	-65.978	
60.00	-67.948	-126.168	
61.00	-67.737	-107.437	
62.00	-64.864	-113.123	
63.00	-63.416	-116.623	
64.00	-62.036	-125.552	
65.00	-58.926	-104.421	
66.00	-60.246	-106.970	
67.00	-59.576	-96.015	
68.00	-59.921	-81.895	
69.00	-62.178	-78.612	
70.00	-64.747	-48.268	
71.00	-66.288	-21.827	
72.00	-65.701	12.626	
73.00	-65.815	51.362	
74.00	-63.777	89.926	
75.00	-62.516	92.172	
76.00	-61.064	117.183	
77.00	-61.253	135.955	
78.00	-60.326	161.152	
79.00	-60.136	-174.542	
80.00	-59.445	-165.181	
81.00	-61.146	-149.804	
82.00	-60.022	-133.676	
83.00	-61.051	-123.615	
84.00	-62.061	-101.679	
85.00	-61.361	-71.561	
86.00	-62.384	-17.967	
87.00	-62.585	-27.715	
88.00	-61.428	-7.428	
89.00	-60.812	2.757	
90.00	-59.885	24.456	
91.00	-61.415	18.835	
92.00	-64.000	20.264	
93.00	-65.179	33.743	
94.00	-68.386	33.117	
95.00	-76.944	38.737	
96.00	-75.623	-45.616	
97.00	-67.289	-82.139	
98.00	-65.585	-89.610	
99.00	-63.929	-91.638	
100.00	-62.487	-91.114	
101.00	-61.942	-84.697	
102.00	-61.450	-86.588	
103.00	-61.157	-78.965	
104.00	-61.175	-75.944	
105.00	-60.292	-78.832	
106.00	-59.692	-72.176	
107.00	-58.690	-66.275	
108.00	-57.527	-59.803	
109.00	-55.822	-55.313	
110.00	-54.785	-46.163	
111.00	-53.428	-32.775	
112.00	-51.900	-28.097	
113.00	-51.242	-17.146	
114.00	-50.554	-9.472	
115.00	-50.187	1.165	
116.00	-49.866	12.978	
117.00	-49.948	22.974	
118.00	-50.163	37.003	
119.00	-50.625	52.587	
120.00	-51.099	71.658	
121.00	-51.291	92.171	
122.00	-51.480	112.052	
123.00	-51.226	130.357	
124.00	-50.531	148.766	
125.00	-50.881	161.937	
126.00	-51.159	176.542	
127.00	-52.258	-173.941	
128.00	-54.162	-157.930	
129.00	-58.386	-139.368	
130.00	-64.717	-90.788	
131.00	-60.634	-6.058	
132.00	-54.293	12.560	
133.00	-51.450	33.275	
134.00	-49.190	42.977	
135.00	-48.028	53.379	
136.00	-47.151	62.032	
137.00	-46.968	73.184	
138.00	-46.906	81.339	
139.00	-47.052	94.148	
140.00	-47.748	104.060	
141.00	-48.525	115.597	
142.00	-49.698	126.373	
143.00	-50.866	137.936	
144.00	-53.383	151.430	
145.00	-55.923	163.667	
146.00	-60.480	-173.994	
147.00	-64.299	-122.776	
148.00	-62.124	-62.959	
149.00	-58.349	-44.838	
150.00	-56.287	-30.636	
151.00	-56.984	-19.958	
152.00	-57.695	-17.071	
153.00	-60.480	2.191	
154.00	-63.014	72.849	
155.00	-63.217	146.734	
156.00	-58.578	148.863	
157.00	-54.756	159.361	
158.00	-53.439	166.087	
159.00	-51.926	167.968	
160.00	-51.771	176.040	
161.00	-53.813	175.533	
162.00	-56.095	163.486	
163.00	-61.722	118.819	
164.00	-56.215	64.034	
165.00	-51.099	47.668	
166.00	-47.877	43.620	
167.00	-46.366	42.804	
168.00	-46.555	46.701	
169.00	-47.702	48.406	
170.00	-52.673	58.191	
171.00	-58.616	-165.678	
172.00	-45.021	-138.946	
173.00	-39.012	-134.436	
174.00	-35.004	-131.089	
175.00	-32.046	-130.032	
176.00	-29.886	-128.894	
177.00	-28.260	-127.918	
178.00	-27.104	-126.318	
179.00	-26.330	-126.301	
180.00	-25.992	-126.686	
181.00	-25.969	-127.638	
182.00	-26.341	-127.724	
183.00	-27.061	-129.017	
184.00	-28.251	-131.530	
185.00	-29.858	-134.288	
186.00	-32.101	-138.183	
187.00	-35.165	-142.788	
188.00	-39.453	-153.063	
189.00	-45.464	-175.963	
190.00	-49.529	118.428	
191.00	-45.648	75.757	
192.00	-43.727	60.356	
193.00	-43.282	53.773	
194.00	-44.172	48.206	
195.00	-46.502	47.447	
196.00	-50.903	54.165	
197.00	-57.492	85.764	
198.00	-55.520	157.675	
199.00	-51.053	172.449	
200.00	-49.322	173.630	
201.00	-49.088	171.513	
202.00	-50.030	172.235	
203.00	-51.444	172.031	
204.00	-55.793	-157.692	
205.00	-54.772	-132.944	
206.00	-52.182	-108.602	
207.00	-49.321	-107.217	
208.00	-47.775	-110.928	
209.00	-46.623	-122.161	
210.00	-46.150	-134.767	
211.00	-46.388	-151.329	
212.00	-46.755	-170.596	
213.00	-47.490	164.708	
214.00	-47.714	136.134	
215.00	-47.411	105.060	
216.00	-46.324	79.018	
217.00	-45.179	54.658	
218.00	-44.012	34.686	
219.00	-43.201	15.586	
220.00	-42.735	-0.157	
221.00	-42.585	-16.630	
222.00	-42.875	-32.713	
223.00	-43.346	-48.103	
224.00	-44.163	-64.058	
225.00	-45.348	-81.325	
226.00	-46.981	-98.953	
227.00	-49.068	-118.645	
228.00	-51.946	-143.357	
229.00	-55.530	-174.505	
230.00	-58.133	131.613	
231.00	-56.462	79.876	
232.00	-53.663	47.781	
233.00	-51.835	24.207	
234.00	-51.112	5.468	
235.00	-50.352	-11.880	
236.00	-50.582	-29.303	
237.00	-51.137	-49.456	
238.00	-51.799	-72.441	
239.00	-52.566	-92.639	
240.00	-52.827	-113.874	
241.00	-53.473	-138.848	
242.00	-53.920	-159.060	
243.00	-54.674	179.338	
244.00	-55.667	160.215	
245.00	-57.161	139.344	
246.00	-58.936	113.970	
247.00	-60.676	89.635	
248.00	-62.444	53.496	
249.00	-61.820	19.604	
250.00	-61.020	-8.306	
251.00	-60.633	-28.601	
252.00	-60.480	-54.807	
253.00	-60.028	-79.449	
254.00	-59.711	-92.561	
255.00	-58.261	-112.124	
256.00	-59.626	-125.726	
257.00	-58.863	-141.258	
258.00	-58.657	-151.274	
259.00	-58.464	-162.236	
260.00	-58.446	-165.358	
261.00	-58.293	-168.160	
262.00	-60.365	-174.711	
263.00	-59.024	-167.859	
264.00	-59.525	-168.793	
265.00	-59.515	-164.782	
266.00	-59.181	-167.272	
267.00	-60.147	-169.934	
268.00	-60.433	-173.698	
269.00	-60.373	-171.015	
270.00	-61.534	178.398	
271.00	-62.093	172.408	
272.00	-63.192	172.512	
273.00	-66.457	153.562	
274.00	-68.863	160.758	
275.00	-69.444	145.036	
276.00	-71.303	122.311	
277.00	-85.162	-162.446	
278.00	-89.539	-133.941	
279.00	-75.439	-123.040	
280.00	-70.319	-129.688	
281.00	-68.351	-164.075	
282.00	-65.188	-142.756	
283.00	-65.118	-147.985	
284.00	-60.748	-165.003	
285.00	-60.880	-168.394	
286.00	-59.213	-164.825	
287.00	-58.316	176.955	
288.00	-58.071	176.064	
289.00	-57.631	170.482	
290.00	-58.901	179.389	
291.00	-60.161	164.681	
292.00	-59.579	172.246	
293.00	-62.389	143.617	
294.00	-63.641	167.435	
295.00	-64.026	175.718	
296.00	-65.014	151.136	
297.00	-65.443	163.764	
298.00	-68.386	144.932	
299.00	-67.601	122.016	
300.00	-66.981	97.217	
301.00	-65.746	79.240	
302.00	-63.765	64.637	
303.00	-65.004	51.850	
304.00	-63.701	49.672	
305.00	-64.976	44.520	
306.00	-65.734	45.893	
307.00	-65.028	38.186	
308.00	-65.620	85.256	
309.00	-68.725	81.110	
310.00	-64.091	113.904	
311.00	-63.753	90.105	
312.00	-63.512	94.133	
313.00	-64.076	88.624	
314.00	-61.189	62.797	
315.00	-63.299	46.354	
316.00	-63.270	40.849	
317.00	-63.048	18.525	
318.00	-65.579	13.533	
319.00	-64.511	-9.114	
320.00	-69.107	-1.608	
321.00	-73.405	28.472	
322.00	-71.782	88.057	
323.00	-65.641	91.000	
324.00	-63.104	85.053	
325.00	-60.869	80.579	
326.00	-59.018	79.216	
327.00	-57.501	60.193	
328.00	-58.297	59.507	
329.00	-57.945	49.740	
330.00	-57.722	38.533	
331.00	-57.351	34.022	
332.00	-57.775	13.552	
333.00	-58.317	7.441	
334.00	-58.566	-5.699	
335.00	-59.862	-26.789	
336.00	-60.682	-41.024	
337.00	-61.262	-67.965	
338.00	-63.749	-71.569	
339.00	-63.608	-93.836	
340.00	-67.535	-91.358	
341.00	-69.236	-121.445	
342.00	-65.089	-167.652	
343.00	-72.606	151.789	
344.00	-75.082	112.719	
345.00	-69.802	90.227	
346.00	-65.275	83.593	
347.00	-62.762	58.335	
348.00	-61.565	46.384	
349.00	-59.041	37.204	
350.00	-58.319	29.639	
351.00	-56.573	28.389	
352.00	-56.055	32.181	
353.00	-57.167	25.193	
354.00	-57.067	17.839	
355.00	-58.074	17.513	
356.00	-58.757	-2.217	
357.00	-60.322	-7.760	
358.00	-62.628	-20.730	
359.00	-63.969	-53.322	
Frequency	2050.00	MHz	
Channel	test		
Scan Axis name	Azimuth  [deg]		
Scan Axis	Amplitude	Phase	
			
0.00	-67.313	-8.725	
1.00	-70.380	34.373	
2.00	-71.950	70.770	
3.00	-67.968	89.782	
4.00	-64.943	112.879	
5.00	-63.765	129.134	
6.00	-61.845	141.353	
7.00	-60.844	147.081	
8.00	-59.550	152.024	
9.00	-60.167	159.766	
10.00	-59.754	158.005	
11.00	-61.195	145.943	
12.00	-62.759	139.791	
13.00	-65.004	124.879	
14.00	-67.796	104.673	
15.00	-67.946	63.037	
16.00	-66.664	40.984	
17.00	-64.051	22.669	
18.00	-63.211	22.907	
19.00	-63.583	4.664	
20.00	-64.917	-10.984	
21.00	-70.470	-16.174	
22.00	-69.598	-76.328	
23.00	-66.673	-85.064	
24.00	-66.349	-92.718	
25.00	-64.597	-91.125	
26.00	-68.034	-82.881	
27.00	-71.187	-60.247	
28.00	-70.249	-64.589	
29.00	-72.042	42.473	
30.00	-68.549	54.107	
31.00	-67.292	42.864	
32.00	-65.758	69.808	
33.00	-66.440	84.191	
34.00	-66.259	82.912	
35.00	-65.185	71.978	
36.00	-66.694	134.596	
37.00	-67.629	138.638	
38.00	-67.723	-176.133	
39.00	-66.939	-142.543	
40.00	-63.241	-104.907	
41.00	-61.312	-65.539	
42.00	-63.060	-68.071	
43.00	-63.266	-50.877	
44.00	-64.094	-33.849	
45.00	-64.320	-18.205	
46.00	-65.493	-16.217	
47.00	-67.099	-18.552	
48.00	-72.171	20.612	
49.00	-66.741	7.068	
50.00	-71.564	32.227	
51.00	-68.215	-0.022	
52.00	-68.089	-5.856	
53.00	-71.066	8.541	
54.00	-91.570	-177.998	
55.00	-75.672	-114.848	
56.00	-69.384	-178.249	
57.00	-64.940	-137.265	
58.00	-62.653	-129.698	
59.00	-61.967	-116.580	
60.00	-63.421	-102.234	
61.00	-66.600	-90.847	
62.00	-70.401	-31.221	
63.00	-73.210	15.634	
64.00	-65.791	74.031	
65.00	-63.628	97.316	
66.00	-58.939	124.388	
67.00	-59.932	123.552	
68.00	-59.400	134.132	
69.00	-60.036	146.155	
70.00	-61.247	154.743	
71.00	-64.109	155.180	
72.00	-65.107	164.194	
73.00	-70.282	147.417	
74.00	-74.096	132.682	
75.00	-67.853	149.723	
76.00	-66.451	128.906	
77.00	-65.170	148.010	
78.00	-63.718	164.706	
79.00	-63.510	179.688	
80.00	-58.347	-159.691	
81.00	-64.772	-147.824	
82.00	-60.374	-120.275	
83.00	-60.598	-109.933	
84.00	-60.358	-85.929	
85.00	-60.515	-56.212	
86.00	-58.462	-40.858	
87.00	-58.073	12.489	
88.00	-58.518	-14.137	
89.00	-61.198	3.157	
90.00	-58.491	25.324	
91.00	-57.462	69.713	
92.00	-57.659	87.349	
93.00	-57.339	100.312	
94.00	-54.370	121.352	
95.00	-53.944	137.300	
96.00	-53.240	147.430	
97.00	-53.604	165.652	
98.00	-53.049	174.450	
99.00	-53.111	-169.964	
100.00	-54.101	-155.701	
101.00	-54.572	-125.599	
102.00	-54.893	-105.354	
103.00	-54.994	-83.090	
104.00	-54.830	-66.872	
105.00	-55.061	-49.441	
106.00	-55.565	-38.201	
107.00	-56.586	-21.853	
108.00	-58.144	-8.995	
109.00	-61.180	2.555	
110.00	-64.883	18.277	
111.00	-77.516	31.740	
112.00	-71.362	-129.996	
113.00	-62.718	-118.038	
114.00	-58.864	-106.752	
115.00	-56.471	-95.440	
116.00	-54.530	-80.606	
117.00	-53.699	-69.670	
118.00	-53.130	-57.055	
119.00	-53.121	-42.523	
120.00	-53.854	-25.952	
121.00	-54.899	-10.638	
122.00	-56.357	11.542	
123.00	-58.241	37.995	
124.00	-58.031	69.684	
125.00	-57.652	93.996	
126.00	-58.829	117.629	
127.00	-60.112	137.589	
128.00	-63.293	168.145	
129.00	-65.004	-144.310	
130.00	-65.693	-71.080	
131.00	-60.964	-46.927	
132.00	-58.380	-26.400	
133.00	-56.223	-8.472	
134.00	-55.464	5.169	
135.00	-54.665	26.552	
136.00	-54.656	45.023	
137.00	-54.683	62.433	
138.00	-54.425	79.191	
139.00	-54.812	94.666	
140.00	-55.672	109.489	
141.00	-57.391	126.765	
142.00	-58.745	142.628	
143.00	-60.121	150.609	
144.00	-63.524	-158.337	
145.00	-61.514	-131.874	
146.00	-59.363	-106.207	
147.00	-56.166	-104.941	
148.00	-54.766	-103.482	
149.00	-53.796	-100.151	
150.00	-54.416	-100.959	
151.00	-55.360	-102.280	
152.00	-58.143	-101.434	
153.00	-65.782	-117.966	
154.00	-64.503	119.938	
155.00	-54.139	112.013	
156.00	-50.155	111.936	
157.00	-46.748	109.890	
158.00	-44.743	112.161	
159.00	-43.499	114.252	
160.00	-42.776	116.121	
161.00	-42.908	117.125	
162.00	-44.095	118.416	
163.00	-45.982	115.985	
164.00	-49.968	108.890	
165.00	-56.547	81.232	
166.00	-56.016	-9.455	
167.00	-49.903	-28.973	
168.00	-47.950	-39.969	
169.00	-47.165	-52.759	
170.00	-47.739	-81.043	
171.00	-45.569	-120.223	
172.00	-40.757	-149.136	
173.00	-36.460	-161.532	
174.00	-33.077	-167.021	
175.00	-30.322	-170.757	
176.00	-28.267	-173.335	
177.00	-26.666	-174.643	
178.00	-25.568	-174.435	
179.00	-24.831	-175.440	
180.00	-24.491	-176.453	
181.00	-24.541	-177.787	
182.00	-24.992	-178.291	
183.00	-25.833	-179.713	
184.00	-27.168	177.790	
185.00	-29.034	175.357	
186.00	-31.607	171.869	
187.00	-35.241	167.339	
188.00	-40.492	155.212	
189.00	-48.270	110.493	
190.00	-46.134	38.346	
191.00	-42.194	19.251	
192.00	-40.876	12.322	
193.00	-40.865	11.157	
194.00	-41.996	11.680	
195.00	-43.789	14.633	
196.00	-46.587	25.389	
197.00	-49.353	44.200	
198.00	-51.265	66.800	
199.00	-52.810	81.591	
200.00	-55.653	97.479	
201.00	-64.621	118.445	
202.00	-59.538	-113.092	
203.00	-51.756	-101.170	
204.00	-47.491	-101.233	
205.00	-45.265	-104.505	
206.00	-44.414	-107.430	
207.00	-44.392	-111.677	
208.00	-45.436	-117.480	
209.00	-47.774	-125.342	
210.00	-52.780	-132.684	
211.00	-68.279	-153.189	
212.00	-54.936	38.988	
213.00	-48.325	29.874	
214.00	-45.087	19.191	
215.00	-43.021	11.414	
216.00	-41.903	2.399	
217.00	-41.373	-6.507	
218.00	-41.369	-15.517	
219.00	-41.784	-24.787	
220.00	-42.653	-34.589	
221.00	-43.792	-45.720	
222.00	-45.463	-57.234	
223.00	-47.220	-68.207	
224.00	-49.513	-77.421	
225.00	-52.407	-89.558	
226.00	-56.732	-97.362	
227.00	-64.695	-103.430	
228.00	-72.000	58.329	
229.00	-60.293	62.170	
230.00	-55.815	55.861	
231.00	-53.228	52.335	
232.00	-51.950	49.347	
233.00	-50.615	45.864	
234.00	-49.855	40.926	
235.00	-49.335	35.704	
236.00	-48.888	28.362	
237.00	-48.744	19.032	
238.00	-48.835	9.483	
239.00	-48.994	-1.932	
240.00	-49.348	-15.792	
241.00	-49.586	-29.595	
242.00	-49.949	-44.150	
243.00	-50.296	-59.722	
244.00	-50.780	-76.239	
245.00	-51.252	-91.148	
246.00	-51.832	-105.768	
247.00	-52.663	-120.344	
248.00	-53.855	-135.464	
249.00	-54.906	-152.913	
250.00	-56.329	-167.540	
251.00	-57.411	171.835	
252.00	-58.409	156.818	
253.00	-59.202	137.684	
254.00	-60.393	120.087	
255.00	-61.133	105.238	
256.00	-62.449	91.109	
257.00	-62.660	76.940	
258.00	-63.752	67.591	
259.00	-64.581	55.128	
260.00	-64.696	45.697	
261.00	-65.737	40.308	
262.00	-64.601	23.574	
263.00	-63.928	17.237	
264.00	-63.328	7.445	
265.00	-62.362	1.242	
266.00	-61.437	-2.995	
267.00	-60.520	-11.813	
268.00	-60.291	-21.847	
269.00	-59.817	-24.179	
270.00	-59.013	-29.171	
271.00	-59.232	-39.017	
272.00	-58.666	-46.742	
273.00	-58.516	-54.769	
274.00	-59.067	-65.811	
275.00	-59.212	-75.160	
276.00	-59.928	-83.067	
277.00	-60.738	-102.964	
278.00	-60.891	-122.828	
279.00	-61.534	-142.673	
280.00	-60.626	-162.393	
281.00	-60.556	-176.608	
282.00	-59.514	160.845	
283.00	-58.999	148.793	
284.00	-58.606	139.346	
285.00	-58.679	126.412	
286.00	-59.187	120.493	
287.00	-60.641	100.905	
288.00	-62.176	103.569	
289.00	-66.940	97.424	
290.00	-67.300	116.059	
291.00	-66.907	138.658	
292.00	-64.988	149.891	
293.00	-63.632	158.671	
294.00	-63.065	160.644	
295.00	-62.741	153.577	
296.00	-61.243	145.151	
297.00	-62.499	139.012	
298.00	-63.617	135.721	
299.00	-64.948	140.502	
300.00	-68.255	146.298	
301.00	-72.102	143.506	
302.00	-68.760	-171.651	
303.00	-67.855	-163.992	
304.00	-64.622	-159.446	
305.00	-61.851	-167.549	
306.00	-61.408	-160.808	
307.00	-60.779	179.107	
308.00	-60.354	166.662	
309.00	-59.806	155.641	
310.00	-59.874	143.998	
311.00	-60.360	135.423	
312.00	-60.636	126.719	
313.00	-60.214	123.872	
314.00	-60.773	126.261	
315.00	-61.530	116.682	
316.00	-60.880	119.971	
317.00	-61.530	124.867	
318.00	-60.989	136.269	
319.00	-60.059	143.490	
320.00	-58.800	148.276	
321.00	-56.793	150.018	
322.00	-55.882	146.633	
323.00	-54.484	144.994	
324.00	-53.590	138.894	
325.00	-52.721	138.079	
326.00	-53.024	128.845	
327.00	-53.096	125.370	
328.00	-53.473	112.510	
329.00	-54.395	102.495	
330.00	-55.642	94.376	
331.00	-57.119	81.785	
332.00	-59.189	60.118	
333.00	-60.792	34.971	
334.00	-62.025	1.984	
335.00	-61.272	-28.820	
336.00	-60.632	-49.326	
337.00	-60.737	-70.960	
338.00	-61.158	-85.246	
339.00	-62.301	-109.420	
340.00	-65.868	-133.099	
341.00	-68.759	-169.593	
342.00	-68.434	137.666	
343.00	-66.214	102.582	
344.00	-64.244	76.043	
345.00	-63.401	60.707	
346.00	-61.982	37.951	
347.00	-62.033	23.883	
348.00	-62.842	8.626	
349.00	-62.355	4.488	
350.00	-62.978	-14.065	
351.00	-62.289	-19.671	
352.00	-64.769	-24.141	
353.00	-65.157	-31.120	
354.00	-65.815	-37.493	
355.00	-68.658	-18.575	
356.00	-67.419	-19.912	
357.00	-68.864	-11.673	
358.00	-70.117	-10.649	
359.00	-70.751	9.031	
Frequency	2170.00	MHz	
Channel	test		
Scan Axis name	Azimuth  [deg]		
Scan Axis	Amplitude	Phase	
			
0.00	-69.498	63.724	
1.00	-72.869	-58.710	
2.00	-76.627	-6.925	
3.00	-72.516	-54.331	
4.00	-70.733	-127.553	
5.00	-74.367	-131.007	
6.00	-66.167	155.582	
7.00	-62.233	-179.457	
8.00	-68.163	141.488	
9.00	-76.828	148.468	
10.00	-67.221	65.013	
11.00	-62.935	84.057	
12.00	-62.658	88.381	
13.00	-60.897	90.117	
14.00	-62.015	78.760	
15.00	-67.246	59.030	
16.00	-62.702	88.811	
17.00	-64.249	80.589	
18.00	-65.824	127.367	
19.00	-73.077	122.796	
20.00	-71.640	114.212	
21.00	-68.047	125.994	
22.00	-66.107	82.637	
23.00	-69.667	80.583	
24.00	-65.049	92.065	
25.00	-68.987	67.248	
26.00	-71.934	55.922	
27.00	-69.901	115.196	
28.00	-71.868	-51.045	
29.00	-68.697	4.494	
30.00	-63.632	-23.184	
31.00	-64.559	-5.843	
32.00	-62.108	-3.057	
33.00	-67.868	-12.559	
34.00	-68.979	9.706	
35.00	-69.496	31.166	
36.00	-67.066	87.684	
37.00	-78.354	90.173	
38.00	-76.609	68.690	
39.00	-71.757	114.290	
40.00	-67.027	128.200	
41.00	-67.249	147.417	
42.00	-65.611	129.166	
43.00	-63.139	140.415	
44.00	-66.957	155.111	
45.00	-68.059	153.244	
46.00	-65.865	156.984	
47.00	-66.546	168.332	
48.00	-65.129	168.130	
49.00	-64.019	-162.202	
50.00	-62.950	-168.386	
51.00	-65.221	-153.195	
52.00	-66.220	-107.421	
53.00	-64.419	-136.203	
54.00	-77.112	-38.359	
55.00	-75.935	-4.517	
56.00	-69.853	86.744	
57.00	-64.111	90.022	
58.00	-62.593	115.101	
59.00	-59.112	143.523	
60.00	-59.559	147.239	
61.00	-58.963	163.311	
62.00	-59.204	-178.610	
63.00	-62.225	-149.216	
64.00	-65.227	-119.633	
65.00	-68.379	-91.299	
66.00	-74.549	-0.365	
67.00	-58.830	31.744	
68.00	-59.720	49.389	
69.00	-59.910	58.450	
70.00	-59.280	79.614	
71.00	-59.427	83.683	
72.00	-60.839	108.569	
73.00	-62.469	109.385	
74.00	-64.986	135.403	
75.00	-69.388	145.624	
76.00	-70.718	155.778	
77.00	-74.851	145.156	
78.00	-72.734	113.709	
79.00	-69.097	84.565	
80.00	-69.542	48.169	
81.00	-64.573	110.649	
82.00	-62.385	104.304	
83.00	-61.660	119.999	
84.00	-60.458	139.319	
85.00	-59.571	139.390	
86.00	-60.270	155.873	
87.00	-62.099	174.949	
88.00	-67.339	162.869	
89.00	-69.240	177.709	
90.00	-79.590	-62.244	
91.00	-69.842	-7.995	
92.00	-61.810	6.665	
93.00	-59.769	19.829	
94.00	-57.791	28.318	
95.00	-56.840	30.596	
96.00	-55.525	35.335	
97.00	-54.645	43.094	
98.00	-54.123	50.320	
99.00	-54.342	61.717	
100.00	-54.306	73.227	
101.00	-54.773	100.103	
102.00	-55.633	116.619	
103.00	-56.070	135.588	
104.00	-56.653	150.995	
105.00	-55.504	175.718	
106.00	-55.147	-160.131	
107.00	-54.004	-138.929	
108.00	-54.412	-122.770	
109.00	-52.880	-104.234	
110.00	-52.936	-83.161	
111.00	-52.892	-64.331	
112.00	-53.269	-44.174	
113.00	-53.292	-21.759	
114.00	-54.159	-0.129	
115.00	-53.608	20.308	
116.00	-54.673	41.647	
117.00	-56.358	66.085	
118.00	-57.341	92.208	
119.00	-58.451	116.929	
120.00	-62.643	156.731	
121.00	-62.708	-133.854	
122.00	-58.646	-84.874	
123.00	-54.474	-53.632	
124.00	-51.789	-33.260	
125.00	-49.570	-12.173	
126.00	-47.998	6.391	
127.00	-46.573	26.719	
128.00	-45.271	44.195	
129.00	-44.568	62.381	
130.00	-43.746	79.050	
131.00	-43.416	96.341	
132.00	-43.290	113.253	
133.00	-43.526	128.582	
134.00	-44.408	145.205	
135.00	-45.729	161.279	
136.00	-47.988	-178.735	
137.00	-50.811	-154.591	
138.00	-54.715	-109.645	
139.00	-54.049	-46.166	
140.00	-50.497	-12.748	
141.00	-47.966	10.375	
142.00	-46.077	28.827	
143.00	-45.127	43.823	
144.00	-44.659	56.501	
145.00	-44.543	68.602	
146.00	-44.824	79.719	
147.00	-45.426	88.990	
148.00	-46.224	97.807	
149.00	-46.952	103.848	
150.00	-47.852	106.181	
151.00	-48.981	108.502	
152.00	-49.460	108.593	
153.00	-50.632	105.965	
154.00	-51.225	103.112	
155.00	-52.948	105.366	
156.00	-55.125	97.126	
157.00	-56.775	75.703	
158.00	-57.151	46.550	
159.00	-54.513	14.630	
160.00	-51.451	7.635	
161.00	-49.978	7.211	
162.00	-49.006	8.695	
163.00	-49.434	10.752	
164.00	-51.086	13.091	
165.00	-55.058	13.746	
166.00	-64.431	-1.630	
167.00	-56.982	-131.829	
168.00	-50.708	-142.862	
169.00	-47.324	-142.315	
170.00	-46.223	-140.567	
171.00	-46.610	-147.625	
172.00	-49.558	-162.714	
173.00	-51.097	137.942	
174.00	-44.652	94.476	
175.00	-39.038	84.199	
176.00	-35.248	80.455	
177.00	-32.392	79.454	
178.00	-30.408	80.561	
179.00	-28.970	81.100	
180.00	-28.083	81.642	
181.00	-27.687	81.694	
182.00	-27.762	82.699	
183.00	-28.258	83.339	
184.00	-29.297	82.858	
185.00	-30.877	83.418	
186.00	-33.111	83.932	
187.00	-36.225	86.417	
188.00	-40.830	89.796	
189.00	-48.246	103.660	
190.00	-55.570	-170.927	
191.00	-48.674	-125.631	
192.00	-46.216	-115.067	
193.00	-46.093	-108.881	
194.00	-47.320	-100.037	
195.00	-49.437	-81.347	
196.00	-50.743	-55.056	
197.00	-49.619	-30.905	
198.00	-48.334	-17.752	
199.00	-47.834	-12.967	
200.00	-47.985	-12.306	
201.00	-49.515	-14.775	
202.00	-52.298	-19.141	
203.00	-57.108	-22.122	
204.00	-67.011	-19.756	
205.00	-67.661	132.733	
206.00	-62.438	124.813	
207.00	-61.438	108.771	
208.00	-63.613	50.205	
209.00	-59.494	-11.709	
210.00	-53.546	-39.720	
211.00	-49.433	-54.292	
212.00	-46.783	-68.201	
213.00	-44.552	-79.349	
214.00	-43.257	-89.161	
215.00	-42.462	-97.548	
216.00	-42.403	-106.002	
217.00	-42.820	-113.697	
218.00	-43.717	-121.205	
219.00	-45.086	-126.052	
220.00	-46.813	-127.785	
221.00	-49.911	-124.477	
222.00	-52.680	-102.270	
223.00	-51.918	-73.430	
224.00	-49.543	-59.215	
225.00	-47.243	-55.773	
226.00	-45.631	-57.592	
227.00	-44.625	-62.888	
228.00	-43.993	-69.147	
229.00	-43.851	-76.896	
230.00	-43.758	-85.523	
231.00	-44.296	-93.793	
232.00	-45.062	-105.443	
233.00	-45.735	-115.582	
234.00	-46.713	-127.908	
235.00	-48.078	-143.074	
236.00	-48.738	-159.959	
237.00	-50.054	-175.553	
238.00	-50.312	163.990	
239.00	-50.673	147.467	
240.00	-51.097	129.408	
241.00	-51.774	113.272	
242.00	-52.627	95.629	
243.00	-53.905	80.842	
244.00	-55.684	61.054	
245.00	-56.911	40.576	
246.00	-57.682	15.878	
247.00	-58.728	-8.071	
248.00	-59.763	-25.545	
249.00	-60.905	-45.761	
250.00	-62.706	-60.065	
251.00	-66.627	-76.879	
252.00	-74.619	-91.664	
253.00	-75.934	84.372	
254.00	-65.026	85.690	
255.00	-60.825	79.173	
256.00	-59.372	63.699	
257.00	-57.332	58.617	
258.00	-57.382	47.402	
259.00	-57.499	44.792	
260.00	-56.965	29.969	
261.00	-57.676	17.571	
262.00	-57.644	12.904	
263.00	-61.613	-15.173	
264.00	-61.130	-5.012	
265.00	-61.029	-11.452	
266.00	-62.235	-36.050	
267.00	-61.457	-28.545	
268.00	-62.138	-36.696	
269.00	-62.073	-28.231	
270.00	-62.641	-31.539	
271.00	-60.581	-28.414	
272.00	-63.448	-35.227	
273.00	-64.468	-37.465	
274.00	-66.062	-42.667	
275.00	-70.765	-42.963	
276.00	-69.925	-104.413	
277.00	-74.693	-172.933	
278.00	-72.592	154.509	
279.00	-65.772	159.169	
280.00	-67.627	131.501	
281.00	-66.453	154.880	
282.00	-71.405	122.392	
283.00	-79.155	56.887	
284.00	-81.338	63.712	
285.00	-82.375	-152.519	
286.00	-70.485	-30.996	
287.00	-68.523	-46.142	
288.00	-66.164	-29.784	
289.00	-67.463	-58.004	
290.00	-72.219	-56.798	
291.00	-68.755	-22.578	
292.00	-74.351	-19.535	
293.00	-71.699	10.389	
294.00	-71.842	-6.886	
295.00	-69.753	-24.229	
296.00	-74.052	7.195	
297.00	-76.839	-61.859	
298.00	-91.184	-48.281	
299.00	-73.978	-56.300	
300.00	-76.227	-23.718	
301.00	-68.618	-53.696	
302.00	-74.475	-29.040	
303.00	-68.469	-16.773	
304.00	-68.140	-33.286	
305.00	-92.091	-45.096	
306.00	-69.855	-110.934	
307.00	-68.779	-126.355	
308.00	-62.694	-106.485	
309.00	-66.349	-134.012	
310.00	-60.862	-149.959	
311.00	-61.588	-158.635	
312.00	-59.713	-165.704	
313.00	-59.052	168.345	
314.00	-60.274	155.686	
315.00	-59.177	151.119	
316.00	-59.091	121.381	
317.00	-61.442	96.392	
318.00	-60.827	61.819	
319.00	-61.381	46.046	
320.00	-59.470	15.872	
321.00	-56.961	-13.335	
322.00	-57.586	-29.229	
323.00	-58.665	-42.040	
324.00	-57.733	-78.394	
325.00	-57.067	-89.888	
326.00	-56.532	-85.377	
327.00	-61.702	-95.701	
328.00	-62.513	-108.284	
329.00	-64.403	-102.318	
330.00	-65.755	-144.451	
331.00	-68.568	-145.851	
332.00	-71.675	-20.004	
333.00	-68.837	24.010	
334.00	-70.447	5.855	
335.00	-68.104	-55.026	
336.00	-68.264	-16.532	
337.00	-79.882	29.103	
338.00	-71.877	163.975	
339.00	-87.875	179.207	
340.00	-76.336	96.025	
341.00	-72.167	139.771	
342.00	-61.304	67.999	
343.00	-62.515	164.550	
344.00	-87.200	29.626	
345.00	-70.323	-175.841	
346.00	-64.902	125.440	
347.00	-67.106	-155.968	
348.00	-61.251	-124.749	
349.00	-66.789	-106.895	
350.00	-81.742	-150.063	
351.00	-64.142	-128.378	
352.00	-64.745	-62.330	
353.00	-64.065	-63.843	
354.00	-76.809	-112.650	
355.00	-62.516	-70.461	
356.00	-69.585	3.322	
357.00	-68.176	-78.356	
358.00	-73.853	30.024	
359.00	-74.097	18.963	
Frequency	2300.00	MHz	
Channel	test		
Scan Axis name	Azimuth  [deg]		
Scan Axis	Amplitude	Phase	
			
0.00	-66.944	129.006	
1.00	-64.743	135.744	
2.00	-65.058	144.701	
3.00	-62.745	148.758	
4.00	-62.267	149.882	
5.00	-61.827	164.220	
6.00	-61.417	173.230	
7.00	-63.098	178.478	
8.00	-62.238	-158.530	
9.00	-63.205	-152.819	
10.00	-63.915	-135.845	
11.00	-63.889	-111.578	
12.00	-62.667	-81.219	
13.00	-62.640	-74.559	
14.00	-63.098	-71.662	
15.00	-63.691	-64.720	
16.00	-63.812	-61.770	
17.00	-65.838	-62.512	
18.00	-68.313	-56.247	
19.00	-69.034	-49.309	
20.00	-74.259	-46.052	
21.00	-69.082	52.826	
22.00	-67.130	57.864	
23.00	-67.818	61.562	
24.00	-65.713	64.877	
25.00	-63.096	74.946	
26.00	-62.472	65.226	
27.00	-63.440	59.587	
28.00	-63.716	72.099	
29.00	-66.409	15.673	
30.00	-67.418	-20.195	
31.00	-62.921	-37.992	
32.00	-61.069	-59.634	
33.00	-58.624	-42.596	
34.00	-58.237	-49.442	
35.00	-60.395	-35.153	
36.00	-60.832	-42.336	
37.00	-61.499	-33.669	
38.00	-64.177	-27.280	
39.00	-66.255	-11.126	
40.00	-63.971	32.477	
41.00	-65.823	3.511	
42.00	-61.805	24.561	
43.00	-60.662	19.396	
44.00	-60.041	28.318	
45.00	-58.627	39.634	
46.00	-58.035	46.425	
47.00	-57.139	52.780	
48.00	-57.176	69.160	
49.00	-56.632	76.705	
50.00	-56.637	92.194	
51.00	-56.992	100.646	
52.00	-57.207	116.184	
53.00	-57.653	137.192	
54.00	-59.963	138.378	
55.00	-61.552	156.181	
56.00	-62.136	-178.969	
57.00	-62.704	-168.857	
58.00	-61.805	-166.991	
59.00	-64.095	-172.396	
60.00	-63.344	-168.239	
61.00	-66.307	-175.428	
62.00	-67.573	171.235	
63.00	-69.513	177.819	
64.00	-70.841	173.571	
65.00	-75.288	153.878	
66.00	-74.833	132.293	
67.00	-77.303	75.997	
68.00	-69.308	38.481	
69.00	-71.733	41.175	
70.00	-65.069	30.317	
71.00	-66.010	36.654	
72.00	-65.103	49.838	
73.00	-66.252	49.008	
74.00	-64.142	72.932	
75.00	-66.591	59.148	
76.00	-67.046	63.071	
77.00	-68.163	68.494	
78.00	-71.363	6.648	
79.00	-73.291	-3.816	
80.00	-65.349	-65.216	
81.00	-63.127	-4.528	
82.00	-69.286	-63.517	
83.00	-61.067	-9.038	
84.00	-64.682	-20.063	
85.00	-70.756	55.388	
86.00	-75.957	-37.967	
87.00	-65.163	-88.762	
88.00	-63.883	-55.874	
89.00	-67.906	-62.450	
90.00	-66.387	-36.650	
91.00	-66.889	-51.314	
92.00	-66.837	-80.407	
93.00	-64.622	-84.862	
94.00	-66.255	-57.009	
95.00	-66.713	-49.563	
96.00	-69.337	-54.350	
97.00	-67.379	-29.452	
98.00	-74.263	-41.806	
99.00	-82.595	-29.123	
100.00	-74.646	94.550	
101.00	-67.779	174.405	
102.00	-63.237	178.443	
103.00	-61.951	-169.623	
104.00	-60.005	-155.835	
105.00	-57.508	-139.485	
106.00	-57.586	-124.347	
107.00	-57.061	-110.215	
108.00	-56.646	-87.478	
109.00	-55.827	-62.439	
110.00	-55.326	-37.577	
111.00	-54.036	-11.538	
112.00	-52.253	13.297	
113.00	-50.791	35.562	
114.00	-49.707	53.080	
115.00	-48.587	71.273	
116.00	-48.173	89.748	
117.00	-47.691	106.851	
118.00	-47.251	127.731	
119.00	-47.448	145.880	
120.00	-48.323	167.577	
121.00	-49.081	-167.615	
122.00	-50.516	-141.939	
123.00	-51.701	-112.019	
124.00	-52.539	-73.749	
125.00	-52.504	-29.124	
126.00	-50.405	10.063	
127.00	-48.092	41.545	
128.00	-46.040	66.411	
129.00	-44.309	88.721	
130.00	-42.897	107.189	
131.00	-42.170	126.291	
132.00	-41.591	143.219	
133.00	-41.486	162.244	
134.00	-41.828	179.103	
135.00	-42.354	-162.711	
136.00	-43.146	-145.448	
137.00	-44.504	-123.410	
138.00	-46.535	-103.049	
139.00	-48.797	-71.018	
140.00	-51.066	-31.095	
141.00	-50.362	13.311	
142.00	-48.194	48.379	
143.00	-46.272	73.041	
144.00	-45.074	93.457	
145.00	-44.450	108.594	
146.00	-44.233	126.821	
147.00	-44.366	140.551	
148.00	-44.748	156.273	
149.00	-45.471	171.760	
150.00	-46.489	-171.786	
151.00	-47.486	-154.952	
152.00	-48.340	-135.409	
153.00	-49.043	-116.992	
154.00	-49.536	-96.430	
155.00	-50.091	-77.110	
156.00	-51.029	-59.203	
157.00	-52.198	-39.541	
158.00	-54.220	-14.253	
159.00	-54.474	23.679	
160.00	-52.804	53.974	
161.00	-50.418	76.745	
162.00	-48.367	90.712	
163.00	-47.039	98.955	
164.00	-46.251	104.743	
165.00	-46.066	108.821	
166.00	-46.340	108.083	
167.00	-47.431	104.360	
168.00	-48.799	97.432	
169.00	-50.261	88.513	
170.00	-51.648	83.352	
171.00	-52.732	82.778	
172.00	-52.802	103.070	
173.00	-49.582	128.846	
174.00	-45.005	146.743	
175.00	-40.860	154.475	
176.00	-37.528	157.544	
177.00	-34.839	160.138	
178.00	-32.807	162.725	
179.00	-31.328	163.497	
180.00	-30.349	164.030	
181.00	-29.909	164.000	
182.00	-29.937	164.820	
183.00	-30.495	165.271	
184.00	-31.631	164.596	
185.00	-33.437	165.402	
186.00	-36.069	166.338	
187.00	-39.998	170.733	
188.00	-46.058	-179.223	
189.00	-54.912	-122.493	
190.00	-50.376	-57.092	
191.00	-47.378	-43.753	
192.00	-47.261	-39.243	
193.00	-49.668	-32.524	
194.00	-54.372	-17.645	
195.00	-58.629	37.114	
196.00	-54.988	86.592	
197.00	-52.647	99.485	
198.00	-52.414	103.797	
199.00	-56.789	108.333	
200.00	-66.994	167.023	
201.00	-56.189	-106.474	
202.00	-49.962	-101.830	
203.00	-47.241	-103.585	
204.00	-46.028	-107.230	
205.00	-46.327	-108.712	
206.00	-48.559	-107.648	
207.00	-52.638	-95.551	
208.00	-55.554	-32.953	
209.00	-49.184	4.287	
210.00	-44.951	9.302	
211.00	-42.641	6.486	
212.00	-41.363	2.471	
213.00	-40.850	-3.953	
214.00	-41.260	-10.301	
215.00	-42.458	-16.234	
216.00	-44.545	-20.993	
217.00	-48.200	-21.814	
218.00	-53.447	-0.363	
219.00	-53.575	54.055	
220.00	-48.655	70.632	
221.00	-45.595	69.346	
222.00	-43.635	60.868	
223.00	-42.610	51.644	
224.00	-42.041	41.577	
225.00	-42.005	30.203	
226.00	-42.305	19.754	
227.00	-43.078	8.206	
228.00	-44.128	-1.011	
229.00	-45.237	-9.940	
230.00	-47.297	-18.757	
231.00	-49.828	-24.847	
232.00	-52.741	-30.140	
233.00	-56.405	-33.875	
234.00	-59.590	-30.946	
235.00	-62.637	-26.532	
236.00	-64.000	-17.689	
237.00	-65.791	-28.548	
238.00	-65.073	-51.388	
239.00	-63.052	-60.029	
240.00	-61.441	-74.330	
241.00	-60.499	-88.607	
242.00	-58.840	-100.114	
243.00	-58.170	-103.975	
244.00	-58.338	-111.229	
245.00	-57.940	-122.734	
246.00	-57.580	-131.252	
247.00	-58.259	-142.350	
248.00	-58.633	-161.016	
249.00	-59.292	-175.421	
250.00	-59.435	159.323	
251.00	-59.420	136.701	
252.00	-59.745	115.427	
253.00	-59.071	90.178	
254.00	-58.677	69.018	
255.00	-57.876	45.915	
256.00	-57.174	29.037	
257.00	-56.209	12.712	
258.00	-56.374	-9.820	
259.00	-56.339	-22.634	
260.00	-56.366	-40.936	
261.00	-56.324	-59.467	
262.00	-56.798	-78.244	
263.00	-57.551	-95.470	
264.00	-58.247	-111.894	
265.00	-58.513	-127.749	
266.00	-59.294	-139.790	
267.00	-60.704	-154.020	
268.00	-63.215	-164.010	
269.00	-67.494	-168.425	
270.00	-73.143	-135.367	
271.00	-77.417	-48.486	
272.00	-65.054	-46.199	
273.00	-61.590	-48.354	
274.00	-61.277	-48.353	
275.00	-60.108	-60.192	
276.00	-59.674	-66.294	
277.00	-62.221	-75.349	
278.00	-63.200	-77.769	
279.00	-65.885	-98.606	
280.00	-70.142	-111.349	
281.00	-75.389	-83.600	
282.00	-76.465	47.372	
283.00	-71.196	27.516	
284.00	-63.676	11.960	
285.00	-62.484	-3.671	
286.00	-60.121	-14.655	
287.00	-58.530	-38.201	
288.00	-57.794	-38.007	
289.00	-59.435	-54.335	
290.00	-59.039	-59.343	
291.00	-60.858	-71.347	
292.00	-64.858	-71.612	
293.00	-69.018	-79.922	
294.00	-76.038	-116.138	
295.00	-70.546	35.468	
296.00	-66.222	46.396	
297.00	-62.811	33.051	
298.00	-62.191	30.753	
299.00	-61.857	17.120	
300.00	-61.197	9.652	
301.00	-60.956	4.626	
302.00	-62.696	-2.787	
303.00	-63.760	-6.893	
304.00	-64.711	-3.000	
305.00	-67.179	4.120	
306.00	-67.680	6.708	
307.00	-75.051	56.528	
308.00	-72.057	66.633	
309.00	-73.184	108.857	
310.00	-71.541	124.477	
311.00	-68.535	109.885	
312.00	-69.784	103.362	
313.00	-68.996	108.301	
314.00	-67.957	65.002	
315.00	-70.617	53.016	
316.00	-74.876	49.464	
317.00	-72.432	6.066	
318.00	-76.231	-4.048	
319.00	-74.576	-70.339	
320.00	-76.814	-150.066	
321.00	-72.494	178.809	
322.00	-70.733	155.491	
323.00	-70.123	131.833	
324.00	-67.973	114.438	
325.00	-72.553	55.421	
326.00	-69.551	33.113	
327.00	-68.842	-11.634	
328.00	-65.579	-35.892	
329.00	-63.089	-67.542	
330.00	-60.631	-96.237	
331.00	-59.300	-111.557	
332.00	-58.329	-135.793	
333.00	-58.240	-152.655	
334.00	-57.903	-177.198	
335.00	-59.312	159.115	
336.00	-59.264	131.650	
337.00	-58.428	107.727	
338.00	-58.714	84.614	
339.00	-59.069	68.618	
340.00	-58.950	36.315	
341.00	-59.245	19.527	
342.00	-59.972	18.261	
343.00	-61.524	5.254	
344.00	-63.501	-17.139	
345.00	-66.226	-10.767	
346.00	-68.973	-22.311	
347.00	-72.351	-14.119	
348.00	-85.308	-66.875	
349.00	-72.655	143.506	
350.00	-67.298	136.104	
351.00	-66.773	140.378	
352.00	-65.065	121.404	
353.00	-64.348	113.787	
354.00	-62.972	105.374	
355.00	-63.737	109.685	
356.00	-65.155	107.900	
357.00	-64.179	106.723	
358.00	-64.847	105.787	
359.00	-65.591	116.633	
Frequency	2350.00	MHz	
Channel	test		
Scan Axis name	Azimuth  [deg]		
Scan Axis	Amplitude	Phase	
			
0.00	-64.875	-48.948	
1.00	-64.251	-32.744	
2.00	-63.506	-15.227	
3.00	-61.929	-3.661	
4.00	-60.648	4.332	
5.00	-59.470	9.242	
6.00	-58.687	11.411	
7.00	-58.770	15.739	
8.00	-58.412	23.172	
9.00	-59.192	29.749	
10.00	-59.471	40.430	
11.00	-60.011	50.964	
12.00	-61.349	62.843	
13.00	-62.582	71.851	
14.00	-64.632	87.470	
15.00	-66.493	113.474	
16.00	-66.664	146.117	
17.00	-65.151	168.626	
18.00	-64.202	-179.393	
19.00	-63.425	-176.731	
20.00	-63.904	-175.816	
21.00	-64.895	178.599	
22.00	-67.031	163.078	
23.00	-67.782	150.795	
24.00	-68.381	131.987	
25.00	-68.131	118.014	
26.00	-69.826	92.896	
27.00	-69.912	69.968	
28.00	-70.902	57.602	
29.00	-72.005	51.391	
30.00	-72.018	20.900	
31.00	-70.754	20.900	
32.00	-73.373	-14.774	
33.00	-69.342	-26.797	
34.00	-69.016	-51.610	
35.00	-70.491	-73.941	
36.00	-66.641	-67.579	
37.00	-66.550	-76.295	
38.00	-68.163	-79.123	
39.00	-68.433	-87.497	
40.00	-67.507	-109.022	
41.00	-67.216	-127.365	
42.00	-65.170	-145.590	
43.00	-62.972	-153.876	
44.00	-61.228	-156.333	
45.00	-59.888	-156.038	
46.00	-58.960	-149.793	
47.00	-58.514	-138.982	
48.00	-59.060	-133.669	
49.00	-60.728	-124.771	
50.00	-62.060	-117.498	
51.00	-65.506	-104.341	
52.00	-69.256	-84.714	
53.00	-81.614	-8.150	
54.00	-74.028	83.461	
55.00	-70.479	100.819	
56.00	-69.038	114.026	
57.00	-71.121	125.834	
58.00	-75.835	152.184	
59.00	-77.999	-118.214	
60.00	-68.630	-73.435	
61.00	-64.784	-50.995	
62.00	-61.601	-41.569	
63.00	-60.282	-33.526	
64.00	-59.510	-26.904	
65.00	-58.786	-15.017	
66.00	-59.046	-0.814	
67.00	-58.786	12.105	
68.00	-60.619	29.213	
69.00	-61.246	52.643	
70.00	-62.388	71.240	
71.00	-64.238	98.495	
72.00	-65.295	128.641	
73.00	-65.760	158.039	
74.00	-65.828	-169.139	
75.00	-65.393	-137.717	
76.00	-66.332	-121.636	
77.00	-67.420	-93.280	
78.00	-66.685	-77.590	
79.00	-80.535	-78.291	
80.00	-65.753	-67.831	
81.00	-83.983	-148.504	
82.00	-70.068	1.404	
83.00	-67.262	-124.137	
84.00	-75.171	123.831	
85.00	-72.779	125.996	
86.00	-68.419	155.678	
87.00	-79.117	-85.867	
88.00	-70.689	-119.046	
89.00	-65.814	-71.714	
90.00	-67.695	-20.738	
91.00	-64.339	-27.796	
92.00	-67.176	-2.255	
93.00	-65.929	15.650	
94.00	-66.087	26.367	
95.00	-64.683	50.590	
96.00	-67.187	68.342	
97.00	-69.130	80.673	
98.00	-69.262	111.666	
99.00	-71.313	142.306	
100.00	-70.021	176.626	
101.00	-70.338	-138.378	
102.00	-67.798	-112.110	
103.00	-68.613	-89.245	
104.00	-68.094	-68.174	
105.00	-69.155	-41.065	
106.00	-65.964	-8.023	
107.00	-63.741	22.291	
108.00	-60.962	44.935	
109.00	-58.130	64.003	
110.00	-55.976	76.102	
111.00	-54.429	94.049	
112.00	-53.106	104.060	
113.00	-52.465	120.565	
114.00	-52.048	135.201	
115.00	-52.100	152.350	
116.00	-52.576	171.261	
117.00	-52.981	-167.938	
118.00	-53.524	-146.924	
119.00	-54.287	-118.586	
120.00	-54.480	-95.722	
121.00	-55.721	-70.499	
122.00	-56.903	-45.387	
123.00	-61.795	-7.801	
124.00	-66.904	69.659	
125.00	-58.408	141.727	
126.00	-52.803	170.339	
127.00	-48.924	-168.998	
128.00	-46.187	-151.761	
129.00	-44.221	-134.298	
130.00	-42.788	-118.233	
131.00	-41.766	-101.242	
132.00	-41.089	-84.662	
133.00	-40.850	-67.447	
134.00	-40.708	-49.614	
135.00	-40.907	-31.943	
136.00	-41.353	-14.839	
137.00	-42.253	4.889	
138.00	-43.552	23.028	
139.00	-45.630	46.095	
140.00	-48.286	74.581	
141.00	-50.455	117.978	
142.00	-49.707	168.884	
143.00	-47.017	-156.109	
144.00	-44.859	-133.085	
145.00	-43.377	-114.490	
146.00	-42.494	-98.448	
147.00	-42.017	-83.517	
148.00	-41.964	-68.713	
149.00	-42.167	-54.791	
150.00	-42.754	-41.193	
151.00	-43.625	-27.713	
152.00	-44.780	-12.209	
153.00	-46.212	2.299	
154.00	-47.844	18.915	
155.00	-49.825	36.200	
156.00	-52.363	55.159	
157.00	-55.871	78.973	
158.00	-60.213	118.002	
159.00	-59.722	-176.588	
160.00	-55.492	-139.295	
161.00	-52.043	-121.697	
162.00	-49.847	-111.744	
163.00	-48.452	-107.029	
164.00	-47.677	-104.045	
165.00	-47.587	-103.023	
166.00	-47.809	-107.382	
167.00	-48.114	-116.464	
168.00	-48.131	-125.959	
169.00	-47.442	-132.200	
170.00	-46.261	-132.031	
171.00	-44.549	-126.423	
172.00	-42.250	-115.691	
173.00	-39.576	-104.830	
174.00	-36.666	-94.169	
175.00	-33.977	-87.251	
176.00	-31.642	-82.539	
177.00	-29.690	-78.526	
178.00	-28.208	-74.508	
179.00	-27.137	-72.217	
180.00	-26.500	-70.873	
181.00	-26.323	-70.252	
182.00	-26.607	-68.969	
183.00	-27.388	-67.924	
184.00	-28.786	-68.182	
185.00	-30.872	-67.214	
186.00	-33.961	-65.681	
187.00	-38.711	-59.619	
188.00	-46.731	-39.964	
189.00	-49.981	56.504	
190.00	-44.171	83.921	
191.00	-42.379	90.661	
192.00	-42.827	94.935	
193.00	-45.114	101.723	
194.00	-49.372	119.015	
195.00	-52.550	169.138	
196.00	-49.570	-151.092	
197.00	-47.328	-139.519	
198.00	-47.135	-135.446	
199.00	-49.109	-134.677	
200.00	-54.135	-129.556	
201.00	-62.979	-53.664	
202.00	-53.241	-0.292	
203.00	-48.891	-0.753	
204.00	-47.121	-8.249	
205.00	-47.229	-19.917	
206.00	-48.989	-36.349	
207.00	-52.475	-71.538	
208.00	-52.747	-139.505	
209.00	-47.520	178.084	
210.00	-43.595	156.588	
211.00	-41.300	141.869	
212.00	-39.799	129.479	
213.00	-39.185	117.180	
214.00	-39.157	105.806	
215.00	-39.911	95.514	
216.00	-41.338	84.488	
217.00	-43.941	73.616	
218.00	-48.186	66.054	
219.00	-56.311	70.836	
220.00	-58.571	-174.991	
221.00	-50.027	-168.084	
222.00	-46.439	-178.572	
223.00	-44.669	169.564	
224.00	-43.763	156.850	
225.00	-43.467	142.322	
226.00	-43.566	127.825	
227.00	-43.980	112.872	
228.00	-44.535	98.127	
229.00	-45.513	84.565	
230.00	-46.649	71.156	
231.00	-48.017	58.290	
232.00	-49.670	46.729	
233.00	-51.563	34.987	
234.00	-53.511	24.960	
235.00	-55.518	16.834	
236.00	-57.535	10.938	
237.00	-59.370	5.720	
238.00	-61.017	-0.856	
239.00	-62.610	-7.261	
240.00	-64.727	-13.540	
241.00	-66.516	-21.608	
242.00	-68.407	-27.156	
243.00	-69.176	-36.627	
244.00	-69.442	-32.804	
245.00	-68.247	-34.208	
246.00	-66.846	-33.182	
247.00	-65.074	-43.594	
248.00	-62.771	-54.296	
249.00	-61.726	-69.303	
250.00	-60.117	-82.139	
251.00	-59.292	-97.615	
252.00	-58.640	-111.291	
253.00	-58.323	-124.825	
254.00	-57.985	-140.469	
255.00	-58.277	-154.396	
256.00	-58.963	-169.938	
257.00	-60.044	172.427	
258.00	-61.529	152.318	
259.00	-63.198	126.993	
260.00	-64.543	96.200	
261.00	-65.110	62.815	
262.00	-64.706	34.389	
263.00	-63.935	6.617	
264.00	-63.852	-15.973	
265.00	-63.381	-37.307	
266.00	-63.275	-57.779	
267.00	-63.259	-77.506	
268.00	-63.303	-95.894	
269.00	-64.121	-116.019	
270.00	-64.902	-135.032	
271.00	-66.451	-156.698	
272.00	-68.981	175.351	
273.00	-70.192	138.187	
274.00	-69.589	97.043	
275.00	-67.738	66.440	
276.00	-66.277	40.354	
277.00	-65.576	21.343	
278.00	-64.950	-1.313	
279.00	-65.059	-17.937	
280.00	-65.677	-38.734	
281.00	-66.969	-67.283	
282.00	-67.542	-100.008	
283.00	-66.768	-136.279	
284.00	-65.058	-165.317	
285.00	-63.344	173.280	
286.00	-61.907	150.723	
287.00	-61.017	129.698	
288.00	-60.695	117.973	
289.00	-61.492	101.960	
290.00	-62.567	90.106	
291.00	-64.313	71.468	
292.00	-66.712	48.407	
293.00	-67.715	20.700	
294.00	-70.133	-1.790	
295.00	-70.312	-28.010	
296.00	-71.234	-47.355	
297.00	-71.645	-72.163	
298.00	-72.419	-80.504	
299.00	-72.033	-91.546	
300.00	-71.563	-102.551	
301.00	-69.906	-111.837	
302.00	-68.624	-121.532	
303.00	-67.571	-134.486	
304.00	-66.942	-149.673	
305.00	-65.899	-172.207	
306.00	-65.606	171.786	
307.00	-65.977	154.652	
308.00	-66.611	135.088	
309.00	-68.486	120.955	
310.00	-73.047	94.879	
311.00	-77.922	40.435	
312.00	-74.636	-43.307	
313.00	-70.899	-56.586	
314.00	-68.930	-71.260	
315.00	-69.396	-70.581	
316.00	-71.548	-50.108	
317.00	-70.357	-9.462	
318.00	-66.403	8.828	
319.00	-63.283	7.809	
320.00	-61.732	2.485	
321.00	-61.572	-6.616	
322.00	-61.999	-16.782	
323.00	-64.975	-28.248	
324.00	-69.673	-47.058	
325.00	-76.201	-116.926	
326.00	-70.193	164.759	
327.00	-65.763	142.616	
328.00	-63.168	123.763	
329.00	-62.415	103.106	
330.00	-62.046	84.407	
331.00	-62.833	64.874	
332.00	-63.265	40.483	
333.00	-63.436	17.326	
334.00	-63.613	-4.571	
335.00	-64.490	-24.639	
336.00	-65.015	-38.625	
337.00	-66.488	-50.738	
338.00	-67.673	-59.095	
339.00	-69.110	-63.655	
340.00	-70.330	-66.582	
341.00	-71.366	-79.859	
342.00	-72.253	-100.255	
343.00	-71.618	-122.834	
344.00	-71.023	-144.997	
345.00	-70.839	-162.622	
346.00	-71.476	-163.708	
347.00	-72.264	-155.041	
348.00	-71.887	-137.145	
349.00	-69.036	-117.172	
350.00	-66.505	-101.689	
351.00	-64.003	-102.526	
352.00	-62.068	-99.428	
353.00	-60.850	-100.763	
354.00	-60.859	-99.548	
355.00	-60.920	-96.996	
356.00	-61.531	-95.569	
357.00	-62.751	-94.938	
358.00	-64.066	-78.976	
359.00	-65.268	-71.841	
Frequency	2400.00	MHz	
Channel	test		
Scan Axis name	Azimuth  [deg]		
Scan Axis	Amplitude	Phase	
			
0.00	-71.997	162.151	
1.00	-69.856	156.355	
2.00	-68.302	156.324	
3.00	-67.542	155.391	
4.00	-67.548	156.426	
5.00	-67.072	156.691	
6.00	-69.130	159.179	
7.00	-69.499	177.823	
8.00	-70.417	-175.398	
9.00	-69.862	-157.063	
10.00	-68.726	-140.266	
11.00	-66.837	-135.634	
12.00	-66.860	-117.625	
13.00	-67.062	-105.397	
14.00	-67.513	-96.282	
15.00	-68.717	-75.301	
16.00	-69.557	-67.477	
17.00	-71.349	-59.278	
18.00	-73.307	-56.617	
19.00	-72.540	-76.147	
20.00	-72.371	-88.063	
21.00	-76.243	-98.157	
22.00	-73.174	-121.261	
23.00	-72.878	-148.431	
24.00	-74.492	-165.538	
25.00	-73.788	-143.213	
26.00	-75.586	-147.686	
27.00	-78.633	-153.791	
28.00	-80.880	-147.130	
29.00	-75.730	125.089	
30.00	-76.034	130.195	
31.00	-76.642	146.491	
32.00	-75.382	173.540	
33.00	-76.458	-149.348	
34.00	-83.431	-34.467	
35.00	-84.028	64.125	
36.00	-82.778	75.705	
37.00	-80.145	75.563	
38.00	-80.936	50.249	
39.00	-86.695	5.017	
40.00	-77.885	-99.215	
41.00	-70.588	-65.976	
42.00	-68.779	-56.689	
43.00	-67.216	-55.297	
44.00	-65.108	-49.551	
45.00	-63.934	-48.517	
46.00	-64.058	-32.731	
47.00	-64.096	-29.261	
48.00	-65.841	-26.697	
49.00	-68.597	-13.295	
50.00	-76.160	-22.852	
51.00	-83.285	-86.190	
52.00	-72.938	-134.866	
53.00	-68.917	-141.460	
54.00	-65.358	-131.120	
55.00	-64.733	-113.151	
56.00	-64.526	-106.753	
57.00	-64.966	-92.696	
58.00	-66.005	-82.351	
59.00	-66.463	-80.669	
60.00	-67.312	-88.403	
61.00	-68.571	-115.465	
62.00	-67.399	-124.086	
63.00	-65.249	-129.181	
64.00	-63.295	-129.511	
65.00	-63.457	-143.426	
66.00	-63.576	-146.006	
67.00	-63.717	-145.022	
68.00	-63.665	-131.457	
69.00	-63.046	-128.175	
70.00	-63.907	-116.627	
71.00	-63.958	-95.481	
72.00	-63.924	-79.721	
73.00	-64.815	-65.082	
74.00	-64.831	-45.790	
75.00	-64.915	-23.458	
76.00	-67.146	-3.493	
77.00	-67.926	21.159	
78.00	-81.761	21.961	
79.00	-71.332	-37.721	
80.00	-74.320	160.411	
81.00	-69.357	-141.137	
82.00	-65.435	-108.690	
83.00	-62.510	-134.873	
84.00	-70.355	-87.521	
85.00	-60.423	-78.796	
86.00	-63.122	-18.122	
87.00	-60.983	-27.497	
88.00	-64.198	-13.349	
89.00	-61.442	-5.868	
90.00	-62.213	29.080	
91.00	-64.042	16.705	
92.00	-63.643	34.253	
93.00	-65.884	36.442	
94.00	-66.296	36.375	
95.00	-66.640	46.842	
96.00	-64.448	30.208	
97.00	-67.643	42.107	
98.00	-67.781	55.366	
99.00	-69.086	67.621	
100.00	-67.846	92.757	
101.00	-69.768	130.124	
102.00	-69.495	158.657	
103.00	-66.094	-171.656	
104.00	-64.391	-166.755	
105.00	-62.466	-141.209	
106.00	-61.352	-132.036	
107.00	-61.079	-120.951	
108.00	-60.783	-103.443	
109.00	-59.878	-99.205	
110.00	-59.618	-95.847	
111.00	-58.831	-85.853	
112.00	-58.045	-87.600	
113.00	-57.618	-74.903	
114.00	-56.951	-68.300	
115.00	-56.427	-58.422	
116.00	-55.791	-46.476	
117.00	-55.354	-32.070	
118.00	-54.246	-14.937	
119.00	-53.691	0.876	
120.00	-53.066	17.254	
121.00	-52.537	32.057	
122.00	-52.476	47.434	
123.00	-51.947	53.744	
124.00	-52.018	56.383	
125.00	-52.527	55.858	
126.00	-52.464	51.723	
127.00	-51.257	47.062	
128.00	-49.807	43.806	
129.00	-48.138	46.548	
130.00	-46.704	52.508	
131.00	-45.326	61.360	
132.00	-44.357	71.345	
133.00	-43.782	84.812	
134.00	-43.449	96.222	
135.00	-43.489	110.134	
136.00	-44.136	123.052	
137.00	-45.049	141.711	
138.00	-46.835	152.355	
139.00	-49.998	169.568	
140.00	-55.698	-163.176	
141.00	-60.315	-72.147	
142.00	-53.121	-10.831	
143.00	-48.542	7.822	
144.00	-45.904	23.152	
145.00	-44.250	35.060	
146.00	-43.553	47.131	
147.00	-42.969	59.413	
148.00	-42.846	69.440	
149.00	-43.355	80.273	
150.00	-44.125	90.966	
151.00	-44.955	100.189	
152.00	-46.276	110.441	
153.00	-47.547	119.025	
154.00	-49.474	125.334	
155.00	-51.413	131.142	
156.00	-54.345	127.688	
157.00	-57.041	107.687	
158.00	-56.359	73.487	
159.00	-53.278	53.230	
160.00	-50.571	47.245	
161.00	-48.232	47.937	
162.00	-46.581	46.129	
163.00	-45.691	46.118	
164.00	-45.723	46.335	
165.00	-46.382	47.208	
166.00	-47.815	44.708	
167.00	-50.469	40.014	
168.00	-53.174	31.726	
169.00	-56.227	23.454	
170.00	-57.475	32.696	
171.00	-53.943	63.966	
172.00	-47.153	78.110	
173.00	-41.729	83.042	
174.00	-37.285	85.895	
175.00	-33.810	87.003	
176.00	-31.083	87.259	
177.00	-28.971	87.983	
178.00	-27.426	89.630	
179.00	-26.359	90.268	
180.00	-25.786	90.311	
181.00	-25.659	89.828	
182.00	-26.041	90.123	
183.00	-26.924	90.373	
184.00	-28.427	89.484	
185.00	-30.615	89.963	
186.00	-33.779	90.769	
187.00	-38.548	96.221	
188.00	-46.423	113.713	
189.00	-51.209	-155.958	
190.00	-45.389	-121.257	
191.00	-43.881	-114.534	
192.00	-44.708	-109.080	
193.00	-47.498	-101.453	
194.00	-53.029	-75.586	
195.00	-54.513	-14.097	
196.00	-50.467	18.167	
197.00	-49.303	28.361	
198.00	-50.618	36.818	
199.00	-55.030	56.685	
200.00	-56.227	127.400	
201.00	-49.425	157.654	
202.00	-46.311	161.860	
203.00	-45.348	159.867	
204.00	-44.937	155.618	
205.00	-46.512	149.141	
206.00	-51.170	137.089	
207.00	-63.604	49.842	
208.00	-50.606	-38.466	
209.00	-44.850	-48.507	
210.00	-41.603	-59.018	
211.00	-39.850	-67.944	
212.00	-39.184	-77.057	
213.00	-39.251	-87.222	
214.00	-39.880	-95.191	
215.00	-41.055	-102.538	
216.00	-43.212	-108.815	
217.00	-46.142	-110.329	
218.00	-49.808	-98.905	
219.00	-51.220	-64.634	
220.00	-48.191	-39.797	
221.00	-45.657	-37.181	
222.00	-43.896	-40.612	
223.00	-43.153	-47.564	
224.00	-43.022	-55.275	
225.00	-43.329	-64.785	
226.00	-44.160	-73.457	
227.00	-45.138	-84.993	
228.00	-46.533	-96.068	
229.00	-47.987	-107.817	
230.00	-49.618	-120.389	
231.00	-51.141	-132.392	
232.00	-52.601	-144.570	
233.00	-54.213	-155.566	
234.00	-55.480	-172.207	
235.00	-56.789	-177.654	
236.00	-57.630	175.931	
237.00	-60.856	159.141	
238.00	-61.777	157.101	
239.00	-65.710	148.903	
240.00	-71.388	162.915	
241.00	-75.637	-171.793	
242.00	-71.389	-145.096	
243.00	-66.637	-148.385	
244.00	-64.350	-163.915	
245.00	-62.303	174.328	
246.00	-61.473	164.781	
247.00	-60.191	141.372	
248.00	-59.674	123.823	
249.00	-59.188	100.816	
250.00	-59.004	79.540	
251.00	-58.989	55.851	
252.00	-58.749	33.404	
253.00	-58.512	9.534	
254.00	-58.582	-12.074	
255.00	-58.445	-34.386	
256.00	-58.494	-56.798	
257.00	-57.892	-78.181	
258.00	-58.012	-98.009	
259.00	-57.997	-116.099	
260.00	-57.641	-132.122	
261.00	-57.962	-148.650	
262.00	-58.411	-164.321	
263.00	-59.345	179.522	
264.00	-60.486	163.337	
265.00	-61.678	146.834	
266.00	-63.327	126.034	
267.00	-64.297	108.049	
268.00	-65.894	87.869	
269.00	-66.972	63.261	
270.00	-68.887	37.465	
271.00	-70.853	18.698	
272.00	-71.768	-10.254	
273.00	-72.522	-30.088	
274.00	-74.978	-62.895	
275.00	-77.633	-114.070	
276.00	-82.010	-131.989	
277.00	-79.750	161.488	
278.00	-73.189	94.233	
279.00	-70.483	91.133	
280.00	-71.380	72.865	
281.00	-68.692	58.731	
282.00	-74.642	29.975	
283.00	-71.375	-5.455	
284.00	-73.587	-49.575	
285.00	-69.057	-70.871	
286.00	-67.221	-95.206	
287.00	-65.378	-118.914	
288.00	-64.952	-135.047	
289.00	-66.683	-155.224	
290.00	-65.704	-170.740	
291.00	-66.256	169.449	
292.00	-66.581	150.576	
293.00	-66.369	126.081	
294.00	-66.758	107.351	
295.00	-66.127	96.861	
296.00	-65.233	81.951	
297.00	-65.155	73.891	
298.00	-64.690	65.924	
299.00	-64.073	53.518	
300.00	-62.862	46.603	
301.00	-62.037	32.537	
302.00	-60.939	21.216	
303.00	-60.275	7.484	
304.00	-59.867	-6.915	
305.00	-59.663	-19.698	
306.00	-60.583	-33.118	
307.00	-61.700	-50.677	
308.00	-63.105	-65.298	
309.00	-66.547	-82.603	
310.00	-70.224	-102.780	
311.00	-76.710	-129.483	
312.00	-84.499	-127.218	
313.00	-103.580	-72.999	
314.00	-78.003	-59.758	
315.00	-71.640	-79.420	
316.00	-69.006	-100.455	
317.00	-66.683	-109.514	
318.00	-64.326	-123.015	
319.00	-65.575	-141.243	
320.00	-66.207	-161.409	
321.00	-69.334	-177.624	
322.00	-69.167	150.006	
323.00	-70.686	118.310	
324.00	-69.559	84.190	
325.00	-69.152	65.266	
326.00	-69.234	49.220	
327.00	-70.341	35.885	
328.00	-74.947	24.076	
329.00	-87.383	26.114	
330.00	-77.826	159.600	
331.00	-72.076	157.456	
332.00	-69.660	150.730	
333.00	-67.409	145.359	
334.00	-65.929	141.371	
335.00	-65.277	134.322	
336.00	-64.481	131.400	
337.00	-64.285	121.088	
338.00	-64.283	120.077	
339.00	-63.651	112.834	
340.00	-63.689	105.337	
341.00	-64.242	92.374	
342.00	-64.635	81.001	
343.00	-66.074	61.990	
344.00	-67.448	44.761	
345.00	-69.321	25.853	
346.00	-69.406	-7.622	
347.00	-67.643	-22.785	
348.00	-66.660	-32.798	
349.00	-69.189	-47.895	
350.00	-68.923	-58.959	
351.00	-74.911	-47.701	
352.00	-77.404	-57.788	
353.00	-73.582	-22.820	
354.00	-81.256	-8.726	
355.00	-80.685	27.575	
356.00	-79.295	86.215	
357.00	-78.516	96.839	
358.00	-74.957	115.277	
359.00	-73.328	143.223	
Frequency	2450.00	MHz	
Channel	test		
Scan Axis name	Azimuth  [deg]		
Scan Axis	Amplitude	Phase	
			
0.00	-68.143	25.138	
1.00	-64.364	30.510	
2.00	-63.331	35.722	
3.00	-62.285	32.057	
4.00	-61.820	28.059	
5.00	-60.659	27.837	
6.00	-61.664	26.502	
7.00	-61.801	23.514	
8.00	-63.875	16.453	
9.00	-66.428	10.193	
10.00	-68.669	13.033	
11.00	-73.028	-7.358	
12.00	-75.190	-62.095	
13.00	-75.527	-105.790	
14.00	-69.358	-129.141	
15.00	-66.535	-136.471	
16.00	-65.117	-136.391	
17.00	-64.617	-136.455	
18.00	-64.870	-136.500	
19.00	-65.032	-138.250	
20.00	-66.276	-135.575	
21.00	-67.258	-133.822	
22.00	-70.230	-146.627	
23.00	-73.321	-139.266	
24.00	-79.684	173.271	
25.00	-74.445	82.824	
26.00	-68.001	67.075	
27.00	-65.953	78.144	
28.00	-64.038	74.763	
29.00	-63.668	72.758	
30.00	-63.454	71.944	
31.00	-64.212	79.023	
32.00	-66.511	92.961	
33.00	-65.956	91.709	
34.00	-68.326	119.141	
35.00	-72.525	139.122	
36.00	-71.225	-177.914	
37.00	-72.681	-148.264	
38.00	-69.278	-105.023	
39.00	-69.530	-93.291	
40.00	-68.701	-94.202	
41.00	-68.452	-105.214	
42.00	-66.307	-107.976	
43.00	-67.025	-115.488	
44.00	-65.855	-99.010	
45.00	-66.021	-93.075	
46.00	-70.198	-66.389	
47.00	-74.262	-49.486	
48.00	-73.919	4.558	
49.00	-75.380	50.761	
50.00	-74.258	68.318	
51.00	-74.774	49.787	
52.00	-72.741	39.203	
53.00	-73.154	56.143	
54.00	-71.385	49.649	
55.00	-71.820	88.911	
56.00	-69.434	123.435	
57.00	-66.841	147.205	
58.00	-64.509	167.842	
59.00	-62.902	-179.361	
60.00	-62.857	-172.223	
61.00	-62.208	-168.334	
62.00	-63.706	-155.804	
63.00	-65.717	-165.415	
64.00	-66.933	-160.326	
65.00	-67.034	-147.867	
66.00	-68.320	-134.817	
67.00	-67.492	-105.370	
68.00	-65.889	-87.342	
69.00	-64.816	-61.025	
70.00	-62.650	-49.373	
71.00	-63.439	-28.976	
72.00	-63.057	-4.297	
73.00	-64.913	12.949	
74.00	-66.759	43.378	
75.00	-66.718	74.936	
76.00	-66.174	110.787	
77.00	-66.739	131.809	
78.00	-64.947	161.831	
79.00	-63.105	142.716	
80.00	-67.024	-168.029	
81.00	-67.365	120.208	
82.00	-61.043	118.503	
83.00	-71.167	105.211	
84.00	-62.488	123.146	
85.00	-58.838	123.772	
86.00	-62.998	144.824	
87.00	-59.229	152.768	
88.00	-59.405	162.572	
89.00	-61.553	-175.508	
90.00	-58.140	-179.374	
91.00	-62.543	-165.313	
92.00	-63.740	-159.206	
93.00	-65.861	-148.819	
94.00	-70.020	-135.670	
95.00	-69.930	-112.488	
96.00	-72.518	-56.670	
97.00	-73.918	-29.691	
98.00	-73.605	-17.668	
99.00	-75.902	-9.369	
100.00	-75.659	16.815	
101.00	-74.642	60.335	
102.00	-68.006	95.929	
103.00	-66.835	80.014	
104.00	-62.972	77.815	
105.00	-62.035	80.280	
106.00	-60.081	89.704	
107.00	-58.694	102.809	
108.00	-58.504	111.223	
109.00	-57.319	127.748	
110.00	-56.750	139.841	
111.00	-56.373	158.372	
112.00	-55.021	166.290	
113.00	-54.537	176.381	
114.00	-54.973	175.965	
115.00	-55.161	175.931	
116.00	-55.279	170.473	
117.00	-54.925	161.940	
118.00	-53.629	157.691	
119.00	-52.971	164.009	
120.00	-51.664	169.312	
121.00	-50.853	179.566	
122.00	-50.546	-167.113	
123.00	-49.981	-155.280	
124.00	-50.045	-139.346	
125.00	-49.903	-126.249	
126.00	-50.354	-112.842	
127.00	-51.462	-103.628	
128.00	-53.081	-95.790	
129.00	-54.493	-99.912	
130.00	-55.282	-114.403	
131.00	-52.997	-129.421	
132.00	-50.276	-130.474	
133.00	-48.179	-124.979	
134.00	-46.331	-116.408	
135.00	-45.114	-107.738	
136.00	-44.146	-97.881	
137.00	-44.177	-85.443	
138.00	-44.494	-75.694	
139.00	-45.511	-64.405	
140.00	-47.244	-56.371	
141.00	-50.047	-49.071	
142.00	-54.626	-56.279	
143.00	-58.357	-88.640	
144.00	-55.235	-130.581	
145.00	-51.123	-137.279	
146.00	-48.405	-131.828	
147.00	-46.942	-124.578	
148.00	-46.199	-114.026	
149.00	-45.858	-105.235	
150.00	-46.019	-95.872	
151.00	-46.567	-88.432	
152.00	-47.212	-79.929	
153.00	-48.035	-74.668	
154.00	-49.319	-70.111	
155.00	-50.442	-65.568	
156.00	-51.146	-63.146	
157.00	-52.054	-62.904	
158.00	-52.909	-66.565	
159.00	-53.681	-72.899	
160.00	-54.459	-88.264	
161.00	-54.311	-106.216	
162.00	-53.145	-123.995	
163.00	-52.333	-138.124	
164.00	-51.739	-145.958	
165.00	-52.078	-146.840	
166.00	-54.286	-146.394	
167.00	-59.790	-143.131	
168.00	-70.186	-49.796	
169.00	-57.777	-0.957	
170.00	-52.914	-6.421	
171.00	-50.025	-25.920	
172.00	-46.618	-51.077	
173.00	-42.534	-71.841	
174.00	-38.399	-83.826	
175.00	-34.994	-91.075	
176.00	-32.262	-96.322	
177.00	-30.115	-99.378	
178.00	-28.563	-100.354	
179.00	-27.477	-101.543	
180.00	-26.907	-103.117	
181.00	-26.837	-104.855	
182.00	-27.280	-105.842	
183.00	-28.260	-106.476	
184.00	-29.864	-108.035	
185.00	-32.209	-108.720	
186.00	-35.583	-109.081	
187.00	-40.735	-105.411	
188.00	-49.922	-89.349	
189.00	-53.193	26.160	
190.00	-47.035	48.024	
191.00	-45.638	52.937	
192.00	-46.977	57.728	
193.00	-50.676	71.073	
194.00	-55.002	114.207	
195.00	-52.626	167.547	
196.00	-49.559	-174.275	
197.00	-48.578	-165.514	
198.00	-49.473	-155.394	
199.00	-51.346	-139.121	
200.00	-52.192	-109.376	
201.00	-50.520	-82.341	
202.00	-48.878	-72.195	
203.00	-48.339	-72.895	
204.00	-49.356	-81.071	
205.00	-52.374	-103.978	
206.00	-55.805	-162.070	
207.00	-50.530	143.234	
208.00	-45.769	120.653	
209.00	-42.765	106.581	
210.00	-41.035	96.986	
211.00	-40.174	89.507	
212.00	-40.154	82.590	
213.00	-40.764	75.324	
214.00	-42.216	71.609	
215.00	-44.201	70.824	
216.00	-46.742	76.898	
217.00	-49.280	95.911	
218.00	-49.450	119.480	
219.00	-47.844	133.410	
220.00	-46.248	136.503	
221.00	-45.481	133.586	
222.00	-45.113	128.213	
223.00	-45.256	121.934	
224.00	-45.682	114.373	
225.00	-46.181	105.542	
226.00	-46.706	97.009	
227.00	-47.257	87.432	
228.00	-48.137	78.475	
229.00	-48.805	69.717	
230.00	-49.470	60.285	
231.00	-50.689	50.119	
232.00	-52.039	38.117	
233.00	-53.865	25.633	
234.00	-55.994	13.966	
235.00	-59.702	-7.363	
236.00	-64.743	-14.795	
237.00	-74.707	-0.111	
238.00	-72.425	107.564	
239.00	-63.463	81.904	
240.00	-60.868	75.902	
241.00	-58.851	62.347	
242.00	-58.292	40.138	
243.00	-57.367	19.170	
244.00	-57.717	-4.922	
245.00	-57.206	-30.954	
246.00	-57.495	-54.566	
247.00	-57.041	-85.062	
248.00	-56.864	-107.193	
249.00	-56.746	-133.723	
250.00	-56.221	-156.101	
251.00	-56.788	178.617	
252.00	-56.050	158.995	
253.00	-56.503	135.862	
254.00	-56.184	119.933	
255.00	-56.266	98.882	
256.00	-56.628	86.050	
257.00	-58.296	64.984	
258.00	-58.506	48.346	
259.00	-60.298	30.062	
260.00	-62.346	19.919	
261.00	-63.069	9.530	
262.00	-65.942	-12.898	
263.00	-69.315	-40.970	
264.00	-73.335	-52.717	
265.00	-76.445	-82.828	
266.00	-83.348	-150.585	
267.00	-84.751	-173.093	
268.00	-74.905	94.287	
269.00	-70.566	79.226	
270.00	-69.907	67.777	
271.00	-67.114	37.640	
272.00	-66.559	35.106	
273.00	-65.404	20.298	
274.00	-66.193	-4.009	
275.00	-63.860	-22.035	
276.00	-64.786	-36.027	
277.00	-64.461	-62.743	
278.00	-64.719	-90.888	
279.00	-61.914	-103.256	
280.00	-62.689	-128.599	
281.00	-61.879	-148.691	
282.00	-61.384	-166.832	
283.00	-61.522	179.646	
284.00	-61.042	167.514	
285.00	-62.949	154.424	
286.00	-64.906	135.444	
287.00	-66.998	102.380	
288.00	-65.975	80.005	
289.00	-69.124	66.792	
290.00	-72.998	26.836	
291.00	-70.604	15.207	
292.00	-72.717	-8.906	
293.00	-68.028	-69.046	
294.00	-68.412	-84.798	
295.00	-66.729	-97.603	
296.00	-64.266	-100.061	
297.00	-62.170	-114.702	
298.00	-61.383	-120.612	
299.00	-59.856	-130.161	
300.00	-58.939	-142.435	
301.00	-58.647	-159.703	
302.00	-58.000	-172.592	
303.00	-57.845	172.630	
304.00	-57.587	155.980	
305.00	-57.417	139.960	
306.00	-57.985	125.957	
307.00	-58.559	111.484	
308.00	-59.607	93.053	
309.00	-61.711	80.344	
310.00	-63.854	58.271	
311.00	-66.831	38.662	
312.00	-69.371	4.651	
313.00	-71.852	-10.562	
314.00	-69.461	-17.793	
315.00	-68.901	-26.874	
316.00	-65.910	-15.139	
317.00	-64.438	-18.812	
318.00	-63.598	-21.424	
319.00	-62.836	-33.801	
320.00	-62.983	-43.383	
321.00	-63.340	-53.231	
322.00	-67.759	-64.336	
323.00	-70.544	-95.383	
324.00	-78.222	-158.547	
325.00	-74.654	141.721	
326.00	-70.931	126.232	
327.00	-69.813	110.753	
328.00	-68.628	106.714	
329.00	-71.430	93.507	
330.00	-74.163	106.307	
331.00	-79.194	55.214	
332.00	-78.054	-5.460	
333.00	-76.960	-49.529	
334.00	-75.059	-83.737	
335.00	-72.564	-66.812	
336.00	-68.290	-78.304	
337.00	-68.203	-88.410	
338.00	-66.032	-89.005	
339.00	-65.880	-91.415	
340.00	-64.284	-106.402	
341.00	-63.663	-117.784	
342.00	-62.806	-125.131	
343.00	-63.849	-130.388	
344.00	-66.824	-133.604	
345.00	-68.921	-131.781	
346.00	-75.505	-138.193	
347.00	-75.508	-91.130	
348.00	-77.599	-70.394	
349.00	-77.777	-21.795	
350.00	-73.326	-34.034	
351.00	-75.805	-9.332	
352.00	-73.567	-34.735	
353.00	-72.421	-61.099	
354.00	-71.932	-63.367	
355.00	-71.624	-48.960	
356.00	-73.496	-32.030	
357.00	-72.371	-5.624	
358.00	-69.797	2.617	
359.00	-68.800	14.610	
Frequency	2496.00	MHz	
Channel	test		
Scan Axis name	Azimuth  [deg]		
Scan Axis	Amplitude	Phase	
			
0.00	-75.724	-143.446	
1.00	-70.429	-161.136	
2.00	-74.563	-151.090	
3.00	-69.678	-157.205	
4.00	-79.179	-142.035	
5.00	-74.934	-144.933	
6.00	-71.516	-114.208	
7.00	-75.018	-82.007	
8.00	-70.201	-87.654	
9.00	-68.191	-61.074	
10.00	-67.339	-69.293	
11.00	-64.486	-56.656	
12.00	-65.312	-46.358	
13.00	-63.989	-46.701	
14.00	-62.795	-47.800	
15.00	-61.311	-32.347	
16.00	-61.179	-29.968	
17.00	-61.358	-21.586	
18.00	-60.309	-30.934	
19.00	-61.303	-26.961	
20.00	-61.119	-26.080	
21.00	-60.873	-36.388	
22.00	-61.390	-45.745	
23.00	-61.717	-53.146	
24.00	-60.675	-59.027	
25.00	-61.108	-61.885	
26.00	-61.800	-70.335	
27.00	-61.789	-83.571	
28.00	-63.494	-83.017	
29.00	-64.593	-78.400	
30.00	-66.042	-80.699	
31.00	-69.824	-68.878	
32.00	-69.113	-76.130	
33.00	-73.540	-56.635	
34.00	-72.124	-11.873	
35.00	-69.026	-21.083	
36.00	-66.416	10.371	
37.00	-66.453	19.269	
38.00	-65.574	45.773	
39.00	-67.196	43.424	
40.00	-66.035	57.184	
41.00	-67.158	34.169	
42.00	-64.991	45.991	
43.00	-64.654	48.394	
44.00	-64.853	52.667	
45.00	-66.226	73.006	
46.00	-68.741	94.854	
47.00	-74.666	142.437	
48.00	-72.797	-163.192	
49.00	-71.214	-118.948	
50.00	-70.072	-101.918	
51.00	-67.549	-97.925	
52.00	-68.617	-95.160	
53.00	-67.535	-98.462	
54.00	-65.340	-98.319	
55.00	-64.450	-99.362	
56.00	-63.352	-83.744	
57.00	-63.819	-79.779	
58.00	-65.753	-61.502	
59.00	-69.340	-40.435	
60.00	-89.021	-44.062	
61.00	-72.696	150.853	
62.00	-65.149	170.128	
63.00	-62.120	-170.806	
64.00	-60.990	-158.773	
65.00	-60.969	-136.180	
66.00	-61.611	-122.803	
67.00	-63.625	-97.512	
68.00	-64.890	-80.436	
69.00	-68.510	-37.488	
70.00	-68.441	11.871	
71.00	-68.253	26.895	
72.00	-70.067	50.838	
73.00	-75.856	57.260	
74.00	-79.916	7.850	
75.00	-73.591	-42.586	
76.00	-70.154	-54.174	
77.00	-70.124	-35.591	
78.00	-74.900	-39.885	
79.00	-74.598	-11.449	
80.00	-70.042	38.821	
81.00	-72.182	83.216	
82.00	-80.116	144.878	
83.00	-69.167	175.708	
84.00	-66.620	-161.919	
85.00	-68.724	-138.881	
86.00	-63.341	-105.573	
87.00	-62.850	-70.865	
88.00	-60.379	-55.150	
89.00	-61.787	-32.355	
90.00	-61.250	-4.370	
91.00	-61.250	15.510	
92.00	-59.875	39.820	
93.00	-59.495	56.282	
94.00	-59.916	78.887	
95.00	-59.911	99.611	
96.00	-59.739	125.149	
97.00	-59.149	153.831	
98.00	-58.652	172.499	
99.00	-57.766	-171.065	
100.00	-57.387	-153.334	
101.00	-57.696	-128.168	
102.00	-58.469	-119.419	
103.00	-60.356	-103.035	
104.00	-62.212	-86.672	
105.00	-64.620	-59.780	
106.00	-65.232	-35.463	
107.00	-64.144	-11.777	
108.00	-62.373	-2.595	
109.00	-61.459	4.230	
110.00	-60.745	1.812	
111.00	-60.159	7.953	
112.00	-59.633	11.837	
113.00	-61.469	18.400	
114.00	-65.268	33.765	
115.00	-71.131	58.514	
116.00	-72.545	161.602	
117.00	-65.618	-156.358	
118.00	-61.948	-129.700	
119.00	-59.848	-109.052	
120.00	-58.644	-80.550	
121.00	-57.309	-54.433	
122.00	-55.715	-28.615	
123.00	-54.579	-5.391	
124.00	-53.290	14.814	
125.00	-53.543	37.744	
126.00	-54.620	65.998	
127.00	-55.704	95.666	
128.00	-55.809	135.707	
129.00	-55.743	179.293	
130.00	-54.170	-140.169	
131.00	-53.055	-107.462	
132.00	-51.469	-71.607	
133.00	-49.540	-37.709	
134.00	-47.108	-12.256	
135.00	-45.291	10.687	
136.00	-43.999	28.021	
137.00	-43.393	47.255	
138.00	-43.376	62.200	
139.00	-43.538	80.347	
140.00	-44.503	97.227	
141.00	-45.833	115.614	
142.00	-47.916	136.033	
143.00	-50.797	158.092	
144.00	-54.641	-170.478	
145.00	-58.601	-110.906	
146.00	-54.812	-54.330	
147.00	-52.451	-30.739	
148.00	-50.791	-10.713	
149.00	-50.551	5.791	
150.00	-50.397	19.094	
151.00	-51.000	29.603	
152.00	-51.500	41.689	
153.00	-51.567	50.259	
154.00	-52.677	55.356	
155.00	-53.740	63.282	
156.00	-55.695	67.711	
157.00	-57.904	80.167	
158.00	-62.322	83.013	
159.00	-71.272	42.409	
160.00	-63.714	-66.155	
161.00	-55.999	-64.013	
162.00	-52.203	-63.269	
163.00	-49.753	-61.429	
164.00	-48.335	-60.670	
165.00	-47.935	-61.070	
166.00	-48.534	-60.990	
167.00	-49.259	-70.815	
168.00	-50.700	-86.796	
169.00	-50.895	-106.239	
170.00	-51.033	-118.931	
171.00	-51.872	-124.085	
172.00	-54.847	-105.989	
173.00	-53.974	-36.359	
174.00	-46.107	-7.291	
175.00	-40.504	2.227	
176.00	-36.821	4.925	
177.00	-33.926	6.413	
178.00	-32.109	7.733	
179.00	-30.795	8.147	
180.00	-30.134	7.429	
181.00	-29.982	5.946	
182.00	-30.459	4.603	
183.00	-31.568	3.028	
184.00	-33.399	-1.007	
185.00	-36.209	-3.569	
186.00	-40.310	-10.751	
187.00	-47.225	-21.583	
188.00	-56.594	-99.419	
189.00	-49.434	-159.364	
190.00	-46.941	-173.101	
191.00	-47.124	-174.451	
192.00	-49.237	-167.558	
193.00	-52.881	-146.674	
194.00	-52.691	-106.737	
195.00	-50.464	-84.693	
196.00	-49.010	-83.060	
197.00	-49.245	-88.424	
198.00	-50.657	-98.394	
199.00	-53.767	-120.630	
200.00	-57.642	-154.868	
201.00	-60.927	141.640	
202.00	-61.169	97.409	
203.00	-59.430	40.202	
204.00	-54.864	-15.154	
205.00	-50.644	-46.625	
206.00	-47.506	-69.459	
207.00	-45.024	-85.963	
208.00	-43.437	-101.444	
209.00	-42.380	-115.241	
210.00	-42.385	-128.959	
211.00	-43.039	-139.896	
212.00	-44.629	-150.146	
213.00	-47.647	-162.262	
214.00	-51.653	-165.368	
215.00	-61.417	-138.570	
216.00	-56.349	-48.633	
217.00	-50.742	-52.641	
218.00	-47.834	-59.278	
219.00	-46.444	-70.613	
220.00	-45.741	-80.566	
221.00	-45.907	-93.567	
222.00	-46.695	-107.477	
223.00	-48.012	-120.581	
224.00	-49.184	-136.263	
225.00	-50.710	-148.574	
226.00	-52.429	-165.720	
227.00	-54.499	178.814	
228.00	-55.944	168.909	
229.00	-59.536	152.117	
230.00	-60.954	123.996	
231.00	-62.851	103.423	
232.00	-66.308	62.931	
233.00	-63.743	19.137	
234.00	-61.551	-25.069	
235.00	-59.857	-46.288	
236.00	-59.029	-68.268	
237.00	-57.576	-90.630	
238.00	-57.458	-118.472	
239.00	-57.720	-149.014	
240.00	-56.248	178.514	
241.00	-54.713	152.092	
242.00	-53.213	120.132	
243.00	-52.332	96.012	
244.00	-50.748	76.727	
245.00	-50.029	56.662	
246.00	-49.671	41.221	
247.00	-49.581	22.000	
248.00	-49.913	6.360	
249.00	-50.325	-12.931	
250.00	-51.440	-30.366	
251.00	-52.330	-51.935	
252.00	-53.478	-71.616	
253.00	-54.867	-99.469	
254.00	-55.407	-121.263	
255.00	-55.935	-147.829	
256.00	-56.656	-175.524	
257.00	-57.153	155.879	
258.00	-57.772	132.815	
259.00	-58.063	113.515	
260.00	-57.135	90.943	
261.00	-56.475	73.628	
262.00	-57.032	53.655	
263.00	-56.540	41.214	
264.00	-56.796	27.211	
265.00	-56.992	16.708	
266.00	-57.897	-2.129	
267.00	-59.708	-20.063	
268.00	-60.308	-37.270	
269.00	-63.130	-53.525	
270.00	-64.092	-70.713	
271.00	-67.928	-101.294	
272.00	-65.971	-139.365	
273.00	-67.650	-171.203	
274.00	-64.411	167.548	
275.00	-63.229	149.152	
276.00	-63.814	136.397	
277.00	-64.214	110.570	
278.00	-64.784	99.576	
279.00	-64.241	82.460	
280.00	-64.217	74.049	
281.00	-65.418	53.837	
282.00	-64.993	50.330	
283.00	-66.763	34.638	
284.00	-66.262	29.267	
285.00	-65.885	22.247	
286.00	-67.814	-6.606	
287.00	-69.779	-25.894	
288.00	-68.368	-45.282	
289.00	-66.821	-60.348	
290.00	-67.503	-79.647	
291.00	-65.594	-93.908	
292.00	-65.964	-123.525	
293.00	-63.938	-138.611	
294.00	-64.253	-154.571	
295.00	-63.259	-179.945	
296.00	-63.916	162.517	
297.00	-62.105	132.499	
298.00	-60.799	112.358	
299.00	-60.148	96.454	
300.00	-60.553	80.767	
301.00	-59.612	61.482	
302.00	-60.062	41.710	
303.00	-60.255	24.841	
304.00	-59.663	13.042	
305.00	-60.294	-6.586	
306.00	-60.567	-29.083	
307.00	-64.006	-47.600	
308.00	-65.016	-71.355	
309.00	-69.194	-100.887	
310.00	-68.632	-134.708	
311.00	-69.830	-174.702	
312.00	-71.419	168.941	
313.00	-71.413	123.717	
314.00	-69.993	107.770	
315.00	-71.872	110.775	
316.00	-72.342	115.506	
317.00	-70.444	113.361	
318.00	-66.445	132.268	
319.00	-67.459	118.406	
320.00	-65.654	110.841	
321.00	-65.846	114.458	
322.00	-66.450	113.026	
323.00	-66.589	112.382	
324.00	-67.533	114.008	
325.00	-67.670	110.816	
326.00	-68.277	111.246	
327.00	-68.775	100.426	
328.00	-73.103	96.260	
329.00	-77.877	127.387	
330.00	-77.547	154.227	
331.00	-72.334	-177.233	
332.00	-68.567	-176.275	
333.00	-67.276	170.194	
334.00	-68.096	161.961	
335.00	-66.367	135.626	
336.00	-68.900	121.875	
337.00	-68.687	99.509	
338.00	-68.134	84.774	
339.00	-67.275	74.076	
340.00	-68.599	68.365	
341.00	-66.870	68.325	
342.00	-66.864	63.824	
343.00	-67.845	80.793	
344.00	-66.905	85.792	
345.00	-65.194	95.711	
346.00	-64.047	110.366	
347.00	-63.183	99.183	
348.00	-63.181	118.420	
349.00	-62.139	120.901	
350.00	-63.455	113.555	
351.00	-63.101	112.010	
352.00	-63.303	113.474	
353.00	-63.503	95.334	
354.00	-65.950	77.645	
355.00	-67.136	72.084	
356.00	-74.533	50.287	
357.00	-81.621	56.955	
358.00	-78.349	-103.416	
359.00	-82.199	-82.727	
Frequency	2550.00	MHz	
Channel	test		
Scan Axis name	Azimuth  [deg]		
Scan Axis	Amplitude	Phase	
			
0.00	-63.640	43.250	
1.00	-64.202	33.440	
2.00	-65.550	30.982	
3.00	-66.848	33.116	
4.00	-70.992	29.525	
5.00	-75.508	84.264	
6.00	-77.654	136.353	
7.00	-71.846	155.796	
8.00	-69.735	163.724	
9.00	-66.785	149.116	
10.00	-65.840	144.453	
11.00	-65.488	131.104	
12.00	-64.252	128.398	
13.00	-64.289	118.905	
14.00	-63.947	129.369	
15.00	-63.951	127.193	
16.00	-65.499	135.341	
17.00	-67.782	137.807	
18.00	-69.597	155.439	
19.00	-72.855	168.216	
20.00	-80.651	-112.200	
21.00	-77.259	-32.513	
22.00	-69.089	-5.478	
23.00	-67.232	1.178	
24.00	-64.738	15.464	
25.00	-64.651	27.203	
26.00	-65.108	22.357	
27.00	-66.130	34.077	
28.00	-69.856	47.959	
29.00	-79.764	70.764	
30.00	-75.885	150.231	
31.00	-70.893	-146.609	
32.00	-67.339	-138.749	
33.00	-66.758	-118.893	
34.00	-68.054	-105.711	
35.00	-66.785	-108.461	
36.00	-68.839	-150.671	
37.00	-71.315	-137.317	
38.00	-70.227	178.365	
39.00	-70.723	153.180	
40.00	-67.438	138.684	
41.00	-65.994	139.405	
42.00	-63.849	143.396	
43.00	-63.944	141.299	
44.00	-64.561	146.741	
45.00	-66.271	146.345	
46.00	-69.387	148.287	
47.00	-73.486	126.034	
48.00	-73.088	91.919	
49.00	-71.327	86.547	
50.00	-71.011	65.562	
51.00	-70.561	58.592	
52.00	-75.074	50.077	
53.00	-72.061	30.248	
54.00	-71.518	33.604	
55.00	-72.322	20.411	
56.00	-73.180	48.877	
57.00	-75.854	132.041	
58.00	-70.022	-175.462	
59.00	-64.558	-151.424	
60.00	-62.493	-137.794	
61.00	-61.427	-125.352	
62.00	-61.930	-113.092	
63.00	-63.617	-90.404	
64.00	-69.026	-68.664	
65.00	-92.328	32.285	
66.00	-70.843	108.372	
67.00	-64.622	138.855	
68.00	-62.700	154.744	
69.00	-62.004	-179.062	
70.00	-62.236	-152.929	
71.00	-61.882	-127.015	
72.00	-62.219	-98.996	
73.00	-63.620	-74.571	
74.00	-64.985	-40.176	
75.00	-67.260	9.238	
76.00	-66.654	61.073	
77.00	-64.717	96.421	
78.00	-61.268	131.382	
79.00	-59.785	154.699	
80.00	-60.973	176.744	
81.00	-58.028	-154.179	
82.00	-59.371	-131.939	
83.00	-61.042	-107.232	
84.00	-59.737	-75.394	
85.00	-61.777	-60.914	
86.00	-60.415	-35.295	
87.00	-63.241	2.277	
88.00	-65.060	19.548	
89.00	-62.858	61.121	
90.00	-61.565	105.401	
91.00	-61.320	127.489	
92.00	-59.818	147.595	
93.00	-59.797	167.141	
94.00	-59.942	-174.271	
95.00	-61.404	-142.787	
96.00	-60.459	-123.019	
97.00	-60.559	-90.903	
98.00	-59.862	-69.215	
99.00	-59.319	-47.506	
100.00	-59.985	-27.410	
101.00	-60.348	2.489	
102.00	-62.716	30.136	
103.00	-62.853	69.442	
104.00	-62.186	92.039	
105.00	-60.440	113.867	
106.00	-59.645	128.663	
107.00	-59.647	141.180	
108.00	-61.980	151.184	
109.00	-64.461	165.355	
110.00	-69.772	175.387	
111.00	-81.435	-95.189	
112.00	-70.609	-32.946	
113.00	-66.213	-18.969	
114.00	-64.820	-11.963	
115.00	-64.526	-10.163	
116.00	-64.988	-7.937	
117.00	-65.845	16.024	
118.00	-66.699	37.487	
119.00	-64.490	71.582	
120.00	-61.172	103.334	
121.00	-58.119	118.292	
122.00	-55.314	132.476	
123.00	-53.568	144.699	
124.00	-52.856	156.496	
125.00	-52.846	170.072	
126.00	-53.839	-169.610	
127.00	-55.836	-145.958	
128.00	-57.394	-120.588	
129.00	-58.471	-72.824	
130.00	-59.992	-15.984	
131.00	-57.932	30.588	
132.00	-54.258	69.366	
133.00	-51.245	97.736	
134.00	-48.913	119.587	
135.00	-46.828	141.574	
136.00	-45.592	155.849	
137.00	-45.206	175.897	
138.00	-44.965	-167.831	
139.00	-45.808	-150.580	
140.00	-46.870	-132.662	
141.00	-48.570	-111.220	
142.00	-52.071	-88.920	
143.00	-55.643	-52.951	
144.00	-57.540	23.774	
145.00	-53.721	73.797	
146.00	-49.704	97.747	
147.00	-47.507	115.041	
148.00	-46.804	130.943	
149.00	-46.941	143.896	
150.00	-47.360	155.958	
151.00	-48.328	168.920	
152.00	-49.287	-178.241	
153.00	-50.929	-169.841	
154.00	-52.911	-159.447	
155.00	-54.290	-150.529	
156.00	-57.204	-146.563	
157.00	-60.010	-143.183	
158.00	-65.352	-134.687	
159.00	-76.382	156.776	
160.00	-62.468	90.885	
161.00	-56.430	84.631	
162.00	-52.574	85.682	
163.00	-50.142	83.496	
164.00	-48.451	84.945	
165.00	-47.797	87.908	
166.00	-47.783	86.933	
167.00	-48.060	82.132	
168.00	-48.635	73.882	
169.00	-49.404	66.662	
170.00	-49.310	65.636	
171.00	-48.889	74.003	
172.00	-46.816	94.208	
173.00	-43.229	112.253	
174.00	-39.417	125.659	
175.00	-35.943	132.408	
176.00	-33.176	135.368	
177.00	-31.112	137.803	
178.00	-29.611	140.643	
179.00	-28.633	142.115	
180.00	-28.143	142.081	
181.00	-28.268	141.135	
182.00	-28.935	140.729	
183.00	-30.198	140.697	
184.00	-32.284	138.946	
185.00	-35.392	139.804	
186.00	-40.246	141.619	
187.00	-49.197	155.505	
188.00	-53.276	-90.271	
189.00	-46.119	-69.197	
190.00	-44.867	-66.923	
191.00	-45.899	-66.007	
192.00	-49.943	-64.617	
193.00	-60.755	-36.675	
194.00	-55.662	69.301	
195.00	-50.157	77.731	
196.00	-48.941	76.727	
197.00	-50.592	72.488	
198.00	-56.170	67.192	
199.00	-65.612	-106.807	
200.00	-52.847	-125.000	
201.00	-47.926	-129.586	
202.00	-47.114	-138.106	
203.00	-47.985	-151.742	
204.00	-51.181	-173.070	
205.00	-55.549	134.596	
206.00	-52.057	60.612	
207.00	-46.680	30.383	
208.00	-43.528	14.098	
209.00	-42.073	2.290	
210.00	-41.834	-11.417	
211.00	-42.347	-23.214	
212.00	-44.224	-37.298	
213.00	-47.593	-53.035	
214.00	-52.777	-90.562	
215.00	-56.547	-168.925	
216.00	-50.910	139.319	
217.00	-47.415	113.693	
218.00	-45.696	94.716	
219.00	-45.139	78.710	
220.00	-44.811	62.319	
221.00	-45.087	43.888	
222.00	-45.407	25.676	
223.00	-46.101	10.566	
224.00	-46.918	-3.025	
225.00	-47.697	-17.585	
226.00	-49.222	-30.288	
227.00	-51.270	-35.762	
228.00	-53.819	-47.049	
229.00	-56.657	-61.031	
230.00	-60.562	-76.400	
231.00	-63.735	-91.339	
232.00	-68.216	-131.109	
233.00	-77.291	131.894	
234.00	-68.222	89.415	
235.00	-63.747	38.697	
236.00	-63.529	16.388	
237.00	-60.010	-17.524	
238.00	-59.124	-29.002	
239.00	-56.484	-51.030	
240.00	-55.736	-75.598	
241.00	-53.836	-100.820	
242.00	-52.748	-121.482	
243.00	-51.791	-137.409	
244.00	-51.038	-155.706	
245.00	-50.763	-172.470	
246.00	-50.564	176.204	
247.00	-51.140	157.721	
248.00	-51.809	140.826	
249.00	-52.510	125.233	
250.00	-53.847	109.944	
251.00	-55.447	88.876	
252.00	-56.430	68.083	
253.00	-58.159	47.048	
254.00	-59.092	19.357	
255.00	-59.861	-7.201	
256.00	-59.156	-31.036	
257.00	-59.391	-52.314	
258.00	-58.645	-70.587	
259.00	-58.318	-87.050	
260.00	-57.812	-101.579	
261.00	-57.644	-116.311	
262.00	-57.796	-129.703	
263.00	-58.245	-144.355	
264.00	-59.612	-158.963	
265.00	-60.446	-171.543	
266.00	-61.851	172.545	
267.00	-64.059	142.114	
268.00	-65.236	131.229	
269.00	-68.303	106.353	
270.00	-71.721	69.060	
271.00	-73.291	30.473	
272.00	-72.269	-26.421	
273.00	-70.626	-71.508	
274.00	-66.736	-106.131	
275.00	-64.245	-126.294	
276.00	-64.619	-125.214	
277.00	-62.625	-148.856	
278.00	-63.244	-156.803	
279.00	-63.725	-172.591	
280.00	-64.650	172.157	
281.00	-64.912	151.760	
282.00	-65.884	156.037	
283.00	-65.907	151.199	
284.00	-67.731	155.595	
285.00	-70.741	151.975	
286.00	-68.004	169.881	
287.00	-66.031	165.912	
288.00	-68.218	164.406	
289.00	-67.929	148.623	
290.00	-67.420	137.702	
291.00	-66.276	120.437	
292.00	-64.752	99.490	
293.00	-66.078	87.462	
294.00	-65.632	78.574	
295.00	-65.928	73.565	
296.00	-65.616	68.913	
297.00	-65.289	61.840	
298.00	-67.654	56.095	
299.00	-69.669	48.671	
300.00	-73.888	46.586	
301.00	-82.548	-11.158	
302.00	-77.255	-114.943	
303.00	-70.482	-144.645	
304.00	-65.143	-154.893	
305.00	-64.564	-176.446	
306.00	-62.987	165.516	
307.00	-62.892	143.753	
308.00	-61.434	123.815	
309.00	-61.217	107.194	
310.00	-60.571	85.107	
311.00	-60.058	72.343	
312.00	-60.307	58.462	
313.00	-60.528	44.007	
314.00	-61.167	34.411	
315.00	-62.182	22.576	
316.00	-63.089	5.026	
317.00	-64.179	-1.528	
318.00	-64.968	-7.378	
319.00	-66.676	-17.553	
320.00	-66.861	-10.870	
321.00	-66.097	-8.510	
322.00	-66.475	-2.823	
323.00	-64.943	-10.217	
324.00	-64.670	-19.960	
325.00	-65.921	-38.759	
326.00	-68.417	-56.923	
327.00	-71.144	-89.495	
328.00	-73.009	-139.971	
329.00	-72.566	-178.752	
330.00	-70.602	167.095	
331.00	-68.777	153.817	
332.00	-68.787	149.747	
333.00	-67.367	139.561	
334.00	-68.936	136.211	
335.00	-68.091	122.752	
336.00	-67.716	102.456	
337.00	-70.042	81.049	
338.00	-70.030	49.941	
339.00	-70.281	14.462	
340.00	-69.226	-14.906	
341.00	-67.621	-43.011	
342.00	-67.763	-74.602	
343.00	-66.073	-92.041	
344.00	-66.260	-102.721	
345.00	-69.699	-109.385	
346.00	-68.545	-121.844	
347.00	-74.385	-109.316	
348.00	-73.518	-96.096	
349.00	-74.950	-61.046	
350.00	-72.368	-39.742	
351.00	-70.510	-37.109	
352.00	-70.151	-51.653	
353.00	-74.444	-50.066	
354.00	-71.894	-77.921	
355.00	-82.048	-37.717	
356.00	-75.143	21.466	
357.00	-69.829	48.148	
358.00	-67.497	46.209	
359.00	-65.248	47.179	
Frequency	2600.00	MHz	
Channel	test		
Scan Axis name	Azimuth  [deg]		
Scan Axis	Amplitude	Phase	
			
0.00	-64.653	-67.856	
1.00	-62.696	-85.879	
2.00	-61.163	-103.051	
3.00	-59.628	-114.816	
4.00	-58.445	-122.442	
5.00	-58.001	-123.611	
6.00	-58.150	-118.978	
7.00	-58.927	-119.033	
8.00	-60.222	-114.308	
9.00	-61.876	-113.301	
10.00	-64.372	-108.185	
11.00	-67.740	-114.930	
12.00	-67.974	-104.224	
13.00	-69.080	-111.035	
14.00	-70.179	-125.440	
15.00	-70.048	-129.615	
16.00	-70.717	-143.230	
17.00	-72.202	-140.464	
18.00	-76.493	-157.019	
19.00	-82.032	-143.884	
20.00	-73.588	149.155	
21.00	-70.524	131.376	
22.00	-66.472	137.881	
23.00	-66.728	146.160	
24.00	-65.379	147.733	
25.00	-66.341	162.166	
26.00	-68.403	164.443	
27.00	-71.203	-175.863	
28.00	-76.042	-174.674	
29.00	-75.814	-121.930	
30.00	-79.771	30.147	
31.00	-76.192	30.553	
32.00	-70.394	68.515	
33.00	-65.993	94.068	
34.00	-65.750	126.055	
35.00	-66.666	130.751	
36.00	-68.462	170.205	
37.00	-70.334	-164.282	
38.00	-68.958	-107.909	
39.00	-68.503	-86.858	
40.00	-66.913	-60.340	
41.00	-66.344	-56.103	
42.00	-67.052	-50.045	
43.00	-70.637	-43.214	
44.00	-69.083	-47.335	
45.00	-71.858	-55.811	
46.00	-70.673	-82.331	
47.00	-71.200	-95.340	
48.00	-67.193	-96.664	
49.00	-66.257	-88.147	
50.00	-65.580	-81.411	
51.00	-65.551	-76.354	
52.00	-65.766	-64.105	
53.00	-66.431	-56.539	
54.00	-69.150	-39.888	
55.00	-71.241	-21.996	
56.00	-75.931	-19.813	
57.00	-74.301	-16.211	
58.00	-79.184	-16.600	
59.00	-74.544	16.890	
60.00	-71.912	42.430	
61.00	-69.134	77.462	
62.00	-66.791	96.820	
63.00	-65.684	123.295	
64.00	-65.533	147.003	
65.00	-64.453	172.152	
66.00	-65.444	-157.631	
67.00	-63.640	-122.763	
68.00	-63.318	-103.660	
69.00	-62.270	-86.418	
70.00	-62.119	-72.513	
71.00	-64.079	-72.813	
72.00	-65.303	-78.721	
73.00	-65.629	-95.228	
74.00	-64.274	-106.423	
75.00	-63.680	-105.035	
76.00	-62.056	-92.718	
77.00	-61.431	-80.620	
78.00	-61.934	-61.114	
79.00	-61.049	-40.896	
80.00	-60.773	-12.603	
81.00	-60.749	12.831	
82.00	-60.744	32.332	
83.00	-61.111	55.370	
84.00	-61.145	87.412	
85.00	-61.272	116.372	
86.00	-60.089	144.109	
87.00	-59.694	164.385	
88.00	-59.232	-173.808	
89.00	-58.722	-150.187	
90.00	-58.863	-128.844	
91.00	-58.561	-108.467	
92.00	-58.022	-83.083	
93.00	-57.489	-62.434	
94.00	-57.185	-41.934	
95.00	-57.046	-21.711	
96.00	-57.076	-1.142	
97.00	-57.418	19.191	
98.00	-57.341	45.868	
99.00	-56.854	68.329	
100.00	-56.631	95.910	
101.00	-56.164	126.406	
102.00	-55.467	147.072	
103.00	-55.204	169.614	
104.00	-55.830	-172.017	
105.00	-56.209	-151.875	
106.00	-56.584	-133.919	
107.00	-56.747	-112.076	
108.00	-58.286	-94.167	
109.00	-58.087	-74.630	
110.00	-58.362	-64.457	
111.00	-59.706	-60.654	
112.00	-60.374	-59.543	
113.00	-60.913	-60.383	
114.00	-60.780	-72.502	
115.00	-60.465	-76.164	
116.00	-59.186	-81.366	
117.00	-59.973	-77.916	
118.00	-59.622	-72.257	
119.00	-60.846	-78.529	
120.00	-61.542	-83.231	
121.00	-61.701	-92.693	
122.00	-59.875	-89.670	
123.00	-59.132	-86.571	
124.00	-56.914	-71.274	
125.00	-55.471	-54.508	
126.00	-54.291	-39.447	
127.00	-53.268	-20.298	
128.00	-52.961	-6.453	
129.00	-52.828	6.562	
130.00	-54.423	16.202	
131.00	-58.207	16.565	
132.00	-61.307	-15.035	
133.00	-56.502	-59.403	
134.00	-51.152	-64.151	
135.00	-47.590	-57.683	
136.00	-45.425	-48.279	
137.00	-44.113	-35.436	
138.00	-43.303	-23.157	
139.00	-43.491	-9.058	
140.00	-44.034	4.892	
141.00	-45.341	20.911	
142.00	-47.644	38.242	
143.00	-51.255	57.243	
144.00	-59.751	89.174	
145.00	-60.181	-133.572	
146.00	-51.420	-102.841	
147.00	-47.505	-87.455	
148.00	-45.521	-73.417	
149.00	-44.683	-60.539	
150.00	-44.518	-47.876	
151.00	-44.794	-37.890	
152.00	-45.699	-27.916	
153.00	-47.464	-21.267	
154.00	-49.786	-16.803	
155.00	-52.842	-17.839	
156.00	-55.241	-27.001	
157.00	-56.034	-43.144	
158.00	-55.427	-57.238	
159.00	-54.167	-66.758	
160.00	-53.285	-74.469	
161.00	-52.236	-82.907	
162.00	-51.102	-94.531	
163.00	-49.647	-104.982	
164.00	-48.558	-112.484	
165.00	-47.655	-116.421	
166.00	-47.361	-121.644	
167.00	-47.672	-130.066	
168.00	-48.187	-141.355	
169.00	-48.595	-151.948	
170.00	-48.945	-155.331	
171.00	-49.364	-147.234	
172.00	-48.382	-118.514	
173.00	-44.264	-90.687	
174.00	-39.382	-74.255	
175.00	-35.430	-65.953	
176.00	-32.305	-62.083	
177.00	-29.912	-59.090	
178.00	-28.231	-55.954	
179.00	-27.108	-53.917	
180.00	-26.569	-52.886	
181.00	-26.606	-52.534	
182.00	-27.241	-51.705	
183.00	-28.491	-50.018	
184.00	-30.536	-49.042	
185.00	-33.549	-45.439	
186.00	-38.062	-37.646	
187.00	-44.545	-10.379	
188.00	-46.707	53.920	
189.00	-43.723	84.055	
190.00	-42.951	91.689	
191.00	-44.488	95.685	
192.00	-48.486	103.082	
193.00	-57.602	130.791	
194.00	-55.225	-130.198	
195.00	-50.520	-115.656	
196.00	-49.956	-113.361	
197.00	-52.829	-109.490	
198.00	-62.024	-77.956	
199.00	-55.429	26.300	
200.00	-49.141	30.599	
201.00	-46.681	26.797	
202.00	-46.142	18.770	
203.00	-47.618	8.327	
204.00	-52.091	-10.727	
205.00	-58.590	-98.389	
206.00	-49.730	-162.700	
207.00	-44.364	179.684	
208.00	-41.521	169.380	
209.00	-40.271	158.556	
210.00	-39.795	149.455	
211.00	-40.402	140.931	
212.00	-41.866	132.921	
213.00	-44.404	125.765	
214.00	-48.919	124.331	
215.00	-56.149	151.364	
216.00	-54.178	-137.313	
217.00	-48.819	-128.102	
218.00	-46.138	-133.474	
219.00	-44.873	-142.432	
220.00	-44.445	-152.536	
221.00	-44.456	-163.742	
222.00	-44.840	-174.377	
223.00	-45.537	173.260	
224.00	-46.506	162.737	
225.00	-47.597	151.848	
226.00	-49.054	142.003	
227.00	-50.814	131.364	
228.00	-52.375	121.342	
229.00	-55.183	111.709	
230.00	-57.624	103.520	
231.00	-61.195	96.740	
232.00	-64.320	106.375	
233.00	-69.042	134.056	
234.00	-62.996	153.420	
235.00	-60.781	149.498	
236.00	-59.200	136.952	
237.00	-57.407	115.498	
238.00	-56.086	94.750	
239.00	-55.002	66.779	
240.00	-54.069	47.089	
241.00	-52.675	26.418	
242.00	-52.488	7.262	
243.00	-52.277	-11.612	
244.00	-52.261	-29.899	
245.00	-52.243	-45.083	
246.00	-52.512	-61.924	
247.00	-53.215	-80.886	
248.00	-54.334	-97.133	
249.00	-55.110	-112.669	
250.00	-56.216	-128.134	
251.00	-58.066	-145.789	
252.00	-60.597	-157.392	
253.00	-62.519	-176.507	
254.00	-64.619	168.647	
255.00	-66.723	136.401	
256.00	-66.162	115.929	
257.00	-65.156	86.123	
258.00	-63.606	64.258	
259.00	-62.928	60.242	
260.00	-61.252	42.293	
261.00	-60.870	29.370	
262.00	-60.237	16.817	
263.00	-60.864	-0.238	
264.00	-61.439	-15.007	
265.00	-61.870	-32.183	
266.00	-63.160	-52.612	
267.00	-64.685	-72.668	
268.00	-65.422	-96.825	
269.00	-65.331	-116.126	
270.00	-68.952	-133.656	
271.00	-72.083	-149.964	
272.00	-73.285	170.106	
273.00	-81.477	115.444	
274.00	-76.428	35.257	
275.00	-76.394	30.334	
276.00	-79.246	7.075	
277.00	-83.435	-19.382	
278.00	-94.422	-121.116	
279.00	-69.931	177.186	
280.00	-77.082	168.105	
281.00	-74.097	134.631	
282.00	-75.228	106.441	
283.00	-71.483	80.181	
284.00	-69.071	61.916	
285.00	-68.180	50.632	
286.00	-69.869	27.578	
287.00	-70.616	-16.293	
288.00	-71.131	-56.469	
289.00	-72.468	-85.407	
290.00	-72.724	-107.812	
291.00	-72.887	-119.536	
292.00	-74.406	-133.518	
293.00	-77.505	120.714	
294.00	-74.232	41.100	
295.00	-70.244	25.206	
296.00	-68.018	6.919	
297.00	-69.340	-9.624	
298.00	-69.875	-34.289	
299.00	-73.573	-83.316	
300.00	-70.491	-154.853	
301.00	-66.341	162.654	
302.00	-63.292	136.478	
303.00	-60.739	118.887	
304.00	-59.673	99.412	
305.00	-59.105	78.952	
306.00	-59.644	56.850	
307.00	-60.219	29.913	
308.00	-60.420	0.197	
309.00	-60.277	-29.622	
310.00	-59.686	-57.425	
311.00	-58.961	-82.974	
312.00	-58.715	-98.071	
313.00	-59.445	-118.163	
314.00	-60.612	-131.996	
315.00	-62.560	-147.362	
316.00	-65.606	-161.490	
317.00	-68.100	-171.680	
318.00	-70.109	-170.392	
319.00	-75.267	-178.297	
320.00	-72.398	-161.539	
321.00	-74.192	-153.989	
322.00	-69.483	179.267	
323.00	-66.883	172.442	
324.00	-64.932	139.912	
325.00	-64.878	116.538	
326.00	-64.520	86.487	
327.00	-64.550	55.200	
328.00	-64.098	19.634	
329.00	-62.488	-9.965	
330.00	-61.379	-31.234	
331.00	-61.165	-52.269	
332.00	-60.927	-72.970	
333.00	-60.653	-81.932	
334.00	-61.801	-94.029	
335.00	-63.149	-107.991	
336.00	-66.071	-118.656	
337.00	-68.044	-152.714	
338.00	-68.965	173.042	
339.00	-65.996	150.269	
340.00	-65.255	128.043	
341.00	-62.991	121.703	
342.00	-62.060	115.084	
343.00	-60.976	107.913	
344.00	-61.102	103.261	
345.00	-62.619	103.386	
346.00	-65.387	94.761	
347.00	-71.136	86.407	
348.00	-77.934	-157.218	
349.00	-68.852	-107.548	
350.00	-64.770	-110.200	
351.00	-63.731	-112.384	
352.00	-62.617	-116.239	
353.00	-64.858	-110.549	
354.00	-68.273	-101.772	
355.00	-70.555	-68.993	
356.00	-69.370	-25.964	
357.00	-67.665	-12.514	
358.00	-67.287	-18.477	
359.00	-66.515	-31.927	
Frequency	2650.00	MHz	
Channel	test		
Scan Axis name	Azimuth  [deg]		
Scan Axis	Amplitude	Phase	
			
0.00	-56.275	101.056	
1.00	-57.964	100.102	
2.00	-56.869	86.478	
3.00	-59.976	71.004	
4.00	-60.758	73.282	
5.00	-65.461	61.610	
6.00	-66.553	42.650	
7.00	-62.120	86.969	
8.00	-63.551	96.635	
9.00	-64.724	92.339	
10.00	-62.956	119.294	
11.00	-62.151	90.315	
12.00	-62.277	57.622	
13.00	-69.245	93.462	
14.00	-83.797	31.608	
15.00	-68.812	59.384	
16.00	-76.838	-128.283	
17.00	-69.351	-64.703	
18.00	-72.162	-68.604	
19.00	-70.625	-128.827	
20.00	-78.807	-171.921	
21.00	-69.878	-42.744	
22.00	-68.166	-89.624	
23.00	-84.964	121.926	
24.00	-77.740	-89.454	
25.00	-66.785	-37.928	
26.00	-70.115	-8.924	
27.00	-68.191	-19.919	
28.00	-68.861	-59.784	
29.00	-65.397	-73.485	
30.00	-62.307	-79.402	
31.00	-63.678	-72.223	
32.00	-62.473	-90.567	
33.00	-60.900	-92.440	
34.00	-59.564	-105.735	
35.00	-62.015	-107.182	
36.00	-60.960	-106.332	
37.00	-60.720	-110.357	
38.00	-62.336	-93.291	
39.00	-64.815	-94.273	
40.00	-65.795	-84.709	
41.00	-70.599	-34.452	
42.00	-73.669	-16.683	
43.00	-73.162	23.538	
44.00	-68.000	82.316	
45.00	-67.158	75.911	
46.00	-66.400	78.987	
47.00	-64.773	88.790	
48.00	-68.976	56.299	
49.00	-67.839	47.886	
50.00	-69.870	23.734	
51.00	-68.563	45.003	
52.00	-78.961	115.518	
53.00	-71.265	111.243	
54.00	-85.130	10.817	
55.00	-70.647	-145.620	
56.00	-68.276	-96.215	
57.00	-68.676	-127.560	
58.00	-65.787	-119.140	
59.00	-66.473	-126.925	
60.00	-67.329	-118.037	
61.00	-66.352	-132.598	
62.00	-66.066	-131.986	
63.00	-66.323	-126.118	
64.00	-71.784	-147.282	
65.00	-73.653	-137.738	
66.00	-84.154	116.876	
67.00	-67.246	86.604	
68.00	-66.252	79.340	
69.00	-61.921	99.614	
70.00	-62.111	116.437	
71.00	-65.096	126.058	
72.00	-71.814	-179.880	
73.00	-65.561	-153.529	
74.00	-68.638	-117.347	
75.00	-68.104	-86.143	
76.00	-68.016	-66.617	
77.00	-71.732	-12.689	
78.00	-68.668	24.814	
79.00	-67.958	49.593	
80.00	-63.042	81.461	
81.00	-64.956	132.419	
82.00	-64.506	120.608	
83.00	-64.903	130.675	
84.00	-69.689	158.753	
85.00	-63.685	-179.327	
86.00	-63.080	-137.126	
87.00	-66.678	-145.850	
88.00	-65.665	-123.664	
89.00	-65.614	-89.094	
90.00	-64.429	-48.108	
91.00	-63.786	-26.778	
92.00	-62.371	-8.285	
93.00	-60.418	1.552	
94.00	-58.941	20.492	
95.00	-59.312	37.912	
96.00	-60.500	52.132	
97.00	-61.014	66.225	
98.00	-61.637	93.474	
99.00	-63.939	127.820	
100.00	-63.456	162.425	
101.00	-63.899	-139.573	
102.00	-61.754	-114.495	
103.00	-59.681	-85.231	
104.00	-59.933	-70.761	
105.00	-56.738	-37.523	
106.00	-57.321	-31.482	
107.00	-57.790	-12.925	
108.00	-58.259	9.470	
109.00	-59.578	15.079	
110.00	-60.093	16.689	
111.00	-63.571	20.922	
112.00	-66.214	32.309	
113.00	-69.271	54.787	
114.00	-67.307	12.864	
115.00	-66.861	17.845	
116.00	-71.946	19.091	
117.00	-68.160	57.445	
118.00	-65.361	75.614	
119.00	-68.363	98.854	
120.00	-72.822	80.652	
121.00	-73.710	130.110	
122.00	-74.184	21.231	
123.00	-63.542	61.267	
124.00	-61.052	37.911	
125.00	-57.720	64.945	
126.00	-57.037	76.377	
127.00	-53.921	99.167	
128.00	-53.192	119.890	
129.00	-52.311	137.450	
130.00	-52.215	154.587	
131.00	-52.857	174.219	
132.00	-54.642	-178.957	
133.00	-58.347	-161.292	
134.00	-73.825	176.193	
135.00	-60.929	72.137	
136.00	-55.235	85.683	
137.00	-51.086	95.221	
138.00	-49.029	108.174	
139.00	-47.557	124.459	
140.00	-46.860	137.118	
141.00	-46.716	150.394	
142.00	-47.841	161.596	
143.00	-49.972	171.164	
144.00	-54.677	174.336	
145.00	-65.565	135.573	
146.00	-56.493	61.115	
147.00	-50.735	58.203	
148.00	-48.110	65.353	
149.00	-46.533	74.056	
150.00	-46.235	89.406	
151.00	-46.061	98.371	
152.00	-47.023	108.349	
153.00	-48.280	118.435	
154.00	-50.269	118.520	
155.00	-53.240	121.580	
156.00	-54.544	110.166	
157.00	-55.755	95.678	
158.00	-53.441	89.470	
159.00	-52.954	87.611	
160.00	-52.663	80.575	
161.00	-52.492	76.714	
162.00	-51.187	66.346	
163.00	-50.762	59.747	
164.00	-50.286	45.964	
165.00	-48.627	43.487	
166.00	-48.148	40.313	
167.00	-47.857	36.605	
168.00	-48.577	31.496	
169.00	-49.939	33.054	
170.00	-52.829	43.769	
171.00	-52.154	58.188	
172.00	-49.036	77.102	
173.00	-45.268	91.007	
174.00	-40.935	94.502	
175.00	-37.505	97.583	
176.00	-34.679	98.650	
177.00	-32.615	98.549	
178.00	-31.092	100.208	
179.00	-30.277	101.057	
180.00	-29.846	102.092	
181.00	-30.084	102.232	
182.00	-30.986	101.758	
183.00	-32.715	104.198	
184.00	-35.202	104.960	
185.00	-39.258	111.463	
186.00	-45.680	124.055	
187.00	-53.309	-169.419	
188.00	-47.506	-114.893	
189.00	-45.492	-105.634	
190.00	-44.962	-103.187	
191.00	-47.818	-98.336	
192.00	-52.501	-92.977	
193.00	-59.733	-46.557	
194.00	-59.076	29.198	
195.00	-55.649	52.528	
196.00	-54.017	64.860	
197.00	-56.749	86.983	
198.00	-56.157	127.338	
199.00	-51.888	146.016	
200.00	-50.413	153.465	
201.00	-50.330	151.008	
202.00	-51.508	144.018	
203.00	-54.701	114.103	
204.00	-59.293	48.758	
205.00	-50.394	-3.261	
206.00	-46.559	-22.836	
207.00	-44.184	-33.304	
208.00	-43.007	-43.088	
209.00	-42.758	-49.868	
210.00	-43.473	-56.496	
211.00	-45.370	-57.746	
212.00	-48.191	-54.008	
213.00	-51.654	-33.165	
214.00	-51.544	-1.750	
215.00	-48.068	17.548	
216.00	-46.457	20.556	
217.00	-45.927	15.018	
218.00	-45.066	6.767	
219.00	-45.274	-2.317	
220.00	-45.996	-5.301	
221.00	-46.599	-15.918	
222.00	-48.550	-26.830	
223.00	-50.504	-37.292	
224.00	-52.290	-42.677	
225.00	-53.788	-50.119	
226.00	-58.144	-55.500	
227.00	-60.567	-26.420	
228.00	-63.766	-50.034	
229.00	-63.710	-38.089	
230.00	-64.537	-45.802	
231.00	-64.361	-18.853	
232.00	-67.003	-26.167	
233.00	-60.834	-55.022	
234.00	-58.781	-67.837	
235.00	-59.404	-84.821	
236.00	-56.776	-106.175	
237.00	-56.425	-119.116	
238.00	-55.654	-139.602	
239.00	-56.941	-160.089	
240.00	-55.570	179.598	
241.00	-55.792	159.235	
242.00	-56.650	132.811	
243.00	-57.825	108.270	
244.00	-57.693	81.580	
245.00	-58.777	48.751	
246.00	-57.557	24.432	
247.00	-57.568	-0.021	
248.00	-58.207	-10.767	
249.00	-58.049	-25.528	
250.00	-58.428	-30.631	
251.00	-59.482	-40.573	
252.00	-61.546	-40.069	
253.00	-61.454	-59.890	
254.00	-62.569	-56.135	
255.00	-61.398	-60.585	
256.00	-65.012	-96.925	
257.00	-66.701	-133.124	
258.00	-64.364	-157.351	
259.00	-64.329	-162.725	
260.00	-65.356	147.193	
261.00	-61.984	158.584	
262.00	-66.803	110.287	
263.00	-64.869	95.344	
264.00	-62.826	37.474	
265.00	-62.440	16.175	
266.00	-62.990	10.383	
267.00	-62.114	-21.479	
268.00	-61.151	-40.424	
269.00	-61.662	-56.168	
270.00	-64.502	-85.413	
271.00	-64.344	-107.987	
272.00	-65.538	-140.275	
273.00	-67.094	-175.431	
274.00	-64.705	163.783	
275.00	-72.408	121.048	
276.00	-76.194	113.324	
277.00	-69.676	98.637	
278.00	-68.051	-0.505	
279.00	-66.556	-39.469	
280.00	-65.256	-57.872	
281.00	-60.868	-60.698	
282.00	-62.212	-68.895	
283.00	-62.774	-106.235	
284.00	-65.222	-130.771	
285.00	-64.012	-157.947	
286.00	-66.131	-150.854	
287.00	-65.395	176.378	
288.00	-72.659	155.909	
289.00	-74.672	162.600	
290.00	-80.934	28.487	
291.00	-74.840	-7.906	
292.00	-73.211	110.955	
293.00	-70.325	62.639	
294.00	-76.364	31.552	
295.00	-69.544	79.062	
296.00	-72.736	71.201	
297.00	-68.409	58.434	
298.00	-62.817	39.680	
299.00	-60.851	38.343	
300.00	-58.901	-4.932	
301.00	-63.108	-3.744	
302.00	-62.302	-9.011	
303.00	-62.521	-47.204	
304.00	-61.059	-69.561	
305.00	-63.762	-59.895	
306.00	-65.670	-109.289	
307.00	-68.386	-129.552	
308.00	-63.801	-173.229	
309.00	-68.843	140.780	
310.00	-70.607	142.905	
311.00	-64.854	132.782	
312.00	-67.975	66.106	
313.00	-66.374	75.952	
314.00	-64.862	76.824	
315.00	-65.663	49.570	
316.00	-65.737	44.825	
317.00	-66.775	41.226	
318.00	-68.517	41.397	
319.00	-61.475	28.435	
320.00	-65.835	-2.441	
321.00	-65.244	1.221	
322.00	-66.582	-12.686	
323.00	-64.976	4.693	
324.00	-62.341	-73.030	
325.00	-62.715	-65.477	
326.00	-64.336	-86.355	
327.00	-61.864	-86.947	
328.00	-64.310	-130.462	
329.00	-67.026	-141.665	
330.00	-70.827	113.564	
331.00	-60.077	-132.600	
332.00	-67.720	-120.336	
333.00	-65.564	-126.187	
334.00	-74.428	-29.972	
335.00	-71.709	-140.702	
336.00	-79.022	-40.502	
337.00	-62.061	-39.617	
338.00	-66.525	-28.381	
339.00	-62.377	-44.711	
340.00	-61.699	-21.609	
341.00	-69.947	-111.440	
342.00	-65.405	-64.024	
343.00	-61.793	-83.002	
344.00	-66.853	-85.896	
345.00	-60.606	-69.866	
346.00	-66.719	-152.748	
347.00	-62.242	-138.356	
348.00	-64.755	149.557	
349.00	-70.609	-45.233	
350.00	-66.064	-56.483	
351.00	-61.407	19.681	
352.00	-65.431	-21.896	
353.00	-68.028	-31.619	
354.00	-79.225	-16.914	
355.00	-63.396	-152.411	
356.00	-65.007	156.920	
357.00	-71.897	50.690	
358.00	-64.315	109.657	
359.00	-59.329	94.576	
Frequency	2700.00	MHz	
Channel	test		
Scan Axis name	Azimuth  [deg]		
Scan Axis	Amplitude	Phase	
			
0.00	-60.185	-148.127	
1.00	-62.155	-146.863	
2.00	-61.162	-146.393	
3.00	-62.856	-146.774	
4.00	-65.487	-130.688	
5.00	-71.132	-99.457	
6.00	-70.798	-77.473	
7.00	-72.066	-48.070	
8.00	-69.006	-29.140	
9.00	-69.952	-26.853	
10.00	-71.448	-14.617	
11.00	-67.069	27.247	
12.00	-65.724	39.127	
13.00	-64.902	43.046	
14.00	-64.033	47.085	
15.00	-64.219	45.657	
16.00	-64.186	50.277	
17.00	-65.882	47.680	
18.00	-67.101	74.380	
19.00	-68.082	97.901	
20.00	-72.640	140.922	
21.00	-64.292	170.471	
22.00	-61.260	-172.102	
23.00	-59.201	-176.575	
24.00	-58.056	-170.291	
25.00	-58.248	-172.245	
26.00	-59.354	-164.240	
27.00	-60.345	-162.319	
28.00	-63.465	-146.593	
29.00	-67.119	-155.586	
30.00	-77.592	-131.268	
31.00	-81.972	75.545	
32.00	-73.021	36.043	
33.00	-70.122	51.432	
34.00	-66.294	60.262	
35.00	-66.047	63.657	
36.00	-69.315	75.576	
37.00	-67.645	100.941	
38.00	-72.844	120.733	
39.00	-76.706	79.438	
40.00	-79.619	155.105	
41.00	-79.019	31.301	
42.00	-75.593	28.398	
43.00	-76.093	98.616	
44.00	-80.059	164.931	
45.00	-73.112	166.620	
46.00	-73.957	-164.668	
47.00	-76.155	-140.375	
48.00	-77.260	-83.700	
49.00	-73.615	-48.889	
50.00	-73.988	-26.806	
51.00	-73.411	6.781	
52.00	-72.788	14.874	
53.00	-68.770	37.419	
54.00	-68.469	41.566	
55.00	-68.904	57.056	
56.00	-67.930	63.709	
57.00	-68.378	76.686	
58.00	-69.785	87.745	
59.00	-70.935	115.515	
60.00	-71.781	159.878	
61.00	-69.775	-169.583	
62.00	-71.060	-141.986	
63.00	-67.765	-103.127	
64.00	-68.921	-91.269	
65.00	-66.557	-101.899	
66.00	-68.691	-82.590	
67.00	-72.253	-61.409	
68.00	-85.154	108.684	
69.00	-81.286	99.574	
70.00	-72.945	109.795	
71.00	-66.111	134.173	
72.00	-64.280	146.212	
73.00	-63.168	149.997	
74.00	-63.185	170.365	
75.00	-63.215	-172.402	
76.00	-62.746	-143.204	
77.00	-61.452	-131.244	
78.00	-60.690	-108.277	
79.00	-64.274	-104.144	
80.00	-71.615	-70.610	
81.00	-60.377	-35.847	
82.00	-62.765	13.550	
83.00	-63.452	-6.928	
84.00	-70.986	80.852	
85.00	-62.040	-119.502	
86.00	-64.728	-170.268	
87.00	-64.319	-105.986	
88.00	-65.685	-84.485	
89.00	-73.879	90.781	
90.00	-78.773	-70.087	
91.00	-73.095	91.091	
92.00	-72.891	96.067	
93.00	-68.137	110.137	
94.00	-64.483	126.544	
95.00	-65.138	139.846	
96.00	-66.728	-179.452	
97.00	-66.193	-155.457	
98.00	-64.614	-125.120	
99.00	-64.433	-80.019	
100.00	-62.372	-40.305	
101.00	-60.136	-11.836	
102.00	-58.772	11.971	
103.00	-58.494	40.204	
104.00	-58.236	58.819	
105.00	-57.507	89.938	
106.00	-58.712	109.953	
107.00	-58.112	132.397	
108.00	-58.065	155.047	
109.00	-58.992	-175.031	
110.00	-58.092	-151.448	
111.00	-58.326	-129.469	
112.00	-59.025	-102.777	
113.00	-58.992	-85.400	
114.00	-59.181	-70.196	
115.00	-59.870	-62.833	
116.00	-60.616	-61.818	
117.00	-60.773	-56.270	
118.00	-62.872	-44.778	
119.00	-62.885	-34.785	
120.00	-66.003	-12.543	
121.00	-68.526	2.621	
122.00	-64.382	62.591	
123.00	-63.671	104.604	
124.00	-62.127	129.504	
125.00	-63.404	153.426	
126.00	-59.808	-151.519	
127.00	-58.269	-118.084	
128.00	-55.272	-86.185	
129.00	-52.966	-69.090	
130.00	-51.271	-50.620	
131.00	-50.279	-30.122	
132.00	-50.750	-15.372	
133.00	-51.445	5.093	
134.00	-53.503	23.736	
135.00	-56.495	57.189	
136.00	-66.800	103.176	
137.00	-61.608	-149.904	
138.00	-54.281	-111.987	
139.00	-50.604	-96.637	
140.00	-47.608	-81.460	
141.00	-47.058	-61.366	
142.00	-46.537	-45.699	
143.00	-46.824	-31.646	
144.00	-48.741	-16.112	
145.00	-51.565	-4.085	
146.00	-57.062	13.213	
147.00	-66.688	149.819	
148.00	-56.059	-162.785	
149.00	-51.131	-141.270	
150.00	-49.584	-125.662	
151.00	-48.953	-109.814	
152.00	-48.588	-93.553	
153.00	-49.211	-77.899	
154.00	-50.513	-64.857	
155.00	-52.428	-51.116	
156.00	-55.513	-31.656	
157.00	-59.787	-22.046	
158.00	-61.743	-8.910	
159.00	-68.614	65.253	
160.00	-71.828	41.822	
161.00	-71.810	103.502	
162.00	-68.963	167.181	
163.00	-60.927	143.245	
164.00	-55.427	160.178	
165.00	-53.639	170.352	
166.00	-52.395	177.600	
167.00	-51.653	-172.675	
168.00	-51.793	-160.118	
169.00	-52.828	-147.892	
170.00	-53.573	-126.241	
171.00	-55.231	-104.961	
172.00	-54.977	-94.041	
173.00	-52.156	-103.081	
174.00	-48.001	-113.314	
175.00	-44.140	-118.122	
176.00	-40.609	-122.788	
177.00	-37.643	-126.935	
178.00	-35.688	-128.038	
179.00	-34.379	-128.688	
180.00	-33.831	-130.069	
181.00	-33.893	-131.700	
182.00	-34.636	-133.481	
183.00	-36.162	-134.652	
184.00	-38.893	-137.690	
185.00	-43.018	-140.246	
186.00	-51.142	-154.013	
187.00	-62.441	63.283	
188.00	-50.867	41.749	
189.00	-48.644	33.147	
190.00	-49.094	30.287	
191.00	-51.776	26.980	
192.00	-58.798	2.258	
193.00	-72.249	-177.890	
194.00	-57.443	-178.519	
195.00	-57.165	175.817	
196.00	-60.233	158.819	
197.00	-64.848	108.790	
198.00	-58.646	-0.669	
199.00	-53.804	-2.430	
200.00	-52.450	-19.543	
201.00	-52.581	-24.891	
202.00	-56.375	-23.602	
203.00	-74.215	28.166	
204.00	-54.193	110.453	
205.00	-48.675	105.282	
206.00	-45.457	101.826	
207.00	-44.263	91.692	
208.00	-43.890	80.034	
209.00	-44.659	68.763	
210.00	-46.693	57.932	
211.00	-50.895	40.023	
212.00	-58.743	5.030	
213.00	-57.427	-121.874	
214.00	-50.324	-147.448	
215.00	-48.230	-166.374	
216.00	-46.284	-179.611	
217.00	-45.432	163.440	
218.00	-45.779	150.855	
219.00	-46.778	135.917	
220.00	-47.793	124.454	
221.00	-49.641	106.737	
222.00	-51.822	90.309	
223.00	-53.518	80.415	
224.00	-55.843	59.007	
225.00	-58.583	40.309	
226.00	-60.931	14.218	
227.00	-61.457	-16.849	
228.00	-60.897	-30.339	
229.00	-60.048	-59.152	
230.00	-60.917	-79.685	
231.00	-60.360	-92.639	
232.00	-62.088	-119.132	
233.00	-61.822	-126.589	
234.00	-64.256	-143.062	
235.00	-69.604	173.787	
236.00	-82.613	166.115	
237.00	-67.722	-51.006	
238.00	-62.402	-53.561	
239.00	-59.072	-49.634	
240.00	-56.665	-69.991	
241.00	-56.177	-81.115	
242.00	-55.541	-90.482	
243.00	-54.632	-101.478	
244.00	-56.185	-114.147	
245.00	-56.487	-124.029	
246.00	-56.421	-136.424	
247.00	-56.696	-145.905	
248.00	-56.661	-157.373	
249.00	-56.420	-172.552	
250.00	-56.258	172.090	
251.00	-55.711	156.449	
252.00	-55.743	141.824	
253.00	-55.682	123.666	
254.00	-55.406	101.220	
255.00	-55.718	78.866	
256.00	-55.812	57.501	
257.00	-55.655	26.721	
258.00	-56.330	4.104	
259.00	-56.040	-23.415	
260.00	-55.740	-48.052	
261.00	-55.684	-73.013	
262.00	-55.509	-97.761	
263.00	-56.208	-119.152	
264.00	-56.045	-144.838	
265.00	-56.947	-167.286	
266.00	-57.637	164.703	
267.00	-58.617	139.575	
268.00	-59.359	113.049	
269.00	-61.603	80.809	
270.00	-62.207	54.534	
271.00	-63.232	13.003	
272.00	-63.850	-13.332	
273.00	-62.963	-67.910	
274.00	-63.107	-93.719	
275.00	-62.320	-124.735	
276.00	-61.292	-152.919	
277.00	-61.610	-169.379	
278.00	-61.282	162.723	
279.00	-61.215	135.976	
280.00	-61.672	123.156	
281.00	-64.456	111.545	
282.00	-65.160	85.331	
283.00	-69.345	60.993	
284.00	-73.729	62.461	
285.00	-74.732	-19.838	
286.00	-73.261	-112.819	
287.00	-86.807	-101.489	
288.00	-72.538	172.351	
289.00	-68.166	122.400	
290.00	-69.911	107.337	
291.00	-71.733	73.260	
292.00	-69.864	40.539	
293.00	-72.348	5.297	
294.00	-71.089	8.063	
295.00	-70.609	-47.954	
296.00	-68.156	-80.826	
297.00	-69.525	-100.971	
298.00	-64.930	-119.244	
299.00	-67.464	-142.472	
300.00	-66.314	-154.320	
301.00	-64.539	-171.992	
302.00	-65.011	165.318	
303.00	-63.423	151.787	
304.00	-62.477	139.224	
305.00	-62.678	119.899	
306.00	-62.602	105.305	
307.00	-63.290	82.024	
308.00	-63.138	56.441	
309.00	-63.226	35.586	
310.00	-63.714	13.452	
311.00	-63.125	-4.355	
312.00	-62.551	-24.674	
313.00	-64.128	-57.319	
314.00	-63.229	-75.385	
315.00	-62.997	-97.199	
316.00	-61.748	-117.204	
317.00	-63.091	-135.307	
318.00	-62.634	-143.705	
319.00	-63.187	-160.502	
320.00	-62.338	-170.724	
321.00	-63.447	-172.933	
322.00	-62.755	-173.368	
323.00	-62.716	-175.710	
324.00	-62.167	177.975	
325.00	-62.140	168.493	
326.00	-62.190	162.817	
327.00	-63.152	147.382	
328.00	-64.817	132.840	
329.00	-66.453	103.934	
330.00	-67.842	64.921	
331.00	-70.376	41.030	
332.00	-67.028	6.422	
333.00	-67.800	-24.506	
334.00	-72.628	-48.154	
335.00	-75.608	-127.127	
336.00	-73.549	179.045	
337.00	-64.183	128.450	
338.00	-62.755	122.683	
339.00	-61.580	106.070	
340.00	-59.819	81.997	
341.00	-58.109	81.481	
342.00	-58.577	71.597	
343.00	-59.345	63.224	
344.00	-62.044	56.994	
345.00	-65.587	61.707	
346.00	-69.144	54.734	
347.00	-76.697	99.020	
348.00	-70.248	142.379	
349.00	-71.399	131.764	
350.00	-69.859	148.505	
351.00	-68.342	126.673	
352.00	-72.711	128.788	
353.00	-76.165	95.466	
354.00	-74.639	154.417	
355.00	-75.869	-121.696	
356.00	-66.969	-129.465	
357.00	-63.519	-128.080	
358.00	-62.079	-136.490	
359.00	-60.981	-137.978	
