Test Title:	Alpha Wireless Indoor Range						
Date:	02/11/2017						
Time:	17:14						
Operator Name:	FL						
Comment:	Version 2 Run 2
Cable length changed						
Caib. File Name:	C:\Program Files\Midas 2.01d\Calibration Files\test sigma 180900.cal						
							
[Scan Axis] Name: 	Azimuth  [deg]Start: 	0.000000	Stop	359.000000	Increment	1.000000[Step Axis] Name: 	Start: 	0.000000	Stop	0.000000	Increment	0.000000[Tert] Name: 	None [Forth] Name: 	None  [ Freq.]  (List) 	MHz.	1694.000000	1710.000000	1800.000000	1850.000000	1950.000000	2050.000000	2170.000000	2300.000000	2350.000000	2400.000000	2450.000000	2496.000000	2550.000000	2600.000000	2650.000000	2700.000000
 [Switch]  	None [Channel]  	test			 [ Beam] 	None			
Database:			
First Question			
2nd			
3rd			
4th			
			
Frequency	1694.00	MHz	
Channel	test		
Scan Axis name	Azimuth  [deg]		
Scan Axis	Amplitude	Phase	
			
0.00	-61.384	-16.885	
1.00	-58.353	-11.742	
2.00	-57.865	-18.604	
3.00	-57.976	-23.961	
4.00	-57.161	-28.204	
5.00	-58.780	-30.844	
6.00	-60.329	-23.241	
7.00	-62.806	-25.476	
8.00	-67.438	-80.399	
9.00	-77.914	-122.155	
10.00	-66.604	144.111	
11.00	-65.697	163.750	
12.00	-60.923	171.757	
13.00	-62.394	142.162	
14.00	-62.352	153.791	
15.00	-62.472	163.897	
16.00	-63.187	167.873	
17.00	-67.472	-178.914	
18.00	-66.733	-150.156	
19.00	-72.312	-172.950	
20.00	-76.487	-178.889	
21.00	-92.498	173.819	
22.00	-74.871	95.310	
23.00	-69.109	79.007	
24.00	-64.351	84.746	
25.00	-62.916	97.961	
26.00	-61.084	105.145	
27.00	-59.839	116.662	
28.00	-59.036	127.264	
29.00	-58.662	142.129	
30.00	-59.690	142.689	
31.00	-60.523	166.682	
32.00	-61.253	177.995	
33.00	-59.932	-157.493	
34.00	-59.930	-146.647	
35.00	-61.006	-112.627	
36.00	-60.212	-99.276	
37.00	-59.802	-92.143	
38.00	-58.559	-74.018	
39.00	-58.924	-62.822	
40.00	-58.190	-47.575	
41.00	-58.444	-37.953	
42.00	-57.820	-23.100	
43.00	-59.261	-22.421	
44.00	-60.491	-18.554	
45.00	-61.838	-4.283	
46.00	-66.942	5.522	
47.00	-66.406	-8.644	
48.00	-66.281	-39.150	
49.00	-65.003	-69.072	
50.00	-61.925	-90.068	
51.00	-62.078	-94.499	
52.00	-58.314	-90.734	
53.00	-57.739	-88.594	
54.00	-56.649	-84.596	
55.00	-56.296	-81.262	
56.00	-56.271	-76.639	
57.00	-56.060	-63.109	
58.00	-56.440	-54.385	
59.00	-58.188	-46.766	
60.00	-59.783	-30.910	
61.00	-59.924	-14.561	
62.00	-60.811	3.117	
63.00	-60.718	26.663	
64.00	-61.019	43.629	
65.00	-60.697	64.872	
66.00	-60.347	77.824	
67.00	-61.282	93.493	
68.00	-60.489	114.702	
69.00	-60.854	131.513	
70.00	-61.636	149.576	
71.00	-62.052	173.616	
72.00	-61.550	-169.665	
73.00	-61.726	-147.693	
74.00	-61.034	-124.935	
75.00	-61.269	-110.167	
76.00	-61.687	-97.009	
77.00	-62.526	-83.344	
78.00	-64.124	-67.380	
79.00	-65.358	-38.666	
80.00	-65.012	-11.380	
81.00	-64.883	27.522	
82.00	-61.580	53.768	
83.00	-60.000	72.490	
84.00	-58.128	81.468	
85.00	-56.976	92.692	
86.00	-56.120	106.978	
87.00	-54.492	116.186	
88.00	-54.036	123.317	
89.00	-54.934	137.985	
90.00	-53.748	140.905	
91.00	-57.122	156.836	
92.00	-57.121	154.331	
93.00	-58.319	162.055	
94.00	-57.695	163.080	
95.00	-58.990	-153.625	
96.00	-58.969	-124.061	
97.00	-59.134	-70.432	
98.00	-55.442	-52.399	
99.00	-57.141	-41.268	
100.00	-54.138	-26.571	
101.00	-53.745	-7.149	
102.00	-53.241	5.876	
103.00	-52.981	19.137	
104.00	-53.393	33.548	
105.00	-53.281	47.541	
106.00	-53.489	60.117	
107.00	-53.726	74.817	
108.00	-53.509	88.117	
109.00	-53.447	101.493	
110.00	-54.149	103.708	
111.00	-54.022	114.454	
112.00	-54.030	122.349	
113.00	-54.819	123.381	
114.00	-54.734	122.791	
115.00	-55.363	116.354	
116.00	-54.947	110.227	
117.00	-54.049	104.450	
118.00	-52.975	100.973	
119.00	-51.596	106.614	
120.00	-50.159	111.946	
121.00	-49.568	119.760	
122.00	-48.650	130.498	
123.00	-48.054	143.330	
124.00	-47.207	156.152	
125.00	-46.733	170.643	
126.00	-45.804	-176.112	
127.00	-45.206	-162.495	
128.00	-44.786	-150.096	
129.00	-44.083	-139.059	
130.00	-43.796	-129.802	
131.00	-43.917	-120.796	
132.00	-44.144	-113.206	
133.00	-44.979	-106.281	
134.00	-45.906	-104.276	
135.00	-47.216	-106.836	
136.00	-49.150	-115.037	
137.00	-49.993	-134.138	
138.00	-48.747	-156.053	
139.00	-46.144	-168.093	
140.00	-43.852	-170.718	
141.00	-42.024	-168.742	
142.00	-40.426	-164.175	
143.00	-39.354	-159.791	
144.00	-38.470	-153.052	
145.00	-38.183	-146.298	
146.00	-37.948	-139.179	
147.00	-38.051	-130.963	
148.00	-38.530	-123.183	
149.00	-39.443	-115.411	
150.00	-40.820	-104.730	
151.00	-42.598	-93.281	
152.00	-45.393	-76.930	
153.00	-48.913	-53.843	
154.00	-50.547	-9.414	
155.00	-49.491	33.863	
156.00	-47.186	57.156	
157.00	-45.539	76.098	
158.00	-44.410	81.751	
159.00	-44.458	89.685	
160.00	-45.471	91.939	
161.00	-47.011	90.900	
162.00	-49.813	78.629	
163.00	-52.115	49.992	
164.00	-50.866	12.532	
165.00	-47.532	-3.455	
166.00	-45.932	-8.819	
167.00	-44.533	-9.314	
168.00	-44.637	-10.198	
169.00	-45.852	-10.289	
170.00	-49.513	-10.482	
171.00	-56.297	-12.031	
172.00	-57.954	178.888	
173.00	-48.310	-179.883	
174.00	-43.867	179.433	
175.00	-41.325	178.093	
176.00	-40.355	176.443	
177.00	-40.147	174.079	
178.00	-41.121	165.987	
179.00	-43.076	149.059	
180.00	-44.786	110.661	
181.00	-41.530	68.603	
182.00	-36.935	47.558	
183.00	-33.598	38.102	
184.00	-30.926	32.660	
185.00	-28.988	29.075	
186.00	-27.503	25.966	
187.00	-26.461	23.625	
188.00	-25.744	20.977	
189.00	-25.393	18.498	
190.00	-25.341	16.110	
191.00	-25.629	13.444	
192.00	-26.315	10.505	
193.00	-27.209	7.242	
194.00	-28.769	3.683	
195.00	-30.704	-0.731	
196.00	-33.204	-7.155	
197.00	-37.133	-16.502	
198.00	-41.958	-37.702	
199.00	-46.833	-98.100	
200.00	-43.031	-147.180	
201.00	-40.169	-163.461	
202.00	-38.164	-172.361	
203.00	-37.678	-177.180	
204.00	-37.769	179.979	
205.00	-38.642	179.070	
206.00	-40.085	179.975	
207.00	-42.129	-173.893	
208.00	-44.361	-158.405	
209.00	-45.188	-138.251	
210.00	-44.066	-120.269	
211.00	-42.767	-108.725	
212.00	-41.268	-107.398	
213.00	-40.867	-106.906	
214.00	-40.443	-113.123	
215.00	-40.345	-118.088	
216.00	-40.657	-125.514	
217.00	-41.453	-132.978	
218.00	-42.319	-142.973	
219.00	-43.842	-153.945	
220.00	-45.297	-165.922	
221.00	-47.141	-177.531	
222.00	-48.983	165.200	
223.00	-50.607	147.784	
224.00	-52.311	126.413	
225.00	-53.438	110.800	
226.00	-54.908	93.072	
227.00	-56.081	78.611	
228.00	-58.594	81.088	
229.00	-60.129	92.552	
230.00	-59.259	115.188	
231.00	-56.101	117.844	
232.00	-53.792	123.057	
233.00	-50.838	124.686	
234.00	-48.942	116.815	
235.00	-47.438	111.514	
236.00	-46.084	103.915	
237.00	-44.852	95.765	
238.00	-43.925	87.724	
239.00	-43.049	78.933	
240.00	-42.402	70.588	
241.00	-41.926	60.698	
242.00	-41.607	51.481	
243.00	-41.489	42.369	
244.00	-41.062	31.945	
245.00	-41.074	23.137	
246.00	-40.964	12.543	
247.00	-40.989	1.889	
248.00	-41.107	-8.209	
249.00	-41.249	-19.536	
250.00	-41.405	-30.237	
251.00	-41.556	-41.860	
252.00	-41.902	-53.005	
253.00	-42.239	-64.607	
254.00	-42.405	-76.487	
255.00	-42.895	-87.219	
256.00	-43.268	-100.086	
257.00	-43.755	-112.046	
258.00	-44.137	-124.009	
259.00	-44.691	-136.847	
260.00	-45.123	-150.455	
261.00	-45.764	-162.786	
262.00	-46.179	-175.990	
263.00	-46.784	168.894	
264.00	-47.221	156.072	
265.00	-47.902	141.188	
266.00	-48.730	128.759	
267.00	-49.214	115.711	
268.00	-50.312	99.296	
269.00	-50.659	86.040	
270.00	-51.520	66.724	
271.00	-52.477	50.118	
272.00	-52.755	32.860	
273.00	-53.205	15.949	
274.00	-53.420	-1.079	
275.00	-53.864	-14.066	
276.00	-54.814	-26.955	
277.00	-55.941	-40.835	
278.00	-57.733	-52.621	
279.00	-59.559	-65.092	
280.00	-62.470	-75.669	
281.00	-67.266	-95.864	
282.00	-73.175	-144.825	
283.00	-76.915	127.152	
284.00	-68.127	64.486	
285.00	-63.274	44.727	
286.00	-61.583	30.964	
287.00	-60.612	6.695	
288.00	-59.218	0.378	
289.00	-58.012	-24.020	
290.00	-58.412	-47.722	
291.00	-59.099	-59.662	
292.00	-57.580	-89.395	
293.00	-58.742	-105.558	
294.00	-57.654	-139.374	
295.00	-55.976	-148.958	
296.00	-54.572	-175.597	
297.00	-54.626	170.177	
298.00	-53.555	157.728	
299.00	-53.708	147.783	
300.00	-53.970	138.159	
301.00	-54.391	123.410	
302.00	-55.503	111.975	
303.00	-56.239	90.492	
304.00	-59.045	85.388	
305.00	-61.886	63.266	
306.00	-65.369	41.094	
307.00	-71.700	-0.079	
308.00	-72.605	-20.398	
309.00	-72.306	-106.028	
310.00	-68.746	-155.231	
311.00	-65.394	-176.232	
312.00	-63.918	171.557	
313.00	-63.452	145.864	
314.00	-61.588	138.319	
315.00	-60.474	117.872	
316.00	-60.496	105.392	
317.00	-60.565	94.513	
318.00	-60.897	71.776	
319.00	-61.924	55.912	
320.00	-62.932	36.606	
321.00	-63.711	16.858	
322.00	-65.968	-6.272	
323.00	-65.506	-40.909	
324.00	-64.871	-75.785	
325.00	-65.156	-104.080	
326.00	-64.280	-131.912	
327.00	-62.349	-154.660	
328.00	-62.168	172.288	
329.00	-61.045	154.241	
330.00	-60.625	130.183	
331.00	-58.384	108.593	
332.00	-57.968	88.930	
333.00	-57.054	77.484	
334.00	-55.887	56.762	
335.00	-56.179	43.491	
336.00	-55.910	31.689	
337.00	-56.414	22.213	
338.00	-56.991	6.968	
339.00	-58.348	1.163	
340.00	-60.550	-4.834	
341.00	-62.589	-12.377	
342.00	-65.794	-17.356	
343.00	-71.732	-50.780	
344.00	-73.111	-157.268	
345.00	-67.193	-152.173	
346.00	-64.565	-155.378	
347.00	-60.321	-168.650	
348.00	-56.955	-167.106	
349.00	-55.138	-164.527	
350.00	-54.913	-170.109	
351.00	-54.100	-168.170	
352.00	-52.759	-176.252	
353.00	-53.728	-175.906	
354.00	-53.835	177.967	
355.00	-56.372	173.686	
356.00	-58.484	165.381	
357.00	-64.200	167.752	
358.00	-72.976	136.842	
359.00	-69.403	5.615	
Frequency	1710.00	MHz	
Channel	test		
Scan Axis name	Azimuth  [deg]		
Scan Axis	Amplitude	Phase	
			
0.00	-60.688	-149.095	
1.00	-61.680	-94.139	
2.00	-59.322	-96.810	
3.00	-61.169	-71.679	
4.00	-60.902	-59.969	
5.00	-59.157	-68.166	
6.00	-63.948	-0.823	
7.00	-59.443	17.118	
8.00	-58.004	22.491	
9.00	-55.488	48.327	
10.00	-55.691	51.067	
11.00	-54.230	59.874	
12.00	-52.813	64.911	
13.00	-53.176	71.728	
14.00	-53.384	76.452	
15.00	-53.702	93.644	
16.00	-54.469	96.816	
17.00	-56.008	100.086	
18.00	-61.515	105.923	
19.00	-65.708	109.113	
20.00	-65.735	-157.500	
21.00	-65.750	-168.221	
22.00	-64.730	-164.000	
23.00	-64.148	-118.162	
24.00	-62.417	-138.709	
25.00	-68.339	-119.782	
26.00	-63.561	-129.183	
27.00	-64.091	-166.910	
28.00	-67.998	-176.975	
29.00	-66.301	159.756	
30.00	-64.102	169.300	
31.00	-62.105	156.667	
32.00	-58.944	161.208	
33.00	-60.075	156.784	
34.00	-59.803	172.082	
35.00	-60.544	-175.304	
36.00	-58.789	-162.643	
37.00	-58.121	-158.699	
38.00	-59.603	-130.550	
39.00	-61.255	-115.270	
40.00	-59.371	-110.532	
41.00	-61.793	-119.519	
42.00	-65.182	-105.523	
43.00	-62.701	-65.011	
44.00	-68.067	-53.633	
45.00	-71.104	-83.604	
46.00	-66.905	-123.986	
47.00	-71.808	169.780	
48.00	-68.560	177.469	
49.00	-66.928	-174.166	
50.00	-63.149	-179.563	
51.00	-62.956	175.782	
52.00	-62.777	166.354	
53.00	-61.035	-177.337	
54.00	-59.255	-173.359	
55.00	-59.039	-176.751	
56.00	-57.821	-162.712	
57.00	-57.486	-153.038	
58.00	-56.452	-147.710	
59.00	-55.634	-133.630	
60.00	-55.125	-121.700	
61.00	-54.908	-106.711	
62.00	-55.252	-95.385	
63.00	-54.924	-78.170	
64.00	-54.312	-63.543	
65.00	-54.442	-46.781	
66.00	-54.810	-32.674	
67.00	-55.377	-17.798	
68.00	-55.632	0.219	
69.00	-56.285	14.190	
70.00	-56.834	38.746	
71.00	-58.732	56.590	
72.00	-58.917	83.574	
73.00	-58.520	102.212	
74.00	-57.960	120.143	
75.00	-57.390	135.502	
76.00	-58.360	162.605	
77.00	-58.315	-165.866	
78.00	-58.017	-168.945	
79.00	-57.802	-156.149	
80.00	-59.772	-132.605	
81.00	-62.530	-115.032	
82.00	-63.614	-109.679	
83.00	-63.428	-81.624	
84.00	-67.826	-23.936	
85.00	-65.407	12.135	
86.00	-62.680	44.356	
87.00	-61.500	77.431	
88.00	-58.281	84.587	
89.00	-56.496	106.355	
90.00	-54.633	112.673	
91.00	-52.826	127.623	
92.00	-52.591	124.572	
93.00	-52.407	147.405	
94.00	-53.114	166.458	
95.00	-51.144	164.193	
96.00	-52.159	-172.987	
97.00	-51.930	-169.860	
98.00	-52.512	-154.108	
99.00	-54.138	-147.469	
100.00	-53.524	-127.035	
101.00	-55.596	-104.669	
102.00	-54.758	-82.327	
103.00	-55.456	-70.517	
104.00	-56.924	-58.586	
105.00	-57.946	-41.660	
106.00	-58.040	-27.079	
107.00	-60.273	-20.415	
108.00	-62.266	-16.330	
109.00	-64.488	-9.282	
110.00	-67.784	-24.763	
111.00	-65.897	-36.664	
112.00	-62.087	-44.922	
113.00	-58.593	-41.498	
114.00	-57.004	-31.191	
115.00	-54.038	-11.910	
116.00	-51.712	1.636	
117.00	-49.849	9.286	
118.00	-48.203	23.823	
119.00	-46.677	37.715	
120.00	-45.312	50.639	
121.00	-44.292	61.382	
122.00	-43.438	74.342	
123.00	-42.674	86.146	
124.00	-42.186	98.955	
125.00	-41.886	112.545	
126.00	-41.605	125.493	
127.00	-41.520	139.053	
128.00	-41.626	152.325	
129.00	-41.758	165.906	
130.00	-42.174	179.516	
131.00	-42.774	-165.575	
132.00	-43.877	-153.145	
133.00	-45.240	-139.075	
134.00	-47.463	-122.759	
135.00	-50.954	-101.371	
136.00	-56.194	-54.909	
137.00	-54.056	25.365	
138.00	-48.350	55.037	
139.00	-44.857	71.056	
140.00	-42.267	85.167	
141.00	-40.447	97.239	
142.00	-39.181	108.861	
143.00	-38.314	120.474	
144.00	-37.642	131.525	
145.00	-37.279	142.575	
146.00	-37.350	153.698	
147.00	-37.458	166.051	
148.00	-37.946	178.684	
149.00	-38.715	-168.186	
150.00	-39.674	-154.148	
151.00	-40.857	-137.805	
152.00	-42.114	-118.610	
153.00	-43.146	-96.059	
154.00	-44.089	-69.722	
155.00	-44.073	-47.769	
156.00	-43.992	-28.070	
157.00	-43.827	-15.674	
158.00	-44.131	0.119	
159.00	-44.738	8.211	
160.00	-46.651	12.192	
161.00	-49.200	11.900	
162.00	-52.083	-10.811	
163.00	-51.355	-52.701	
164.00	-47.536	-75.050	
165.00	-44.622	-79.792	
166.00	-42.644	-80.124	
167.00	-41.652	-77.531	
168.00	-41.085	-74.742	
169.00	-41.429	-71.758	
170.00	-42.471	-68.497	
171.00	-44.359	-63.116	
172.00	-47.657	-56.130	
173.00	-53.333	-35.871	
174.00	-57.160	29.512	
175.00	-52.172	70.855	
176.00	-48.257	76.181	
177.00	-46.319	69.315	
178.00	-44.702	53.459	
179.00	-42.388	35.439	
180.00	-39.487	19.602	
181.00	-36.471	7.839	
182.00	-33.801	0.664	
183.00	-31.535	-3.838	
184.00	-29.684	-7.019	
185.00	-28.204	-9.512	
186.00	-27.089	-11.189	
187.00	-26.263	-12.515	
188.00	-25.754	-13.923	
189.00	-25.582	-15.074	
190.00	-25.699	-16.021	
191.00	-26.150	-17.091	
192.00	-26.965	-17.630	
193.00	-28.110	-17.902	
194.00	-29.799	-18.073	
195.00	-32.101	-17.166	
196.00	-35.141	-14.566	
197.00	-39.748	-6.591	
198.00	-45.908	21.478	
199.00	-46.544	93.043	
200.00	-42.123	119.904	
201.00	-39.711	127.619	
202.00	-38.745	131.837	
203.00	-38.915	135.390	
204.00	-39.976	140.584	
205.00	-41.788	150.762	
206.00	-43.738	170.806	
207.00	-44.284	-158.749	
208.00	-42.315	-136.206	
209.00	-40.032	-123.303	
210.00	-38.280	-119.802	
211.00	-37.171	-119.237	
212.00	-36.586	-121.475	
213.00	-36.497	-125.084	
214.00	-36.775	-129.881	
215.00	-37.548	-135.621	
216.00	-38.650	-142.891	
217.00	-40.229	-151.494	
218.00	-42.395	-163.905	
219.00	-45.149	179.916	
220.00	-47.533	155.521	
221.00	-48.880	121.339	
222.00	-48.480	92.735	
223.00	-47.858	73.577	
224.00	-47.405	58.967	
225.00	-47.603	48.479	
226.00	-48.197	43.627	
227.00	-49.927	40.203	
228.00	-51.949	44.518	
229.00	-54.885	63.060	
230.00	-55.108	84.848	
231.00	-52.289	102.518	
232.00	-49.892	108.090	
233.00	-47.870	104.159	
234.00	-46.189	98.139	
235.00	-45.037	87.320	
236.00	-44.013	78.022	
237.00	-43.064	66.146	
238.00	-42.182	54.675	
239.00	-41.503	43.369	
240.00	-40.876	30.700	
241.00	-40.432	18.899	
242.00	-39.993	7.892	
243.00	-39.631	-3.626	
244.00	-39.348	-15.234	
245.00	-39.126	-26.322	
246.00	-39.161	-36.804	
247.00	-39.130	-47.605	
248.00	-39.092	-57.909	
249.00	-39.543	-69.292	
250.00	-39.726	-80.098	
251.00	-40.170	-90.546	
252.00	-40.298	-102.889	
253.00	-40.864	-114.889	
254.00	-41.622	-125.387	
255.00	-41.882	-138.135	
256.00	-42.341	-149.337	
257.00	-42.936	-164.258	
258.00	-43.349	-173.979	
259.00	-44.144	174.838	
260.00	-44.256	160.324	
261.00	-46.215	152.663	
262.00	-46.308	135.907	
263.00	-48.817	121.179	
264.00	-48.881	103.804	
265.00	-49.971	86.670	
266.00	-49.943	71.112	
267.00	-51.892	49.437	
268.00	-50.827	33.246	
269.00	-51.387	16.763	
270.00	-51.158	-0.197	
271.00	-51.150	-19.272	
272.00	-51.542	-32.630	
273.00	-52.610	-51.028	
274.00	-52.551	-65.652	
275.00	-52.829	-84.424	
276.00	-52.828	-100.741	
277.00	-53.090	-119.851	
278.00	-53.144	-141.712	
279.00	-53.971	-157.081	
280.00	-54.077	-170.644	
281.00	-54.112	169.584	
282.00	-54.766	152.544	
283.00	-55.421	128.956	
284.00	-56.962	110.841	
285.00	-56.909	88.813	
286.00	-57.903	67.913	
287.00	-57.032	32.633	
288.00	-57.448	1.273	
289.00	-58.173	-19.728	
290.00	-58.932	-42.960	
291.00	-58.610	-74.338	
292.00	-58.216	-100.451	
293.00	-56.989	-116.464	
294.00	-56.108	-134.283	
295.00	-55.595	-159.330	
296.00	-56.177	-172.328	
297.00	-55.730	167.056	
298.00	-56.431	150.469	
299.00	-57.383	135.716	
300.00	-56.273	95.577	
301.00	-57.475	87.911	
302.00	-58.076	73.276	
303.00	-55.487	64.756	
304.00	-57.644	51.443	
305.00	-59.595	42.591	
306.00	-62.331	28.179	
307.00	-70.542	34.360	
308.00	-74.230	75.759	
309.00	-72.962	150.197	
310.00	-62.995	104.313	
311.00	-66.040	139.832	
312.00	-60.790	91.466	
313.00	-62.462	89.460	
314.00	-79.691	134.343	
315.00	-65.970	49.239	
316.00	-68.710	23.562	
317.00	-63.191	-31.538	
318.00	-69.383	17.602	
319.00	-65.210	-34.392	
320.00	-60.623	-83.960	
321.00	-60.553	-99.827	
322.00	-61.126	-120.609	
323.00	-57.557	-151.632	
324.00	-57.558	-167.226	
325.00	-58.525	-174.652	
326.00	-57.150	165.414	
327.00	-57.121	148.330	
328.00	-56.396	131.488	
329.00	-55.379	128.729	
330.00	-57.085	103.012	
331.00	-57.052	88.677	
332.00	-56.412	56.098	
333.00	-56.084	48.394	
334.00	-55.170	28.263	
335.00	-58.051	-0.224	
336.00	-55.543	5.582	
337.00	-56.893	-18.146	
338.00	-57.116	-31.103	
339.00	-57.521	-46.062	
340.00	-64.742	-79.417	
341.00	-68.867	-87.933	
342.00	-82.791	-35.334	
343.00	-64.809	-157.841	
344.00	-67.709	154.012	
345.00	-67.336	159.401	
346.00	-59.540	145.334	
347.00	-56.437	161.403	
348.00	-55.706	162.464	
349.00	-55.127	153.928	
350.00	-53.024	150.222	
351.00	-51.146	150.958	
352.00	-49.808	149.901	
353.00	-52.934	147.522	
354.00	-50.488	136.777	
355.00	-52.640	138.411	
356.00	-53.244	140.243	
357.00	-55.013	144.951	
358.00	-59.553	135.982	
359.00	-60.279	156.498	
Frequency	1800.00	MHz	
Channel	test		
Scan Axis name	Azimuth  [deg]		
Scan Axis	Amplitude	Phase	
			
0.00	-64.680	52.421	
1.00	-63.688	71.063	
2.00	-61.405	82.657	
3.00	-59.343	88.930	
4.00	-58.078	89.485	
5.00	-58.127	88.552	
6.00	-57.841	86.770	
7.00	-58.467	84.527	
8.00	-58.461	87.539	
9.00	-60.611	84.024	
10.00	-61.196	88.166	
11.00	-63.494	97.224	
12.00	-66.624	99.643	
13.00	-68.720	108.360	
14.00	-70.356	126.405	
15.00	-67.666	109.239	
16.00	-66.867	109.532	
17.00	-64.643	103.947	
18.00	-62.846	110.592	
19.00	-62.193	122.295	
20.00	-60.427	128.041	
21.00	-59.695	137.062	
22.00	-59.252	144.753	
23.00	-59.389	150.581	
24.00	-59.715	161.350	
25.00	-59.941	168.932	
26.00	-61.019	178.871	
27.00	-62.346	-172.849	
28.00	-63.156	-161.119	
29.00	-64.702	-124.103	
30.00	-67.182	-114.957	
31.00	-66.452	-69.767	
32.00	-63.671	-33.073	
33.00	-60.756	-19.724	
34.00	-58.372	-4.192	
35.00	-57.502	3.188	
36.00	-56.520	11.796	
37.00	-56.298	17.391	
38.00	-56.911	21.853	
39.00	-57.798	29.081	
40.00	-58.869	30.330	
41.00	-59.845	36.587	
42.00	-61.271	44.797	
43.00	-63.601	59.136	
44.00	-63.830	77.439	
45.00	-64.853	105.180	
46.00	-62.853	130.952	
47.00	-61.010	150.346	
48.00	-61.702	163.708	
49.00	-60.544	-175.305	
50.00	-60.166	-168.641	
51.00	-59.574	-144.607	
52.00	-59.622	-127.186	
53.00	-60.541	-102.224	
54.00	-63.828	-78.369	
55.00	-64.123	-55.501	
56.00	-68.296	-15.481	
57.00	-68.893	24.211	
58.00	-67.432	80.172	
59.00	-65.427	113.108	
60.00	-61.094	135.500	
61.00	-59.383	165.549	
62.00	-58.065	-177.613	
63.00	-56.875	-161.360	
64.00	-55.837	-146.828	
65.00	-55.129	-131.116	
66.00	-54.989	-118.353	
67.00	-54.786	-106.804	
68.00	-55.097	-101.267	
69.00	-55.949	-91.135	
70.00	-57.175	-91.386	
71.00	-59.623	-90.618	
72.00	-61.281	-110.652	
73.00	-62.026	-128.706	
74.00	-59.760	-149.526	
75.00	-57.507	-161.610	
76.00	-55.431	-158.217	
77.00	-54.787	-158.753	
78.00	-54.052	-152.287	
79.00	-54.267	-146.479	
80.00	-54.911	-136.627	
81.00	-55.449	-128.041	
82.00	-56.577	-110.157	
83.00	-57.904	-91.449	
84.00	-58.227	-66.531	
85.00	-58.170	-37.005	
86.00	-57.277	-20.530	
87.00	-56.491	-1.405	
88.00	-56.224	3.762	
89.00	-56.192	26.760	
90.00	-54.221	48.747	
91.00	-55.857	46.781	
92.00	-56.149	86.346	
93.00	-59.412	98.360	
94.00	-57.224	116.836	
95.00	-58.595	128.379	
96.00	-58.122	138.110	
97.00	-59.972	-177.146	
98.00	-55.752	-176.647	
99.00	-55.672	-148.174	
100.00	-55.775	-139.024	
101.00	-57.791	-121.758	
102.00	-58.665	-97.634	
103.00	-59.123	-76.870	
104.00	-59.305	-50.961	
105.00	-59.238	-22.528	
106.00	-57.621	5.149	
107.00	-56.645	27.885	
108.00	-55.375	48.186	
109.00	-54.363	63.283	
110.00	-53.360	77.796	
111.00	-53.245	95.614	
112.00	-52.802	109.048	
113.00	-52.841	127.480	
114.00	-54.072	148.044	
115.00	-54.394	172.763	
116.00	-55.539	-165.235	
117.00	-55.440	-134.740	
118.00	-54.945	-99.262	
119.00	-53.742	-68.871	
120.00	-52.391	-41.045	
121.00	-50.955	-17.945	
122.00	-49.588	6.755	
123.00	-48.011	30.280	
124.00	-46.430	52.172	
125.00	-44.774	70.974	
126.00	-43.117	88.607	
127.00	-41.995	104.375	
128.00	-41.039	119.341	
129.00	-40.182	135.643	
130.00	-39.359	149.045	
131.00	-39.056	164.119	
132.00	-38.878	178.795	
133.00	-38.707	-164.862	
134.00	-38.782	-148.010	
135.00	-38.718	-130.838	
136.00	-38.988	-112.222	
137.00	-39.176	-92.739	
138.00	-39.281	-73.947	
139.00	-39.394	-53.462	
140.00	-39.296	-33.244	
141.00	-39.192	-13.027	
142.00	-39.039	9.222	
143.00	-38.705	28.923	
144.00	-38.319	48.037	
145.00	-37.990	66.381	
146.00	-37.595	83.290	
147.00	-37.409	100.228	
148.00	-37.309	116.135	
149.00	-37.435	132.979	
150.00	-37.609	149.189	
151.00	-37.950	165.977	
152.00	-38.293	-176.460	
153.00	-38.552	-158.362	
154.00	-38.678	-141.040	
155.00	-39.027	-123.258	
156.00	-39.260	-106.165	
157.00	-39.518	-93.492	
158.00	-39.718	-77.958	
159.00	-40.158	-64.697	
160.00	-40.914	-50.854	
161.00	-42.053	-40.964	
162.00	-43.446	-31.536	
163.00	-45.326	-23.525	
164.00	-48.077	-17.272	
165.00	-51.348	-14.571	
166.00	-55.792	-20.896	
167.00	-58.507	-43.825	
168.00	-57.829	-72.738	
169.00	-54.840	-73.573	
170.00	-51.986	-64.802	
171.00	-49.371	-51.123	
172.00	-47.106	-40.791	
173.00	-45.174	-31.220	
174.00	-43.729	-23.365	
175.00	-42.809	-17.069	
176.00	-42.183	-10.788	
177.00	-41.952	-3.309	
178.00	-42.191	5.787	
179.00	-42.849	18.819	
180.00	-43.369	38.580	
181.00	-42.809	63.930	
182.00	-40.587	86.654	
183.00	-37.978	99.925	
184.00	-35.598	108.523	
185.00	-33.542	112.648	
186.00	-31.970	114.160	
187.00	-30.755	114.778	
188.00	-29.819	114.280	
189.00	-29.213	113.437	
190.00	-28.906	112.153	
191.00	-28.862	111.005	
192.00	-29.076	109.582	
193.00	-29.605	108.548	
194.00	-30.428	107.574	
195.00	-31.498	107.500	
196.00	-32.998	108.571	
197.00	-34.817	111.168	
198.00	-36.986	117.315	
199.00	-39.150	129.370	
200.00	-40.863	145.446	
201.00	-41.748	163.669	
202.00	-41.962	177.472	
203.00	-42.103	-173.530	
204.00	-42.747	-166.745	
205.00	-44.109	-160.765	
206.00	-46.209	-152.299	
207.00	-49.128	-133.729	
208.00	-50.798	-102.007	
209.00	-49.351	-71.877	
210.00	-47.232	-58.321	
211.00	-45.780	-55.367	
212.00	-45.127	-55.822	
213.00	-45.731	-58.071	
214.00	-46.973	-62.513	
215.00	-49.779	-68.634	
216.00	-56.628	-68.543	
217.00	-66.721	87.126	
218.00	-51.842	89.546	
219.00	-46.564	81.635	
220.00	-43.961	73.429	
221.00	-41.843	66.473	
222.00	-40.826	57.566	
223.00	-40.139	50.199	
224.00	-39.994	41.736	
225.00	-40.344	33.890	
226.00	-41.048	26.306	
227.00	-42.529	18.205	
228.00	-44.509	13.863	
229.00	-47.622	12.053	
230.00	-52.123	23.291	
231.00	-54.691	67.593	
232.00	-50.557	100.084	
233.00	-46.727	102.857	
234.00	-44.229	98.316	
235.00	-42.511	90.379	
236.00	-41.371	80.846	
237.00	-40.598	69.878	
238.00	-40.089	58.470	
239.00	-39.778	46.298	
240.00	-39.663	33.958	
241.00	-39.670	21.107	
242.00	-39.795	8.047	
243.00	-40.048	-4.863	
244.00	-40.352	-18.298	
245.00	-40.719	-31.783	
246.00	-41.173	-44.887	
247.00	-41.672	-58.034	
248.00	-42.152	-71.525	
249.00	-42.704	-84.239	
250.00	-43.337	-96.970	
251.00	-44.003	-109.039	
252.00	-44.660	-120.042	
253.00	-45.294	-130.427	
254.00	-46.159	-140.534	
255.00	-46.960	-149.742	
256.00	-48.040	-158.346	
257.00	-48.939	-166.836	
258.00	-50.045	-175.409	
259.00	-51.069	174.893	
260.00	-52.426	164.629	
261.00	-53.333	156.429	
262.00	-54.102	144.048	
263.00	-55.012	136.085	
264.00	-55.497	125.407	
265.00	-56.891	111.465	
266.00	-57.541	103.267	
267.00	-58.491	90.250	
268.00	-60.198	69.250	
269.00	-62.036	53.747	
270.00	-62.525	27.595	
271.00	-63.538	7.018	
272.00	-63.231	-1.293	
273.00	-62.920	-29.157	
274.00	-63.339	-38.993	
275.00	-63.900	-45.957	
276.00	-64.877	-53.334	
277.00	-68.594	-60.211	
278.00	-70.675	-23.275	
279.00	-72.124	-0.628	
280.00	-67.887	43.590	
281.00	-67.233	25.065	
282.00	-65.260	24.870	
283.00	-63.863	-4.688	
284.00	-62.502	-15.830	
285.00	-60.484	-35.507	
286.00	-59.394	-54.614	
287.00	-57.597	-78.650	
288.00	-56.182	-92.351	
289.00	-55.710	-107.121	
290.00	-55.638	-115.103	
291.00	-55.693	-129.417	
292.00	-55.938	-143.816	
293.00	-57.255	-167.411	
294.00	-57.613	168.666	
295.00	-57.731	144.611	
296.00	-57.017	124.041	
297.00	-56.454	102.388	
298.00	-56.936	84.867	
299.00	-56.922	69.266	
300.00	-57.903	53.374	
301.00	-57.832	36.278	
302.00	-59.468	16.846	
303.00	-61.111	-2.609	
304.00	-62.437	-31.809	
305.00	-64.848	-59.196	
306.00	-64.542	-95.042	
307.00	-63.397	-126.418	
308.00	-62.098	-150.153	
309.00	-61.288	-170.827	
310.00	-61.453	166.305	
311.00	-60.920	157.508	
312.00	-61.070	142.762	
313.00	-61.567	121.639	
314.00	-61.785	112.696	
315.00	-63.798	98.503	
316.00	-66.433	87.188	
317.00	-69.786	64.598	
318.00	-75.435	62.666	
319.00	-75.504	-154.000	
320.00	-68.624	-148.724	
321.00	-64.582	-159.617	
322.00	-61.074	-166.552	
323.00	-60.023	-169.971	
324.00	-59.061	-175.404	
325.00	-58.150	178.294	
326.00	-58.592	172.037	
327.00	-59.349	163.505	
328.00	-60.699	157.250	
329.00	-61.542	159.933	
330.00	-61.972	156.495	
331.00	-62.355	167.013	
332.00	-61.611	164.724	
333.00	-60.033	165.546	
334.00	-59.073	161.695	
335.00	-58.279	157.665	
336.00	-58.174	149.820	
337.00	-57.567	141.292	
338.00	-58.086	133.851	
339.00	-58.825	122.738	
340.00	-59.938	114.558	
341.00	-62.592	111.334	
342.00	-67.359	114.255	
343.00	-68.866	146.637	
344.00	-66.480	-167.847	
345.00	-62.895	-157.766	
346.00	-60.122	-151.790	
347.00	-59.027	-162.201	
348.00	-58.475	-165.228	
349.00	-58.548	-175.821	
350.00	-58.764	174.996	
351.00	-60.322	165.992	
352.00	-61.906	150.895	
353.00	-63.520	134.411	
354.00	-66.467	108.058	
355.00	-68.728	84.258	
356.00	-67.843	55.872	
357.00	-66.936	33.453	
358.00	-64.836	33.734	
359.00	-65.250	32.811	
Frequency	1850.00	MHz	
Channel	test		
Scan Axis name	Azimuth  [deg]		
Scan Axis	Amplitude	Phase	
			
0.00	-64.444	-1.350	
1.00	-62.742	9.228	
2.00	-75.210	1.618	
3.00	-74.671	-119.870	
4.00	-69.922	-142.986	
5.00	-67.214	-168.678	
6.00	-66.488	-173.615	
7.00	-65.894	171.487	
8.00	-70.495	132.829	
9.00	-67.696	152.140	
10.00	-67.675	164.945	
11.00	-66.006	-63.758	
12.00	-70.217	27.117	
13.00	-64.456	21.343	
14.00	-56.487	20.481	
15.00	-58.517	6.524	
16.00	-57.745	8.093	
17.00	-58.163	5.148	
18.00	-58.483	2.505	
19.00	-58.529	-1.228	
20.00	-58.450	-0.643	
21.00	-59.508	-16.693	
22.00	-58.767	-26.169	
23.00	-59.133	-26.143	
24.00	-58.957	-22.527	
25.00	-60.648	-22.839	
26.00	-62.103	-20.510	
27.00	-65.296	-25.518	
28.00	-67.691	-25.558	
29.00	-76.271	-16.208	
30.00	-74.367	-117.715	
31.00	-72.090	-128.185	
32.00	-69.889	-137.925	
33.00	-67.201	-140.233	
34.00	-67.420	-145.058	
35.00	-64.767	-145.742	
36.00	-67.489	-151.094	
37.00	-66.585	-120.362	
38.00	-65.516	-108.117	
39.00	-66.459	-89.195	
40.00	-66.491	-67.136	
41.00	-70.173	-58.428	
42.00	-67.796	10.108	
43.00	-67.559	51.448	
44.00	-66.073	88.117	
45.00	-64.037	107.433	
46.00	-65.876	125.673	
47.00	-61.094	159.547	
48.00	-61.014	-178.342	
49.00	-62.449	-160.075	
50.00	-61.329	-145.929	
51.00	-60.295	-125.936	
52.00	-62.150	-110.015	
53.00	-65.462	-95.108	
54.00	-68.206	-88.634	
55.00	-74.698	-93.726	
56.00	-75.320	-157.060	
57.00	-70.460	-179.357	
58.00	-66.229	-171.904	
59.00	-63.648	-159.943	
60.00	-62.905	-148.541	
61.00	-62.471	-132.790	
62.00	-64.007	-123.064	
63.00	-65.970	-103.932	
64.00	-72.827	-78.842	
65.00	-73.758	-0.121	
66.00	-67.772	70.963	
67.00	-62.970	85.882	
68.00	-60.000	97.067	
69.00	-58.394	109.619	
70.00	-57.287	120.595	
71.00	-57.379	129.226	
72.00	-58.443	140.870	
73.00	-59.238	157.173	
74.00	-60.271	170.407	
75.00	-62.258	-171.201	
76.00	-64.823	-133.868	
77.00	-65.182	-98.873	
78.00	-62.913	-69.619	
79.00	-61.416	-49.048	
80.00	-60.450	-31.399	
81.00	-59.857	-17.090	
82.00	-60.226	-6.731	
83.00	-60.455	10.400	
84.00	-61.445	27.207	
85.00	-62.165	42.026	
86.00	-63.889	71.108	
87.00	-65.759	79.048	
88.00	-64.514	115.938	
89.00	-64.929	135.901	
90.00	-64.376	172.931	
91.00	-63.740	-153.806	
92.00	-61.632	-134.237	
93.00	-60.148	-123.283	
94.00	-58.057	-106.398	
95.00	-56.984	-96.185	
96.00	-56.543	-95.007	
97.00	-54.980	-80.896	
98.00	-54.966	-75.953	
99.00	-55.080	-67.787	
100.00	-54.321	-68.490	
101.00	-56.643	-44.316	
102.00	-58.047	-26.413	
103.00	-59.085	-8.620	
104.00	-57.009	7.973	
105.00	-59.806	49.096	
106.00	-58.390	57.816	
107.00	-56.827	78.306	
108.00	-56.094	93.409	
109.00	-55.578	108.325	
110.00	-55.172	119.055	
111.00	-55.585	131.808	
112.00	-54.472	130.820	
113.00	-55.574	158.727	
114.00	-57.093	166.615	
115.00	-58.629	172.412	
116.00	-62.417	-179.188	
117.00	-65.240	166.525	
118.00	-64.417	123.711	
119.00	-60.119	104.795	
120.00	-55.834	105.090	
121.00	-53.071	113.712	
122.00	-50.674	125.271	
123.00	-48.674	135.907	
124.00	-47.026	148.668	
125.00	-45.686	161.319	
126.00	-44.587	172.595	
127.00	-43.732	-173.470	
128.00	-43.024	-161.333	
129.00	-42.682	-148.634	
130.00	-42.529	-136.675	
131.00	-42.736	-123.436	
132.00	-43.343	-111.654	
133.00	-44.303	-97.450	
134.00	-45.996	-81.212	
135.00	-48.288	-60.982	
136.00	-51.345	-28.988	
137.00	-52.356	22.744	
138.00	-49.076	68.043	
139.00	-45.863	92.657	
140.00	-43.059	109.998	
141.00	-41.110	123.134	
142.00	-39.620	134.784	
143.00	-38.387	145.050	
144.00	-37.495	154.955	
145.00	-36.907	164.218	
146.00	-36.511	172.966	
147.00	-36.270	-177.930	
148.00	-36.327	-169.517	
149.00	-36.619	-160.687	
150.00	-37.063	-151.767	
151.00	-37.744	-141.565	
152.00	-38.699	-130.445	
153.00	-39.815	-117.011	
154.00	-41.056	-101.577	
155.00	-42.113	-84.230	
156.00	-43.224	-67.938	
157.00	-43.560	-43.705	
158.00	-44.091	-25.127	
159.00	-44.838	-5.238	
160.00	-45.851	8.736	
161.00	-47.666	25.249	
162.00	-50.145	49.306	
163.00	-52.434	91.578	
164.00	-50.893	137.875	
165.00	-47.317	166.160	
166.00	-44.405	179.124	
167.00	-42.466	-173.665	
168.00	-41.321	-171.121	
169.00	-40.674	-170.634	
170.00	-40.648	-174.489	
171.00	-40.968	179.759	
172.00	-41.455	170.450	
173.00	-41.902	156.935	
174.00	-42.013	142.578	
175.00	-42.027	127.474	
176.00	-41.767	118.604	
177.00	-42.335	111.553	
178.00	-43.970	107.163	
179.00	-48.653	110.724	
180.00	-58.852	-165.627	
181.00	-45.206	-106.339	
182.00	-38.668	-103.468	
183.00	-34.677	-104.532	
184.00	-31.868	-106.927	
185.00	-29.749	-109.822	
186.00	-28.213	-112.753	
187.00	-27.067	-116.262	
188.00	-26.351	-120.148	
189.00	-25.969	-124.059	
190.00	-25.914	-128.383	
191.00	-26.144	-132.722	
192.00	-26.686	-137.595	
193.00	-27.514	-142.923	
194.00	-28.765	-148.180	
195.00	-30.376	-154.458	
196.00	-32.587	-160.093	
197.00	-35.428	-167.162	
198.00	-39.464	-174.980	
199.00	-45.795	174.246	
200.00	-58.407	118.386	
201.00	-50.206	11.784	
202.00	-45.344	-0.349	
203.00	-43.616	-7.153	
204.00	-43.278	-11.079	
205.00	-43.903	-10.882	
206.00	-44.958	-7.379	
207.00	-45.999	3.466	
208.00	-46.156	17.073	
209.00	-45.278	27.962	
210.00	-44.192	31.465	
211.00	-43.218	29.042	
212.00	-42.563	22.082	
213.00	-42.431	11.839	
214.00	-42.496	-0.299	
215.00	-43.362	-16.959	
216.00	-44.215	-34.783	
217.00	-44.983	-57.374	
218.00	-45.980	-85.833	
219.00	-45.980	-111.695	
220.00	-45.515	-136.190	
221.00	-45.033	-161.241	
222.00	-44.544	178.460	
223.00	-44.433	158.547	
224.00	-44.469	141.371	
225.00	-45.031	124.323	
226.00	-46.066	107.862	
227.00	-47.587	91.217	
228.00	-50.041	75.515	
229.00	-54.674	59.030	
230.00	-63.396	24.356	
231.00	-62.128	-112.254	
232.00	-53.445	-147.141	
233.00	-49.403	-164.055	
234.00	-46.690	179.050	
235.00	-44.943	164.011	
236.00	-43.680	148.818	
237.00	-42.819	133.174	
238.00	-42.498	118.739	
239.00	-42.173	103.427	
240.00	-42.187	89.852	
241.00	-42.254	74.938	
242.00	-42.661	58.018	
243.00	-43.110	43.364	
244.00	-43.748	25.863	
245.00	-44.647	8.932	
246.00	-45.614	-8.710	
247.00	-46.645	-26.835	
248.00	-47.916	-46.226	
249.00	-49.125	-64.743	
250.00	-50.375	-86.204	
251.00	-51.693	-106.345	
252.00	-53.202	-128.694	
253.00	-55.031	-150.136	
254.00	-56.743	-174.485	
255.00	-59.496	159.473	
256.00	-62.182	121.425	
257.00	-63.765	74.612	
258.00	-61.964	31.494	
259.00	-60.193	-1.526	
260.00	-58.267	-24.912	
261.00	-57.410	-41.869	
262.00	-56.089	-63.819	
263.00	-56.523	-79.572	
264.00	-56.223	-99.322	
265.00	-56.737	-118.315	
266.00	-56.755	-137.115	
267.00	-57.182	-158.266	
268.00	-57.427	-177.272	
269.00	-58.084	161.758	
270.00	-58.808	141.500	
271.00	-59.179	118.710	
272.00	-59.201	102.924	
273.00	-60.188	65.133	
274.00	-60.120	40.881	
275.00	-61.131	13.691	
276.00	-58.567	-9.401	
277.00	-58.665	-27.982	
278.00	-58.403	-50.607	
279.00	-58.040	-69.793	
280.00	-57.832	-86.075	
281.00	-57.438	-105.138	
282.00	-57.427	-123.640	
283.00	-57.642	-138.236	
284.00	-58.228	-159.712	
285.00	-58.700	-174.705	
286.00	-59.866	168.664	
287.00	-60.863	140.069	
288.00	-62.443	126.439	
289.00	-63.499	101.496	
290.00	-65.831	86.459	
291.00	-66.936	40.361	
292.00	-64.248	3.221	
293.00	-69.307	23.252	
294.00	-65.828	-18.981	
295.00	-62.331	-47.624	
296.00	-63.567	-54.794	
297.00	-62.981	-59.327	
298.00	-63.538	-66.325	
299.00	-63.576	-62.646	
300.00	-63.846	-67.681	
301.00	-63.058	-61.559	
302.00	-61.535	-68.292	
303.00	-60.914	-83.235	
304.00	-60.237	-92.099	
305.00	-59.143	-99.798	
306.00	-58.138	-108.862	
307.00	-56.498	-127.112	
308.00	-57.895	-128.419	
309.00	-58.256	-135.545	
310.00	-59.143	-142.334	
311.00	-60.542	-153.097	
312.00	-62.752	-167.343	
313.00	-65.973	-174.295	
314.00	-70.977	167.764	
315.00	-80.606	123.541	
316.00	-78.304	39.102	
317.00	-72.061	3.651	
318.00	-69.050	-1.520	
319.00	-67.745	-28.437	
320.00	-68.072	-26.751	
321.00	-67.559	-33.325	
322.00	-67.400	-45.631	
323.00	-67.566	-48.958	
324.00	-64.972	-64.236	
325.00	-66.498	-55.818	
326.00	-65.936	-55.397	
327.00	-65.806	-55.313	
328.00	-65.949	-57.486	
329.00	-67.505	-59.013	
330.00	-70.636	-65.519	
331.00	-73.570	-63.129	
332.00	-74.487	67.823	
333.00	-81.539	110.044	
334.00	-74.301	120.606	
335.00	-70.014	103.453	
336.00	-67.348	102.893	
337.00	-65.695	102.496	
338.00	-63.307	92.305	
339.00	-62.471	88.307	
340.00	-60.383	84.398	
341.00	-59.665	69.842	
342.00	-59.242	61.083	
343.00	-59.185	46.515	
344.00	-59.959	34.061	
345.00	-60.681	17.606	
346.00	-62.500	-5.675	
347.00	-63.159	-30.542	
348.00	-63.293	-62.206	
349.00	-62.794	-83.642	
350.00	-62.843	-95.347	
351.00	-62.615	-114.148	
352.00	-66.397	-123.756	
353.00	-64.663	-137.961	
354.00	-68.924	-117.487	
355.00	-72.802	-81.058	
356.00	-71.224	-24.176	
357.00	-66.579	-13.315	
358.00	-64.490	-1.824	
359.00	-63.258	2.545	
Frequency	1950.00	MHz	
Channel	test		
Scan Axis name	Azimuth  [deg]		
Scan Axis	Amplitude	Phase	
			
0.00	-68.695	-51.752	
1.00	-72.239	-133.021	
2.00	-69.952	179.189	
3.00	-64.054	-169.307	
4.00	-63.080	-167.246	
5.00	-63.789	171.277	
6.00	-68.326	-155.644	
7.00	-62.860	-174.723	
8.00	-65.348	-179.156	
9.00	-65.631	172.227	
10.00	-67.828	-166.503	
11.00	-67.223	175.921	
12.00	-70.621	132.194	
13.00	-70.679	161.192	
14.00	-65.469	159.605	
15.00	-61.868	-156.062	
16.00	-79.775	150.200	
17.00	-68.231	-173.183	
18.00	-73.018	-137.176	
19.00	-70.532	-112.329	
20.00	-73.712	-151.837	
21.00	-76.166	166.849	
22.00	-73.222	24.554	
23.00	-72.859	118.285	
24.00	-69.317	140.628	
25.00	-64.082	111.164	
26.00	-65.183	124.989	
27.00	-62.839	108.085	
28.00	-61.837	93.555	
29.00	-60.813	109.660	
30.00	-65.701	145.011	
31.00	-65.972	128.336	
32.00	-75.956	117.003	
33.00	-78.615	-165.484	
34.00	-71.633	-100.353	
35.00	-67.257	-68.085	
36.00	-63.538	-43.873	
37.00	-60.887	-54.161	
38.00	-62.263	-58.685	
39.00	-63.577	-52.873	
40.00	-66.153	-57.556	
41.00	-66.048	-72.073	
42.00	-66.066	-80.666	
43.00	-67.533	-83.155	
44.00	-66.176	-92.048	
45.00	-66.950	-97.221	
46.00	-66.874	-88.055	
47.00	-66.276	-88.769	
48.00	-64.229	-88.619	
49.00	-62.915	-91.524	
50.00	-61.889	-88.561	
51.00	-60.010	-87.165	
52.00	-58.752	-80.461	
53.00	-58.042	-79.953	
54.00	-57.635	-75.084	
55.00	-58.250	-68.672	
56.00	-57.898	-64.953	
57.00	-60.099	-68.823	
58.00	-62.050	-49.383	
59.00	-63.580	-75.312	
60.00	-71.356	-105.079	
61.00	-69.399	-125.842	
62.00	-68.133	-144.298	
63.00	-66.272	-144.913	
64.00	-67.508	-140.079	
65.00	-73.168	-135.082	
66.00	-81.599	-137.118	
67.00	-70.890	19.637	
68.00	-64.410	35.494	
69.00	-61.479	45.455	
70.00	-59.006	53.502	
71.00	-56.481	63.502	
72.00	-55.701	69.665	
73.00	-54.948	77.856	
74.00	-54.414	85.201	
75.00	-54.882	87.673	
76.00	-55.682	98.213	
77.00	-57.354	106.437	
78.00	-58.691	120.869	
79.00	-59.851	137.405	
80.00	-61.261	161.380	
81.00	-63.310	177.610	
82.00	-63.106	-154.822	
83.00	-65.082	-123.361	
84.00	-62.638	-105.591	
85.00	-63.983	-96.660	
86.00	-62.132	-82.153	
87.00	-63.173	-46.223	
88.00	-64.956	-66.942	
89.00	-67.422	-37.327	
90.00	-78.208	-66.319	
91.00	-78.119	66.357	
92.00	-67.925	141.779	
93.00	-65.184	143.527	
94.00	-61.277	165.411	
95.00	-59.585	170.145	
96.00	-58.269	173.416	
97.00	-57.932	-171.385	
98.00	-58.233	-166.781	
99.00	-59.283	-158.172	
100.00	-59.050	-149.437	
101.00	-60.763	-127.361	
102.00	-61.268	-99.260	
103.00	-61.998	-77.919	
104.00	-61.720	-55.431	
105.00	-61.703	-35.746	
106.00	-61.076	-15.595	
107.00	-61.721	0.550	
108.00	-61.914	20.442	
109.00	-62.711	51.838	
110.00	-62.200	78.852	
111.00	-60.216	104.227	
112.00	-58.567	127.588	
113.00	-56.656	142.576	
114.00	-55.325	157.003	
115.00	-54.202	168.158	
116.00	-53.556	-178.761	
117.00	-53.488	-169.176	
118.00	-52.950	-154.838	
119.00	-52.713	-142.534	
120.00	-52.963	-131.006	
121.00	-52.856	-119.937	
122.00	-53.410	-110.853	
123.00	-54.017	-101.208	
124.00	-55.527	-90.551	
125.00	-58.562	-81.378	
126.00	-61.275	-69.100	
127.00	-69.977	-13.885	
128.00	-64.767	74.933	
129.00	-57.713	90.640	
130.00	-53.964	104.169	
131.00	-51.713	110.917	
132.00	-49.621	113.360	
133.00	-48.337	122.429	
134.00	-47.367	126.225	
135.00	-46.574	131.910	
136.00	-46.701	137.201	
137.00	-46.837	144.356	
138.00	-47.131	148.900	
139.00	-48.345	153.884	
140.00	-49.608	153.374	
141.00	-52.945	143.982	
142.00	-55.194	113.637	
143.00	-52.332	76.437	
144.00	-48.273	62.030	
145.00	-44.716	59.199	
146.00	-42.227	61.595	
147.00	-40.282	66.579	
148.00	-38.879	70.986	
149.00	-37.861	76.427	
150.00	-37.227	82.346	
151.00	-36.985	88.343	
152.00	-37.178	94.059	
153.00	-37.895	100.243	
154.00	-38.968	106.010	
155.00	-40.628	112.050	
156.00	-43.187	118.085	
157.00	-46.849	125.638	
158.00	-52.570	138.947	
159.00	-65.863	-125.540	
160.00	-54.309	-61.139	
161.00	-50.361	-50.257	
162.00	-49.555	-45.025	
163.00	-50.421	-42.249	
164.00	-53.585	-39.708	
165.00	-65.753	-41.720	
166.00	-57.529	130.968	
167.00	-49.324	137.052	
168.00	-45.763	140.072	
169.00	-43.767	138.445	
170.00	-42.565	133.596	
171.00	-42.189	131.209	
172.00	-42.196	122.447	
173.00	-43.070	110.037	
174.00	-43.646	91.879	
175.00	-43.705	66.407	
176.00	-42.800	48.060	
177.00	-42.023	33.983	
178.00	-41.959	21.199	
179.00	-43.289	9.836	
180.00	-46.774	-10.942	
181.00	-50.626	-79.599	
182.00	-42.968	-137.532	
183.00	-37.200	-151.861	
184.00	-33.265	-158.901	
185.00	-30.541	-163.746	
186.00	-28.468	-167.784	
187.00	-27.009	-171.104	
188.00	-26.041	-174.238	
189.00	-25.443	-176.996	
190.00	-25.270	-179.583	
191.00	-25.461	178.360	
192.00	-26.116	176.196	
193.00	-27.137	174.848	
194.00	-28.616	174.140	
195.00	-30.671	174.717	
196.00	-33.172	177.938	
197.00	-36.695	-173.514	
198.00	-39.965	-152.588	
199.00	-41.732	-120.328	
200.00	-40.818	-96.540	
201.00	-39.900	-86.817	
202.00	-39.816	-82.268	
203.00	-40.466	-81.187	
204.00	-42.225	-80.196	
205.00	-45.238	-80.048	
206.00	-50.030	-69.541	
207.00	-55.726	-19.582	
208.00	-51.826	26.906	
209.00	-48.018	39.289	
210.00	-46.324	39.624	
211.00	-45.328	34.267	
212.00	-45.533	28.448	
213.00	-46.409	23.410	
214.00	-48.008	14.916	
215.00	-50.485	11.492	
216.00	-53.996	7.080	
217.00	-58.598	14.616	
218.00	-63.552	52.033	
219.00	-59.717	89.755	
220.00	-55.748	96.638	
221.00	-53.559	94.779	
222.00	-52.693	89.255	
223.00	-52.022	82.949	
224.00	-51.767	78.287	
225.00	-52.000	74.664	
226.00	-52.394	74.531	
227.00	-52.739	74.520	
228.00	-53.373	75.419	
229.00	-53.702	72.169	
230.00	-54.694	74.163	
231.00	-54.902	64.279	
232.00	-56.126	53.935	
233.00	-57.209	40.282	
234.00	-58.984	12.749	
235.00	-58.901	-25.610	
236.00	-57.351	-54.828	
237.00	-55.154	-81.730	
238.00	-53.035	-99.456	
239.00	-51.852	-116.235	
240.00	-51.085	-130.808	
241.00	-50.511	-145.873	
242.00	-50.187	-160.406	
243.00	-50.386	-175.198	
244.00	-50.660	170.056	
245.00	-51.381	154.674	
246.00	-52.286	140.683	
247.00	-54.159	123.378	
248.00	-55.460	104.666	
249.00	-58.367	81.181	
250.00	-61.611	49.569	
251.00	-62.628	5.318	
252.00	-62.063	-43.423	
253.00	-60.544	-73.119	
254.00	-58.122	-103.393	
255.00	-56.499	-125.283	
256.00	-55.122	-146.910	
257.00	-55.046	-163.662	
258.00	-54.597	179.949	
259.00	-54.661	162.496	
260.00	-54.749	145.779	
261.00	-54.826	123.076	
262.00	-54.810	103.004	
263.00	-55.315	82.551	
264.00	-55.130	64.035	
265.00	-55.028	40.972	
266.00	-55.392	21.677	
267.00	-55.312	3.857	
268.00	-55.517	-16.811	
269.00	-55.858	-38.876	
270.00	-56.226	-55.515	
271.00	-57.037	-81.549	
272.00	-57.737	-101.032	
273.00	-58.134	-121.965	
274.00	-58.787	-146.847	
275.00	-60.004	-163.801	
276.00	-60.483	169.680	
277.00	-62.480	147.800	
278.00	-61.464	113.288	
279.00	-63.435	82.196	
280.00	-62.782	53.558	
281.00	-63.477	15.504	
282.00	-60.912	-17.107	
283.00	-60.669	-44.163	
284.00	-58.860	-64.858	
285.00	-59.051	-84.686	
286.00	-57.492	-105.690	
287.00	-56.940	-131.956	
288.00	-56.290	-152.684	
289.00	-56.779	-176.585	
290.00	-56.687	162.254	
291.00	-56.373	139.844	
292.00	-55.352	122.389	
293.00	-56.439	100.881	
294.00	-57.042	83.196	
295.00	-58.481	64.039	
296.00	-59.399	46.325	
297.00	-63.137	15.595	
298.00	-64.866	-29.037	
299.00	-64.590	-68.975	
300.00	-61.209	-104.578	
301.00	-60.924	-129.669	
302.00	-59.103	-152.557	
303.00	-59.461	-166.236	
304.00	-59.858	174.431	
305.00	-60.255	160.345	
306.00	-60.155	149.559	
307.00	-63.910	129.027	
308.00	-66.295	124.020	
309.00	-74.353	-12.072	
310.00	-76.535	-24.711	
311.00	-69.828	-62.103	
312.00	-66.235	-93.769	
313.00	-66.139	-112.007	
314.00	-65.279	-125.137	
315.00	-66.181	-127.374	
316.00	-65.479	-148.901	
317.00	-68.459	-160.990	
318.00	-69.581	-177.993	
319.00	-73.962	144.262	
320.00	-73.778	117.647	
321.00	-79.709	102.775	
322.00	-73.371	33.332	
323.00	-73.414	-9.633	
324.00	-70.078	-54.991	
325.00	-67.300	-54.818	
326.00	-64.803	-69.372	
327.00	-62.859	-87.754	
328.00	-64.687	-93.573	
329.00	-65.030	-107.454	
330.00	-65.725	-108.226	
331.00	-66.267	-137.982	
332.00	-68.573	-111.613	
333.00	-70.936	-107.102	
334.00	-72.798	-79.690	
335.00	-69.197	-75.785	
336.00	-66.048	-61.657	
337.00	-63.583	-53.520	
338.00	-62.284	-35.089	
339.00	-63.283	-42.411	
340.00	-61.700	-40.450	
341.00	-61.934	-44.685	
342.00	-61.897	-34.058	
343.00	-60.727	-41.522	
344.00	-61.491	-63.261	
345.00	-60.544	-74.247	
346.00	-61.182	-88.067	
347.00	-61.306	-111.140	
348.00	-60.791	-127.643	
349.00	-60.457	-145.306	
350.00	-59.102	-155.034	
351.00	-61.609	177.241	
352.00	-61.999	162.509	
353.00	-63.890	154.809	
354.00	-64.014	132.381	
355.00	-65.259	97.069	
356.00	-68.860	57.463	
357.00	-67.556	46.137	
358.00	-72.858	0.488	
359.00	-72.917	17.512	
Frequency	2050.00	MHz	
Channel	test		
Scan Axis name	Azimuth  [deg]		
Scan Axis	Amplitude	Phase	
			
0.00	-65.405	-26.881	
1.00	-63.586	0.495	
2.00	-65.410	-129.006	
3.00	-65.079	-164.940	
4.00	-61.559	-175.197	
5.00	-60.396	172.022	
6.00	-60.285	169.079	
7.00	-59.013	162.516	
8.00	-60.103	160.729	
9.00	-62.118	150.565	
10.00	-64.596	146.324	
11.00	-68.904	143.903	
12.00	-76.270	128.886	
13.00	-72.780	-2.909	
14.00	-71.150	-44.789	
15.00	-60.836	-41.813	
16.00	-68.041	-42.804	
17.00	-65.704	-85.259	
18.00	-66.633	-94.406	
19.00	-65.584	-116.536	
20.00	-65.973	-124.955	
21.00	-67.969	-121.453	
22.00	-64.911	-132.445	
23.00	-64.405	-122.704	
24.00	-68.598	-104.210	
25.00	-72.158	-92.420	
26.00	-74.078	-4.032	
27.00	-66.377	20.331	
28.00	-65.227	15.894	
29.00	-66.590	30.637	
30.00	-65.071	33.204	
31.00	-66.386	39.119	
32.00	-79.028	-39.615	
33.00	-68.843	-145.527	
34.00	-65.024	-141.187	
35.00	-62.352	-128.721	
36.00	-59.467	-119.705	
37.00	-58.666	-116.640	
38.00	-58.573	-117.700	
39.00	-59.009	-109.699	
40.00	-60.746	-107.185	
41.00	-63.214	-89.436	
42.00	-67.632	-98.246	
43.00	-78.840	-95.739	
44.00	-73.629	83.042	
45.00	-66.024	107.045	
46.00	-63.455	116.205	
47.00	-61.765	119.999	
48.00	-60.536	129.152	
49.00	-59.980	137.844	
50.00	-59.262	143.886	
51.00	-61.255	149.879	
52.00	-62.698	160.074	
53.00	-64.995	166.757	
54.00	-68.200	-172.163	
55.00	-71.301	-168.815	
56.00	-79.269	-47.337	
57.00	-67.799	-4.834	
58.00	-67.064	30.990	
59.00	-64.416	46.285	
60.00	-63.473	59.124	
61.00	-62.980	69.248	
62.00	-62.714	78.982	
63.00	-62.411	91.636	
64.00	-66.927	86.480	
65.00	-66.781	85.238	
66.00	-67.865	83.470	
67.00	-70.209	48.685	
68.00	-67.955	36.115	
69.00	-66.531	22.556	
70.00	-65.313	23.817	
71.00	-64.322	13.632	
72.00	-65.212	3.609	
73.00	-64.948	29.035	
74.00	-64.064	35.033	
75.00	-72.829	42.416	
76.00	-70.915	40.892	
77.00	-84.005	56.901	
78.00	-74.031	57.708	
79.00	-74.995	72.935	
80.00	-76.832	70.510	
81.00	-74.839	45.438	
82.00	-68.904	65.950	
83.00	-76.393	94.347	
84.00	-79.503	114.089	
85.00	-81.444	107.601	
86.00	-71.883	119.510	
87.00	-76.763	148.246	
88.00	-77.569	156.434	
89.00	-70.664	97.715	
90.00	-79.026	110.219	
91.00	-70.548	-145.142	
92.00	-74.844	127.599	
93.00	-68.654	69.495	
94.00	-65.058	56.360	
95.00	-69.783	74.311	
96.00	-67.499	71.340	
97.00	-64.294	58.231	
98.00	-65.173	46.674	
99.00	-66.515	19.739	
100.00	-65.193	16.061	
101.00	-64.215	6.891	
102.00	-62.666	6.531	
103.00	-62.907	4.816	
104.00	-61.867	10.259	
105.00	-62.215	19.739	
106.00	-62.757	32.630	
107.00	-63.123	53.497	
108.00	-63.072	76.484	
109.00	-62.357	104.179	
110.00	-60.888	122.048	
111.00	-60.404	141.658	
112.00	-60.067	158.006	
113.00	-59.414	175.715	
114.00	-59.624	-165.948	
115.00	-59.584	-145.023	
116.00	-59.778	-126.490	
117.00	-60.570	-99.618	
118.00	-59.972	-78.266	
119.00	-60.106	-63.110	
120.00	-59.969	-42.458	
121.00	-60.739	-23.679	
122.00	-62.869	-4.438	
123.00	-64.199	10.836	
124.00	-65.244	41.993	
125.00	-65.658	59.362	
126.00	-66.327	96.189	
127.00	-66.012	133.193	
128.00	-64.855	147.269	
129.00	-63.753	174.821	
130.00	-62.300	179.510	
131.00	-61.454	-158.102	
132.00	-59.719	-146.093	
133.00	-58.676	-129.470	
134.00	-57.739	-115.124	
135.00	-56.443	-100.088	
136.00	-55.078	-81.493	
137.00	-53.782	-64.629	
138.00	-52.720	-51.397	
139.00	-51.954	-36.780	
140.00	-51.417	-23.335	
141.00	-51.224	-12.401	
142.00	-51.679	-1.850	
143.00	-52.612	4.708	
144.00	-55.516	9.450	
145.00	-60.457	1.001	
146.00	-60.565	-59.638	
147.00	-53.814	-86.543	
148.00	-49.397	-83.709	
149.00	-46.274	-76.751	
150.00	-44.004	-69.046	
151.00	-42.327	-59.600	
152.00	-41.075	-50.894	
153.00	-40.275	-42.205	
154.00	-40.123	-33.126	
155.00	-40.148	-24.659	
156.00	-40.697	-16.220	
157.00	-41.966	-9.347	
158.00	-43.928	-2.771	
159.00	-47.546	3.373	
160.00	-53.001	11.741	
161.00	-90.468	124.879	
162.00	-55.713	-150.205	
163.00	-50.902	-145.431	
164.00	-48.916	-137.635	
165.00	-48.675	-126.220	
166.00	-49.864	-115.281	
167.00	-52.736	-95.106	
168.00	-55.754	-46.975	
169.00	-52.620	4.113	
170.00	-49.026	26.042	
171.00	-46.865	36.721	
172.00	-45.993	42.700	
173.00	-46.618	44.002	
174.00	-48.324	39.188	
175.00	-51.136	21.642	
176.00	-52.455	-18.576	
177.00	-49.907	-48.973	
178.00	-47.592	-56.934	
179.00	-47.195	-53.600	
180.00	-48.501	-34.746	
181.00	-48.505	13.609	
182.00	-43.057	53.324	
183.00	-37.883	67.974	
184.00	-33.926	74.115	
185.00	-31.035	77.015	
186.00	-28.911	78.493	
187.00	-27.297	79.063	
188.00	-26.210	78.513	
189.00	-25.516	77.642	
190.00	-25.302	76.491	
191.00	-25.412	74.969	
192.00	-25.982	72.947	
193.00	-26.966	70.577	
194.00	-28.420	67.738	
195.00	-30.393	64.451	
196.00	-33.119	60.115	
197.00	-36.759	54.828	
198.00	-41.884	46.368	
199.00	-51.178	22.087	
200.00	-53.794	-84.684	
201.00	-48.045	-117.134	
202.00	-46.233	-124.970	
203.00	-46.190	-132.425	
204.00	-47.576	-135.723	
205.00	-49.305	-127.091	
206.00	-53.117	-111.498	
207.00	-53.860	-82.025	
208.00	-52.004	-57.666	
209.00	-50.165	-55.757	
210.00	-49.079	-60.243	
211.00	-49.170	-67.660	
212.00	-49.667	-74.237	
213.00	-51.529	-82.738	
214.00	-53.518	-92.883	
215.00	-57.816	-101.405	
216.00	-66.505	-106.122	
217.00	-71.702	35.980	
218.00	-62.064	35.896	
219.00	-58.494	25.426	
220.00	-55.976	6.971	
221.00	-55.685	-9.271	
222.00	-55.728	-29.029	
223.00	-55.338	-52.558	
224.00	-54.954	-70.892	
225.00	-54.789	-91.582	
226.00	-54.567	-110.784	
227.00	-54.455	-124.605	
228.00	-54.665	-140.137	
229.00	-54.697	-152.946	
230.00	-54.581	-166.118	
231.00	-54.450	-175.536	
232.00	-53.935	173.982	
233.00	-53.223	163.883	
234.00	-52.404	154.287	
235.00	-51.748	146.555	
236.00	-51.108	135.937	
237.00	-50.625	126.818	
238.00	-50.595	114.597	
239.00	-50.798	101.030	
240.00	-51.528	86.614	
241.00	-51.961	67.263	
242.00	-52.750	45.744	
243.00	-53.124	22.090	
244.00	-53.170	-4.017	
245.00	-53.066	-28.332	
246.00	-52.661	-50.202	
247.00	-52.550	-71.703	
248.00	-52.595	-91.669	
249.00	-53.023	-112.369	
250.00	-53.493	-135.333	
251.00	-54.011	-157.017	
252.00	-54.273	-178.530	
253.00	-55.199	156.348	
254.00	-55.359	130.404	
255.00	-55.641	101.971	
256.00	-55.760	74.607	
257.00	-55.131	49.341	
258.00	-54.536	22.827	
259.00	-53.895	0.057	
260.00	-53.568	-23.042	
261.00	-53.042	-40.554	
262.00	-52.542	-58.816	
263.00	-52.889	-78.372	
264.00	-53.030	-97.729	
265.00	-53.077	-118.400	
266.00	-53.372	-138.987	
267.00	-53.391	-160.439	
268.00	-53.288	178.849	
269.00	-53.027	159.577	
270.00	-52.880	141.401	
271.00	-52.993	122.761	
272.00	-53.055	106.286	
273.00	-53.306	88.252	
274.00	-53.332	71.895	
275.00	-53.779	58.009	
276.00	-54.724	39.905	
277.00	-55.638	24.710	
278.00	-56.773	6.804	
279.00	-57.525	-9.428	
280.00	-59.539	-31.073	
281.00	-61.083	-50.922	
282.00	-63.967	-68.421	
283.00	-67.978	-102.694	
284.00	-66.042	-128.462	
285.00	-67.727	-173.703	
286.00	-69.632	172.578	
287.00	-69.934	142.490	
288.00	-69.660	128.452	
289.00	-72.194	121.338	
290.00	-75.054	141.668	
291.00	-75.515	145.769	
292.00	-69.912	149.887	
293.00	-66.011	145.069	
294.00	-64.496	140.754	
295.00	-61.208	122.420	
296.00	-59.574	114.226	
297.00	-58.575	99.369	
298.00	-56.943	90.783	
299.00	-57.272	86.490	
300.00	-57.305	75.839	
301.00	-57.732	67.216	
302.00	-58.906	64.763	
303.00	-60.748	54.289	
304.00	-64.006	75.282	
305.00	-64.457	98.396	
306.00	-61.159	114.910	
307.00	-59.833	115.061	
308.00	-58.385	112.076	
309.00	-57.013	106.710	
310.00	-55.998	96.156	
311.00	-55.421	87.875	
312.00	-55.230	78.892	
313.00	-55.648	68.763	
314.00	-56.569	60.526	
315.00	-59.365	51.038	
316.00	-60.898	36.025	
317.00	-65.577	18.066	
318.00	-70.463	-35.890	
319.00	-76.944	-103.640	
320.00	-66.192	-145.248	
321.00	-63.173	-166.145	
322.00	-62.273	174.289	
323.00	-61.843	156.794	
324.00	-62.189	137.480	
325.00	-62.301	111.067	
326.00	-62.615	93.130	
327.00	-59.850	76.982	
328.00	-62.890	56.206	
329.00	-62.860	48.014	
330.00	-63.601	38.726	
331.00	-65.813	37.207	
332.00	-71.792	94.398	
333.00	-68.554	44.111	
334.00	-65.876	53.238	
335.00	-68.779	56.536	
336.00	-68.861	71.664	
337.00	-69.687	63.325	
338.00	-68.947	93.230	
339.00	-66.808	83.555	
340.00	-66.220	79.048	
341.00	-64.192	94.820	
342.00	-62.999	89.715	
343.00	-63.241	92.451	
344.00	-62.814	85.230	
345.00	-63.618	82.828	
346.00	-63.314	84.872	
347.00	-62.917	80.103	
348.00	-64.977	89.394	
349.00	-64.688	80.005	
350.00	-62.472	116.482	
351.00	-62.230	95.589	
352.00	-63.530	87.841	
353.00	-61.077	73.869	
354.00	-63.026	64.424	
355.00	-60.719	55.825	
356.00	-59.846	38.842	
357.00	-61.025	22.780	
358.00	-62.807	10.059	
359.00	-61.885	-1.154	
Frequency	2170.00	MHz	
Channel	test		
Scan Axis name	Azimuth  [deg]		
Scan Axis	Amplitude	Phase	
			
0.00	-65.833	-156.754	
1.00	-65.671	-176.274	
2.00	-73.075	-169.869	
3.00	-69.803	177.745	
4.00	-75.818	110.549	
5.00	-68.158	112.487	
6.00	-72.642	83.965	
7.00	-69.146	123.854	
8.00	-71.255	109.789	
9.00	-68.422	146.124	
10.00	-76.296	135.571	
11.00	-72.839	157.597	
12.00	-73.749	131.541	
13.00	-73.300	172.597	
14.00	-78.528	124.451	
15.00	-65.685	143.921	
16.00	-80.088	68.909	
17.00	-86.755	-178.736	
18.00	-79.252	48.533	
19.00	-71.059	82.807	
20.00	-69.726	29.541	
21.00	-69.485	62.446	
22.00	-76.733	21.135	
23.00	-70.128	-31.080	
24.00	-67.925	-13.079	
25.00	-67.075	-15.256	
26.00	-62.897	-17.934	
27.00	-61.405	-19.487	
28.00	-58.796	-23.607	
29.00	-58.557	-23.548	
30.00	-58.858	-15.723	
31.00	-59.487	-16.087	
32.00	-60.130	-4.042	
33.00	-61.422	7.617	
34.00	-64.617	27.931	
35.00	-67.145	44.766	
36.00	-76.836	17.128	
37.00	-92.711	-105.095	
38.00	-82.243	74.987	
39.00	-83.486	-56.796	
40.00	-76.720	-1.639	
41.00	-75.653	-25.329	
42.00	-80.074	42.510	
43.00	-69.413	67.973	
44.00	-69.582	123.464	
45.00	-67.635	148.830	
46.00	-67.071	161.962	
47.00	-65.856	-177.402	
48.00	-66.274	-172.400	
49.00	-65.726	-153.214	
50.00	-68.248	-143.733	
51.00	-72.797	-126.880	
52.00	-76.467	-112.320	
53.00	-76.023	-18.023	
54.00	-71.369	-1.954	
55.00	-65.388	24.724	
56.00	-62.195	26.410	
57.00	-62.100	31.924	
58.00	-59.063	43.712	
59.00	-58.781	55.985	
60.00	-58.165	68.380	
61.00	-58.183	79.826	
62.00	-58.905	99.658	
63.00	-59.721	115.278	
64.00	-62.311	140.293	
65.00	-61.869	146.026	
66.00	-64.693	177.493	
67.00	-68.597	-169.251	
68.00	-72.959	-138.881	
69.00	-81.925	-17.720	
70.00	-75.581	23.406	
71.00	-67.517	48.419	
72.00	-65.189	77.952	
73.00	-63.238	95.512	
74.00	-62.841	122.914	
75.00	-62.724	127.579	
76.00	-60.602	137.441	
77.00	-60.185	-177.330	
78.00	-60.156	-177.750	
79.00	-61.942	-155.126	
80.00	-65.275	-127.126	
81.00	-67.459	-113.756	
82.00	-67.485	-32.687	
83.00	-65.354	-2.813	
84.00	-60.840	18.453	
85.00	-59.388	40.632	
86.00	-57.896	51.681	
87.00	-57.303	65.377	
88.00	-57.169	75.202	
89.00	-57.328	92.064	
90.00	-58.009	105.731	
91.00	-59.495	125.293	
92.00	-59.832	161.354	
93.00	-60.050	168.964	
94.00	-59.654	-169.519	
95.00	-60.499	-155.535	
96.00	-61.238	-133.917	
97.00	-63.017	-119.174	
98.00	-64.712	-100.669	
99.00	-68.614	-83.866	
100.00	-71.429	-59.237	
101.00	-70.538	20.152	
102.00	-70.016	71.404	
103.00	-70.188	87.828	
104.00	-67.791	91.365	
105.00	-74.084	146.347	
106.00	-72.267	-140.274	
107.00	-69.092	-88.954	
108.00	-64.343	-72.045	
109.00	-62.157	-35.697	
110.00	-60.917	-28.334	
111.00	-57.946	-20.980	
112.00	-57.204	-10.640	
113.00	-56.759	8.487	
114.00	-56.789	15.821	
115.00	-57.259	26.776	
116.00	-56.919	22.547	
117.00	-57.634	34.448	
118.00	-56.586	30.866	
119.00	-55.557	28.448	
120.00	-54.579	29.822	
121.00	-53.669	35.572	
122.00	-52.617	48.146	
123.00	-51.964	60.163	
124.00	-51.031	78.378	
125.00	-49.852	96.375	
126.00	-48.876	113.241	
127.00	-48.040	128.377	
128.00	-47.360	143.736	
129.00	-47.160	153.886	
130.00	-47.471	165.412	
131.00	-48.414	173.229	
132.00	-49.914	178.734	
133.00	-52.093	176.331	
134.00	-53.822	162.019	
135.00	-53.700	143.536	
136.00	-51.321	135.073	
137.00	-49.446	137.366	
138.00	-47.767	146.537	
139.00	-46.751	159.666	
140.00	-46.047	174.340	
141.00	-45.794	-168.289	
142.00	-45.640	-148.461	
143.00	-45.626	-129.991	
144.00	-45.855	-108.774	
145.00	-46.076	-90.679	
146.00	-46.872	-70.064	
147.00	-48.012	-49.660	
148.00	-49.618	-27.362	
149.00	-52.543	0.408	
150.00	-55.000	38.831	
151.00	-55.217	95.530	
152.00	-52.527	137.923	
153.00	-50.128	164.635	
154.00	-48.476	-177.262	
155.00	-47.209	-159.705	
156.00	-47.383	-147.599	
157.00	-48.149	-138.886	
158.00	-50.191	-127.213	
159.00	-54.513	-120.253	
160.00	-65.161	-128.551	
161.00	-60.989	89.016	
162.00	-53.400	93.638	
163.00	-50.176	98.714	
164.00	-49.062	104.093	
165.00	-49.246	108.989	
166.00	-51.383	114.685	
167.00	-56.737	118.724	
168.00	-74.306	-71.965	
169.00	-53.987	-57.241	
170.00	-48.287	-55.376	
171.00	-45.738	-52.994	
172.00	-44.317	-54.009	
173.00	-44.170	-56.725	
174.00	-45.051	-64.582	
175.00	-46.516	-79.185	
176.00	-47.929	-104.163	
177.00	-47.561	-131.291	
178.00	-46.842	-148.656	
179.00	-47.491	-159.364	
180.00	-52.543	-158.308	
181.00	-56.132	-12.325	
182.00	-42.567	-0.731	
183.00	-36.343	-0.875	
184.00	-32.170	-1.353	
185.00	-29.144	-2.453	
186.00	-26.878	-4.119	
187.00	-25.222	-5.627	
188.00	-24.083	-7.234	
189.00	-23.384	-9.331	
190.00	-23.122	-11.227	
191.00	-23.293	-13.290	
192.00	-23.892	-15.711	
193.00	-24.913	-17.987	
194.00	-26.517	-20.558	
195.00	-28.732	-23.032	
196.00	-31.761	-25.242	
197.00	-36.328	-27.231	
198.00	-43.887	-25.745	
199.00	-57.721	112.941	
200.00	-44.430	135.600	
201.00	-41.005	136.334	
202.00	-40.138	136.307	
203.00	-40.549	138.095	
204.00	-41.931	144.433	
205.00	-43.800	155.140	
206.00	-44.929	174.164	
207.00	-44.676	-167.900	
208.00	-43.901	-158.707	
209.00	-43.423	-155.842	
210.00	-43.572	-159.733	
211.00	-44.332	-165.917	
212.00	-45.976	-177.077	
213.00	-48.161	168.785	
214.00	-50.686	147.102	
215.00	-52.869	116.798	
216.00	-53.838	82.289	
217.00	-53.528	57.835	
218.00	-53.926	44.196	
219.00	-54.985	37.960	
220.00	-56.487	33.971	
221.00	-58.008	59.609	
222.00	-56.629	78.927	
223.00	-54.576	93.254	
224.00	-52.462	92.682	
225.00	-50.881	88.503	
226.00	-49.836	79.492	
227.00	-49.361	71.778	
228.00	-49.091	61.914	
229.00	-49.134	54.731	
230.00	-49.780	47.583	
231.00	-50.046	44.635	
232.00	-50.755	43.710	
233.00	-51.601	44.499	
234.00	-52.194	49.172	
235.00	-52.251	55.686	
236.00	-51.827	59.306	
237.00	-51.262	62.493	
238.00	-50.746	62.014	
239.00	-50.075	61.967	
240.00	-49.920	56.787	
241.00	-49.358	52.620	
242.00	-49.125	45.811	
243.00	-48.976	40.222	
244.00	-48.522	32.424	
245.00	-48.385	24.752	
246.00	-48.326	19.990	
247.00	-48.530	10.241	
248.00	-49.241	2.348	
249.00	-49.445	-11.691	
250.00	-50.003	-22.637	
251.00	-50.938	-35.793	
252.00	-51.509	-54.214	
253.00	-52.238	-65.985	
254.00	-53.359	-80.120	
255.00	-53.673	-115.418	
256.00	-54.418	-127.596	
257.00	-54.089	-146.041	
258.00	-54.685	-176.178	
259.00	-56.373	152.037	
260.00	-53.874	141.302	
261.00	-55.022	134.276	
262.00	-55.341	114.185	
263.00	-54.868	102.588	
264.00	-56.357	90.274	
265.00	-57.256	85.308	
266.00	-57.503	64.199	
267.00	-59.797	46.385	
268.00	-61.555	36.138	
269.00	-64.516	14.102	
270.00	-67.329	-3.015	
271.00	-73.251	-22.607	
272.00	-77.963	-41.280	
273.00	-92.992	-123.752	
274.00	-74.260	121.144	
275.00	-70.546	133.371	
276.00	-67.214	104.045	
277.00	-65.198	88.148	
278.00	-63.717	74.672	
279.00	-62.433	62.281	
280.00	-61.806	50.373	
281.00	-61.212	36.442	
282.00	-61.289	27.678	
283.00	-60.780	16.127	
284.00	-61.721	4.330	
285.00	-62.137	-10.862	
286.00	-63.962	-29.552	
287.00	-63.941	-76.725	
288.00	-64.749	-103.019	
289.00	-62.745	-131.457	
290.00	-60.945	-147.750	
291.00	-59.743	-161.266	
292.00	-59.387	-169.387	
293.00	-58.381	-179.541	
294.00	-58.516	172.776	
295.00	-58.636	167.673	
296.00	-59.694	166.558	
297.00	-60.423	162.846	
298.00	-60.611	167.502	
299.00	-63.645	150.521	
300.00	-64.501	146.733	
301.00	-63.490	130.026	
302.00	-63.766	137.322	
303.00	-63.810	131.275	
304.00	-65.346	120.210	
305.00	-63.059	110.710	
306.00	-65.333	93.071	
307.00	-64.335	91.646	
308.00	-68.164	94.235	
309.00	-67.904	131.986	
310.00	-63.361	91.972	
311.00	-69.063	76.232	
312.00	-65.200	81.844	
313.00	-62.872	82.540	
314.00	-62.386	75.484	
315.00	-66.763	101.637	
316.00	-66.073	73.084	
317.00	-67.661	101.735	
318.00	-60.435	61.808	
319.00	-61.683	90.000	
320.00	-66.430	93.328	
321.00	-74.113	165.079	
322.00	-81.120	122.836	
323.00	-69.743	110.116	
324.00	-69.248	72.683	
325.00	-72.119	95.612	
326.00	-71.168	62.847	
327.00	-68.900	44.817	
328.00	-73.369	5.152	
329.00	-77.847	-14.205	
330.00	-74.189	-10.640	
331.00	-66.468	-96.504	
332.00	-69.287	-53.357	
333.00	-66.616	-89.762	
334.00	-65.892	-99.212	
335.00	-62.869	-114.331	
336.00	-61.696	-107.199	
337.00	-62.425	-136.713	
338.00	-62.588	-152.534	
339.00	-62.632	179.903	
340.00	-68.780	168.099	
341.00	-78.424	135.836	
342.00	-68.995	146.744	
343.00	-65.419	-132.674	
344.00	-80.694	-102.022	
345.00	-71.067	-110.647	
346.00	-71.309	149.787	
347.00	-63.378	172.024	
348.00	-67.622	135.958	
349.00	-65.856	140.458	
350.00	-62.340	103.961	
351.00	-60.129	112.118	
352.00	-72.115	64.445	
353.00	-66.253	66.421	
354.00	-78.267	36.513	
355.00	-75.097	28.288	
356.00	-76.516	-60.030	
357.00	-71.967	-85.111	
358.00	-68.299	-132.479	
359.00	-70.631	-174.458	
Frequency	2300.00	MHz	
Channel	test		
Scan Axis name	Azimuth  [deg]		
Scan Axis	Amplitude	Phase	
			
0.00	-61.990	45.247	
1.00	-62.133	38.022	
2.00	-63.253	23.803	
3.00	-62.585	16.848	
4.00	-63.600	0.305	
5.00	-64.745	-10.890	
6.00	-65.146	-24.615	
7.00	-65.198	-52.940	
8.00	-62.705	-43.970	
9.00	-66.809	-60.504	
10.00	-64.940	-69.373	
11.00	-63.899	-75.966	
12.00	-65.433	-85.850	
13.00	-66.827	-78.681	
14.00	-62.488	-71.493	
15.00	-67.437	-88.444	
16.00	-65.591	-75.143	
17.00	-66.859	-72.795	
18.00	-65.161	-64.316	
19.00	-64.459	-53.595	
20.00	-64.014	-31.327	
21.00	-67.569	-20.404	
22.00	-66.167	-14.948	
23.00	-71.166	31.031	
24.00	-70.128	49.068	
25.00	-66.254	77.705	
26.00	-66.109	96.865	
27.00	-64.123	95.840	
28.00	-64.357	108.671	
29.00	-63.947	110.869	
30.00	-63.003	112.433	
31.00	-63.335	107.209	
32.00	-63.382	110.018	
33.00	-63.149	97.653	
34.00	-62.826	97.549	
35.00	-61.493	110.441	
36.00	-61.508	114.944	
37.00	-61.252	125.823	
38.00	-62.256	132.935	
39.00	-64.219	140.985	
40.00	-65.857	138.495	
41.00	-68.031	120.545	
42.00	-67.956	93.899	
43.00	-69.985	82.426	
44.00	-67.215	78.741	
45.00	-66.303	80.212	
46.00	-68.920	79.445	
47.00	-70.446	70.221	
48.00	-74.043	116.554	
49.00	-74.612	124.084	
50.00	-71.701	178.611	
51.00	-66.273	-150.144	
52.00	-68.725	-158.134	
53.00	-68.263	-148.901	
54.00	-69.145	-141.065	
55.00	-71.435	-144.884	
56.00	-77.010	-139.128	
57.00	-79.573	153.753	
58.00	-81.800	120.938	
59.00	-70.079	110.509	
60.00	-68.282	140.803	
61.00	-64.176	150.708	
62.00	-63.813	179.709	
63.00	-63.689	-154.534	
64.00	-62.574	-131.967	
65.00	-61.771	-91.893	
66.00	-59.770	-78.312	
67.00	-59.180	-56.572	
68.00	-59.176	-44.578	
69.00	-59.990	-27.567	
70.00	-61.236	-20.992	
71.00	-63.529	-5.963	
72.00	-67.255	-5.963	
73.00	-77.526	-34.357	
74.00	-76.599	-86.864	
75.00	-76.580	-56.503	
76.00	-70.005	-69.138	
77.00	-66.043	-24.703	
78.00	-66.174	-20.922	
79.00	-64.729	4.499	
80.00	-66.446	19.220	
81.00	-66.088	47.544	
82.00	-65.961	75.502	
83.00	-68.724	113.574	
84.00	-70.320	155.215	
85.00	-68.548	-141.338	
86.00	-62.282	-116.643	
87.00	-63.232	-108.299	
88.00	-60.306	-94.373	
89.00	-61.041	-82.991	
90.00	-55.650	-63.209	
91.00	-62.112	-48.067	
92.00	-56.433	-35.163	
93.00	-59.196	-42.873	
94.00	-75.236	-115.708	
95.00	-96.600	-126.131	
96.00	-62.084	-96.735	
97.00	-61.916	-49.695	
98.00	-62.700	-88.886	
99.00	-60.598	-69.849	
100.00	-60.255	-57.835	
101.00	-58.851	-28.643	
102.00	-60.745	-5.527	
103.00	-60.814	9.453	
104.00	-61.578	41.083	
105.00	-60.671	78.463	
106.00	-59.541	112.245	
107.00	-57.548	140.427	
108.00	-56.444	156.109	
109.00	-55.197	179.639	
110.00	-54.264	-167.895	
111.00	-54.064	-148.820	
112.00	-54.237	-137.849	
113.00	-55.318	-119.412	
114.00	-56.439	-106.477	
115.00	-58.264	-94.858	
116.00	-60.865	-75.627	
117.00	-62.984	-56.860	
118.00	-64.492	-43.361	
119.00	-65.794	-39.091	
120.00	-65.289	-43.653	
121.00	-62.740	-51.031	
122.00	-61.350	-53.862	
123.00	-59.417	-52.010	
124.00	-58.732	-46.791	
125.00	-58.290	-38.611	
126.00	-60.633	-33.162	
127.00	-66.214	-34.333	
128.00	-78.455	-63.449	
129.00	-65.065	-153.402	
130.00	-59.426	-155.284	
131.00	-56.969	-146.146	
132.00	-54.833	-136.034	
133.00	-54.543	-122.960	
134.00	-54.897	-110.062	
135.00	-55.765	-101.906	
136.00	-58.518	-89.107	
137.00	-62.046	-93.568	
138.00	-65.204	-144.545	
139.00	-58.565	177.107	
140.00	-53.680	-177.039	
141.00	-50.667	-169.673	
142.00	-49.022	-159.781	
143.00	-48.193	-147.711	
144.00	-48.338	-135.558	
145.00	-49.036	-121.094	
146.00	-50.739	-102.049	
147.00	-53.198	-74.149	
148.00	-55.603	-32.512	
149.00	-54.647	13.995	
150.00	-51.976	45.876	
151.00	-50.137	64.289	
152.00	-48.894	75.617	
153.00	-49.028	83.583	
154.00	-49.860	85.946	
155.00	-51.585	82.602	
156.00	-52.873	69.266	
157.00	-53.788	44.246	
158.00	-52.745	32.111	
159.00	-51.711	26.193	
160.00	-51.613	27.603	
161.00	-53.671	33.427	
162.00	-57.412	44.654	
163.00	-66.815	89.506	
164.00	-61.257	-169.995	
165.00	-54.962	-149.659	
166.00	-52.936	-137.830	
167.00	-52.845	-126.484	
168.00	-54.749	-106.567	
169.00	-57.075	-60.570	
170.00	-53.886	-12.070	
171.00	-49.745	8.598	
172.00	-47.273	17.047	
173.00	-46.186	17.624	
174.00	-46.506	11.565	
175.00	-47.835	-3.284	
176.00	-48.395	-31.740	
177.00	-46.885	-63.277	
178.00	-44.749	-81.925	
179.00	-43.657	-94.717	
180.00	-44.415	-105.853	
181.00	-48.200	-130.372	
182.00	-48.794	143.141	
183.00	-40.194	105.879	
184.00	-34.618	94.586	
185.00	-30.865	88.717	
186.00	-28.153	84.515	
187.00	-26.179	80.871	
188.00	-24.850	77.481	
189.00	-24.012	73.926	
190.00	-23.674	70.637	
191.00	-23.795	67.076	
192.00	-24.383	63.521	
193.00	-25.439	60.030	
194.00	-27.055	56.281	
195.00	-29.323	52.846	
196.00	-32.352	49.890	
197.00	-36.817	47.945	
198.00	-43.656	49.132	
199.00	-58.714	119.916	
200.00	-47.843	-162.219	
201.00	-44.609	-159.054	
202.00	-44.413	-156.428	
203.00	-45.730	-150.077	
204.00	-47.789	-131.702	
205.00	-47.960	-104.231	
206.00	-46.225	-85.018	
207.00	-44.655	-80.151	
208.00	-43.837	-81.048	
209.00	-44.047	-85.529	
210.00	-45.229	-92.200	
211.00	-47.610	-100.624	
212.00	-51.815	-113.924	
213.00	-59.368	-129.506	
214.00	-65.491	91.256	
215.00	-57.071	56.462	
216.00	-53.864	39.449	
217.00	-53.495	25.558	
218.00	-55.316	10.272	
219.00	-59.809	-5.876	
220.00	-65.144	-86.153	
221.00	-60.318	-158.896	
222.00	-55.383	177.442	
223.00	-52.789	158.293	
224.00	-51.518	143.405	
225.00	-51.544	131.800	
226.00	-52.544	119.426	
227.00	-54.793	110.247	
228.00	-59.106	99.290	
229.00	-67.106	127.710	
230.00	-62.723	-174.290	
231.00	-56.562	-166.383	
232.00	-53.588	-176.374	
233.00	-51.372	170.973	
234.00	-50.069	156.964	
235.00	-49.346	142.784	
236.00	-49.351	127.681	
237.00	-49.594	111.909	
238.00	-50.511	96.626	
239.00	-51.770	78.223	
240.00	-53.140	56.475	
241.00	-55.447	33.756	
242.00	-57.134	4.789	
243.00	-58.069	-24.909	
244.00	-58.527	-51.268	
245.00	-58.883	-72.288	
246.00	-59.564	-85.217	
247.00	-61.408	-90.129	
248.00	-64.166	-91.368	
249.00	-67.380	-77.231	
250.00	-65.776	-50.045	
251.00	-64.478	-29.350	
252.00	-63.730	-32.392	
253.00	-62.106	-37.719	
254.00	-62.090	-47.294	
255.00	-62.628	-64.526	
256.00	-63.380	-83.500	
257.00	-64.138	-109.376	
258.00	-64.266	-133.025	
259.00	-65.873	-150.527	
260.00	-66.607	177.672	
261.00	-66.298	147.616	
262.00	-65.592	135.260	
263.00	-65.614	107.678	
264.00	-63.953	87.900	
265.00	-63.758	80.332	
266.00	-63.611	65.311	
267.00	-64.512	64.077	
268.00	-65.316	61.767	
269.00	-66.335	52.717	
270.00	-69.643	45.029	
271.00	-71.008	53.472	
272.00	-75.236	41.307	
273.00	-79.957	-26.559	
274.00	-82.832	-80.232	
275.00	-73.030	-106.651	
276.00	-68.981	-113.639	
277.00	-69.218	-112.873	
278.00	-67.884	-111.292	
279.00	-67.225	-121.330	
280.00	-68.820	-136.710	
281.00	-67.818	-132.637	
282.00	-68.815	-152.360	
283.00	-75.667	-150.713	
284.00	-84.796	172.721	
285.00	-81.810	-6.322	
286.00	-77.917	-23.803	
287.00	-68.859	-33.814	
288.00	-68.379	-41.232	
289.00	-65.739	-51.796	
290.00	-65.537	-65.719	
291.00	-66.450	-66.141	
292.00	-67.950	-81.616	
293.00	-66.859	-77.935	
294.00	-68.947	-88.852	
295.00	-68.135	-83.784	
296.00	-69.471	-101.338	
297.00	-68.574	-65.573	
298.00	-67.599	-67.745	
299.00	-64.423	-75.021	
300.00	-64.490	-74.525	
301.00	-63.582	-80.684	
302.00	-63.281	-71.794	
303.00	-63.537	-83.541	
304.00	-64.524	-85.277	
305.00	-63.772	-84.090	
306.00	-65.273	-87.207	
307.00	-64.823	-78.245	
308.00	-64.402	-73.571	
309.00	-63.417	-70.816	
310.00	-61.656	-73.888	
311.00	-60.840	-78.798	
312.00	-60.548	-83.277	
313.00	-60.184	-81.471	
314.00	-61.046	-84.161	
315.00	-62.084	-84.857	
316.00	-63.973	-79.114	
317.00	-63.988	-69.775	
318.00	-65.346	-67.016	
319.00	-66.106	-61.041	
320.00	-65.348	-43.413	
321.00	-65.094	-39.461	
322.00	-65.127	-49.067	
323.00	-65.577	-49.253	
324.00	-66.125	-42.690	
325.00	-67.446	-48.354	
326.00	-68.245	-32.669	
327.00	-66.249	-14.756	
328.00	-65.075	-12.757	
329.00	-63.121	-14.466	
330.00	-62.002	-18.638	
331.00	-62.358	-31.848	
332.00	-62.344	-46.071	
333.00	-63.380	-58.479	
334.00	-65.229	-79.465	
335.00	-67.528	-85.759	
336.00	-70.647	-92.878	
337.00	-75.493	-75.947	
338.00	-76.403	-26.769	
339.00	-69.790	-2.473	
340.00	-66.528	-10.772	
341.00	-64.271	-16.785	
342.00	-63.531	-27.465	
343.00	-61.376	-38.319	
344.00	-60.573	-47.709	
345.00	-60.111	-64.708	
346.00	-61.002	-75.845	
347.00	-61.474	-96.273	
348.00	-62.995	-113.918	
349.00	-63.943	-140.148	
350.00	-63.182	-177.748	
351.00	-62.524	158.741	
352.00	-61.808	143.115	
353.00	-62.238	131.511	
354.00	-60.551	116.671	
355.00	-60.882	101.389	
356.00	-61.557	88.876	
357.00	-61.975	76.980	
358.00	-61.757	64.699	
359.00	-60.943	55.199	
Frequency	2350.00	MHz	
Channel	test		
Scan Axis name	Azimuth  [deg]		
Scan Axis	Amplitude	Phase	
			
0.00	-65.539	-150.407	
1.00	-65.711	-159.625	
2.00	-65.974	-169.790	
3.00	-66.961	-169.421	
4.00	-70.455	-178.592	
5.00	-77.263	-174.312	
6.00	-87.201	29.091	
7.00	-73.824	-13.497	
8.00	-69.848	-16.246	
9.00	-66.701	-24.123	
10.00	-66.659	-26.166	
11.00	-66.395	-25.328	
12.00	-68.583	-25.966	
13.00	-71.975	-34.187	
14.00	-79.849	-48.437	
15.00	-82.197	-136.759	
16.00	-76.869	167.999	
17.00	-73.034	144.596	
18.00	-68.394	127.053	
19.00	-64.454	120.923	
20.00	-61.639	119.429	
21.00	-60.099	121.938	
22.00	-58.937	125.242	
23.00	-59.151	130.104	
24.00	-59.886	136.232	
25.00	-60.941	149.490	
26.00	-62.852	164.381	
27.00	-64.587	-167.496	
28.00	-64.359	-129.543	
29.00	-63.594	-99.360	
30.00	-62.729	-80.085	
31.00	-62.971	-69.406	
32.00	-63.736	-50.123	
33.00	-67.310	-55.685	
34.00	-70.386	-50.329	
35.00	-73.344	-55.507	
36.00	-71.326	-81.159	
37.00	-70.255	-66.427	
38.00	-69.415	-50.315	
39.00	-68.243	-31.883	
40.00	-67.142	-15.857	
41.00	-68.252	-2.584	
42.00	-67.436	-3.269	
43.00	-69.342	4.635	
44.00	-69.253	19.405	
45.00	-69.800	1.430	
46.00	-72.500	40.658	
47.00	-75.043	38.387	
48.00	-77.336	71.933	
49.00	-85.003	95.304	
50.00	-81.341	5.288	
51.00	-73.211	-16.293	
52.00	-67.208	7.768	
53.00	-64.959	24.744	
54.00	-62.502	43.705	
55.00	-61.043	65.373	
56.00	-60.660	89.094	
57.00	-59.839	114.094	
58.00	-59.844	135.638	
59.00	-61.380	166.595	
60.00	-62.078	-162.421	
61.00	-63.867	-126.814	
62.00	-64.560	-72.986	
63.00	-62.938	-25.558	
64.00	-60.442	5.922	
65.00	-58.552	32.349	
66.00	-57.928	51.359	
67.00	-57.285	66.939	
68.00	-58.682	82.351	
69.00	-61.722	91.774	
70.00	-69.064	86.080	
71.00	-72.654	-6.700	
72.00	-62.147	-20.263	
73.00	-58.091	-13.587	
74.00	-56.396	-3.588	
75.00	-56.928	13.583	
76.00	-57.149	32.754	
77.00	-58.980	56.678	
78.00	-59.979	97.472	
79.00	-59.446	141.318	
80.00	-58.077	177.142	
81.00	-56.097	-155.384	
82.00	-55.000	-130.067	
83.00	-53.800	-106.174	
84.00	-53.607	-81.862	
85.00	-52.993	-61.147	
86.00	-52.988	-40.871	
87.00	-53.097	-19.958	
88.00	-52.862	1.520	
89.00	-53.485	35.799	
90.00	-55.312	60.519	
91.00	-52.764	80.331	
92.00	-50.270	109.675	
93.00	-54.240	135.739	
94.00	-51.909	155.718	
95.00	-53.175	168.123	
96.00	-55.929	-172.774	
97.00	-54.630	-154.477	
98.00	-55.064	-129.940	
99.00	-58.001	-93.238	
100.00	-60.406	-82.358	
101.00	-60.343	-31.870	
102.00	-61.672	10.188	
103.00	-61.132	24.031	
104.00	-62.735	43.390	
105.00	-65.713	55.736	
106.00	-71.637	49.592	
107.00	-72.088	-50.747	
108.00	-64.902	-65.095	
109.00	-60.937	-45.000	
110.00	-59.250	-40.056	
111.00	-58.552	-25.409	
112.00	-58.629	-10.399	
113.00	-60.648	11.303	
114.00	-63.063	42.353	
115.00	-64.048	80.517	
116.00	-62.916	127.385	
117.00	-61.374	163.386	
118.00	-59.581	-169.180	
119.00	-58.975	-147.759	
120.00	-59.485	-120.473	
121.00	-60.140	-94.471	
122.00	-59.833	-54.425	
123.00	-58.911	-20.550	
124.00	-57.116	7.653	
125.00	-55.709	26.707	
126.00	-54.959	41.056	
127.00	-55.385	48.045	
128.00	-56.561	50.549	
129.00	-58.460	44.015	
130.00	-59.425	22.101	
131.00	-58.142	2.080	
132.00	-56.198	-6.939	
133.00	-54.685	-1.741	
134.00	-53.709	8.342	
135.00	-53.916	18.920	
136.00	-53.943	36.839	
137.00	-54.386	50.027	
138.00	-55.787	66.541	
139.00	-57.836	75.306	
140.00	-60.768	71.377	
141.00	-64.700	37.131	
142.00	-61.239	-10.752	
143.00	-57.214	-17.191	
144.00	-55.236	-14.541	
145.00	-54.650	-6.748	
146.00	-55.874	0.421	
147.00	-59.582	12.643	
148.00	-70.486	59.672	
149.00	-61.190	172.300	
150.00	-54.063	-173.715	
151.00	-50.579	-168.255	
152.00	-48.686	-165.359	
153.00	-47.546	-165.296	
154.00	-47.282	-166.558	
155.00	-47.497	-172.230	
156.00	-47.671	-178.255	
157.00	-48.029	172.490	
158.00	-48.397	164.261	
159.00	-48.882	156.336	
160.00	-49.842	148.201	
161.00	-51.295	139.079	
162.00	-53.302	120.970	
163.00	-54.739	92.748	
164.00	-54.381	60.500	
165.00	-52.901	39.223	
166.00	-52.151	26.676	
167.00	-52.902	16.952	
168.00	-56.043	5.070	
169.00	-63.188	-41.976	
170.00	-57.511	-133.092	
171.00	-51.396	-150.912	
172.00	-48.283	-159.155	
173.00	-47.010	-167.777	
174.00	-47.086	179.836	
175.00	-48.004	158.050	
176.00	-48.157	124.096	
177.00	-46.153	91.398	
178.00	-43.934	70.033	
179.00	-42.547	53.472	
180.00	-42.323	36.602	
181.00	-43.145	11.769	
182.00	-43.013	-29.641	
183.00	-39.537	-68.242	
184.00	-35.318	-90.762	
185.00	-31.937	-103.275	
186.00	-29.325	-111.578	
187.00	-27.459	-118.241	
188.00	-26.204	-123.917	
189.00	-25.476	-129.105	
190.00	-25.245	-133.817	
191.00	-25.509	-138.156	
192.00	-26.240	-142.454	
193.00	-27.473	-146.400	
194.00	-29.314	-150.173	
195.00	-31.885	-153.051	
196.00	-35.370	-154.912	
197.00	-40.350	-153.187	
198.00	-48.439	-137.829	
199.00	-52.995	-50.842	
200.00	-47.676	-20.455	
201.00	-46.439	-12.748	
202.00	-47.093	-5.098	
203.00	-48.935	10.258	
204.00	-49.377	35.642	
205.00	-48.144	53.861	
206.00	-46.751	60.309	
207.00	-46.219	57.394	
208.00	-46.467	49.479	
209.00	-47.673	36.140	
210.00	-49.336	19.263	
211.00	-51.376	-1.990	
212.00	-53.493	-27.764	
213.00	-55.216	-55.041	
214.00	-57.111	-82.164	
215.00	-60.476	-105.505	
216.00	-66.322	-128.923	
217.00	-80.776	145.592	
218.00	-66.801	38.859	
219.00	-61.458	5.068	
220.00	-59.471	-13.013	
221.00	-57.817	-38.355	
222.00	-57.646	-63.541	
223.00	-57.301	-92.634	
224.00	-57.205	-115.276	
225.00	-57.894	-137.388	
226.00	-59.154	-159.098	
227.00	-63.932	-167.492	
228.00	-74.612	-127.049	
229.00	-63.687	-51.183	
230.00	-57.342	-59.943	
231.00	-53.812	-74.590	
232.00	-51.361	-89.560	
233.00	-49.687	-105.450	
234.00	-48.743	-120.636	
235.00	-48.329	-135.817	
236.00	-48.470	-151.072	
237.00	-49.145	-166.366	
238.00	-50.666	177.000	
239.00	-53.013	157.087	
240.00	-56.298	130.962	
241.00	-59.466	86.707	
242.00	-59.504	31.351	
243.00	-57.213	-4.877	
244.00	-55.852	-31.307	
245.00	-55.276	-52.708	
246.00	-55.601	-72.899	
247.00	-56.650	-97.340	
248.00	-57.989	-126.071	
249.00	-58.822	-160.502	
250.00	-58.356	163.323	
251.00	-57.286	134.436	
252.00	-56.176	111.577	
253.00	-55.750	92.912	
254.00	-55.790	75.687	
255.00	-56.287	57.844	
256.00	-57.184	40.781	
257.00	-58.415	21.880	
258.00	-59.995	2.824	
259.00	-61.414	-17.113	
260.00	-63.244	-38.713	
261.00	-65.232	-57.682	
262.00	-67.720	-81.350	
263.00	-70.812	-106.864	
264.00	-74.337	-142.947	
265.00	-76.441	170.969	
266.00	-76.409	141.113	
267.00	-78.999	99.535	
268.00	-79.596	59.695	
269.00	-79.922	38.495	
270.00	-78.855	-25.892	
271.00	-77.140	-57.901	
272.00	-74.901	-98.408	
273.00	-74.120	-127.736	
274.00	-71.696	-153.652	
275.00	-69.179	-174.188	
276.00	-67.675	174.127	
277.00	-66.695	159.421	
278.00	-66.608	148.612	
279.00	-66.624	135.893	
280.00	-67.117	125.115	
281.00	-68.034	114.620	
282.00	-69.092	101.457	
283.00	-70.221	90.548	
284.00	-72.415	81.461	
285.00	-74.211	78.569	
286.00	-76.994	87.961	
287.00	-79.378	115.085	
288.00	-79.943	145.198	
289.00	-82.867	163.737	
290.00	-85.453	-112.508	
291.00	-79.911	-74.210	
292.00	-74.197	-73.590	
293.00	-71.283	-74.158	
294.00	-68.921	-80.611	
295.00	-68.176	-94.223	
296.00	-67.013	-109.433	
297.00	-66.332	-131.509	
298.00	-65.606	-150.017	
299.00	-64.997	-167.662	
300.00	-64.122	172.126	
301.00	-63.886	152.079	
302.00	-63.177	131.204	
303.00	-62.915	111.785	
304.00	-62.674	94.526	
305.00	-62.459	78.413	
306.00	-62.725	62.908	
307.00	-63.596	49.797	
308.00	-65.021	37.113	
309.00	-66.737	25.709	
310.00	-68.548	8.940	
311.00	-69.856	-6.012	
312.00	-70.677	-17.689	
313.00	-71.145	-25.227	
314.00	-71.033	-24.104	
315.00	-71.789	-21.745	
316.00	-73.357	-16.718	
317.00	-75.353	9.129	
318.00	-75.010	42.295	
319.00	-72.897	59.981	
320.00	-70.920	65.450	
321.00	-72.257	69.131	
322.00	-75.564	60.192	
323.00	-84.793	75.484	
324.00	-78.709	-156.390	
325.00	-71.187	-155.886	
326.00	-67.900	-168.175	
327.00	-66.194	172.453	
328.00	-65.031	155.920	
329.00	-64.438	136.616	
330.00	-64.089	113.768	
331.00	-64.144	88.498	
332.00	-63.950	65.399	
333.00	-63.203	39.806	
334.00	-62.272	18.097	
335.00	-61.456	2.852	
336.00	-61.754	-6.424	
337.00	-62.720	-14.045	
338.00	-64.368	-17.426	
339.00	-67.530	-15.212	
340.00	-71.210	-3.121	
341.00	-73.341	19.914	
342.00	-72.638	42.009	
343.00	-72.485	56.431	
344.00	-73.448	61.829	
345.00	-73.807	82.188	
346.00	-74.466	123.909	
347.00	-73.950	152.522	
348.00	-71.170	174.669	
349.00	-68.850	-166.420	
350.00	-67.213	-150.424	
351.00	-66.051	-137.786	
352.00	-64.681	-129.066	
353.00	-63.655	-121.288	
354.00	-62.961	-116.406	
355.00	-62.246	-111.781	
356.00	-62.052	-111.710	
357.00	-62.634	-115.100	
358.00	-63.857	-120.298	
359.00	-64.746	-129.164	
Frequency	2400.00	MHz	
Channel	test		
Scan Axis name	Azimuth  [deg]		
Scan Axis	Amplitude	Phase	
			
0.00	-66.668	123.738	
1.00	-64.260	126.864	
2.00	-64.019	126.409	
3.00	-63.646	121.510	
4.00	-62.699	115.948	
5.00	-62.054	101.683	
6.00	-62.288	106.090	
7.00	-63.846	113.118	
8.00	-65.061	95.531	
9.00	-67.633	84.110	
10.00	-69.157	93.678	
11.00	-75.205	77.614	
12.00	-80.828	90.249	
13.00	-81.036	-130.271	
14.00	-74.772	-126.550	
15.00	-72.086	-116.229	
16.00	-70.712	-108.640	
17.00	-71.131	-107.857	
18.00	-71.212	-120.838	
19.00	-70.490	-122.189	
20.00	-66.650	-115.258	
21.00	-66.734	-112.199	
22.00	-66.517	-93.165	
23.00	-64.579	-71.166	
24.00	-62.505	-51.442	
25.00	-65.182	-48.280	
26.00	-65.931	-45.947	
27.00	-67.163	-41.983	
28.00	-69.716	-42.464	
29.00	-77.320	-82.137	
30.00	-84.038	103.399	
31.00	-72.506	149.089	
32.00	-70.130	166.234	
33.00	-70.136	173.511	
34.00	-70.076	-143.184	
35.00	-82.267	-90.122	
36.00	-70.863	-17.393	
37.00	-66.543	22.939	
38.00	-64.226	51.672	
39.00	-63.539	75.875	
40.00	-63.191	99.566	
41.00	-63.532	129.229	
42.00	-65.767	162.474	
43.00	-65.561	176.856	
44.00	-66.435	-168.493	
45.00	-68.397	-166.961	
46.00	-70.423	-157.616	
47.00	-72.131	-162.570	
48.00	-74.017	-153.287	
49.00	-89.013	170.198	
50.00	-74.902	89.549	
51.00	-66.698	68.578	
52.00	-65.927	94.068	
53.00	-63.822	110.115	
54.00	-61.982	134.603	
55.00	-60.751	156.669	
56.00	-60.325	179.777	
57.00	-61.083	-162.645	
58.00	-62.017	-137.826	
59.00	-67.559	-112.880	
60.00	-72.038	-50.709	
61.00	-66.984	44.064	
62.00	-62.216	78.701	
63.00	-61.183	107.050	
64.00	-59.967	130.424	
65.00	-60.640	158.748	
66.00	-61.173	-163.626	
67.00	-60.245	-118.155	
68.00	-58.123	-82.819	
69.00	-57.047	-55.555	
70.00	-56.188	-33.936	
71.00	-56.776	-12.522	
72.00	-58.747	11.461	
73.00	-60.702	52.834	
74.00	-60.357	113.599	
75.00	-57.812	155.196	
76.00	-55.324	-177.208	
77.00	-53.801	-154.156	
78.00	-53.073	-133.645	
79.00	-53.026	-108.839	
80.00	-53.229	-81.372	
81.00	-53.003	-52.775	
82.00	-52.680	-24.063	
83.00	-52.493	2.323	
84.00	-51.977	28.398	
85.00	-51.844	53.687	
86.00	-52.012	80.022	
87.00	-51.795	105.997	
88.00	-51.882	130.547	
89.00	-51.844	162.192	
90.00	-51.749	-174.746	
91.00	-51.053	-148.612	
92.00	-50.623	-119.850	
93.00	-53.489	-89.977	
94.00	-52.035	-80.275	
95.00	-54.181	-45.292	
96.00	-51.108	-40.663	
97.00	-50.489	5.662	
98.00	-52.138	16.536	
99.00	-53.046	34.774	
100.00	-53.615	65.873	
101.00	-54.470	106.009	
102.00	-54.271	135.260	
103.00	-54.413	161.489	
104.00	-54.402	-176.373	
105.00	-54.614	-154.792	
106.00	-54.984	-139.027	
107.00	-56.875	-117.571	
108.00	-59.042	-107.207	
109.00	-63.264	-91.532	
110.00	-70.355	-73.576	
111.00	-82.554	69.153	
112.00	-66.711	117.162	
113.00	-65.162	146.648	
114.00	-63.561	168.336	
115.00	-63.700	-165.714	
116.00	-62.308	-132.118	
117.00	-61.013	-110.171	
118.00	-61.051	-95.629	
119.00	-61.614	-84.919	
120.00	-64.881	-94.864	
121.00	-67.796	-126.780	
122.00	-62.868	-169.832	
123.00	-58.592	-174.205	
124.00	-56.080	-173.383	
125.00	-54.850	-167.465	
126.00	-54.939	-158.913	
127.00	-57.008	-148.654	
128.00	-60.077	-134.995	
129.00	-66.245	-92.682	
130.00	-66.248	-6.634	
131.00	-62.650	30.873	
132.00	-59.593	52.079	
133.00	-60.366	74.220	
134.00	-60.769	106.554	
135.00	-60.855	141.384	
136.00	-58.774	175.809	
137.00	-57.159	-162.730	
138.00	-57.291	-148.059	
139.00	-58.944	-134.737	
140.00	-63.112	-126.573	
141.00	-73.147	-137.749	
142.00	-69.796	92.226	
143.00	-62.350	95.015	
144.00	-59.202	103.674	
145.00	-57.929	114.288	
146.00	-57.824	127.363	
147.00	-59.050	135.435	
148.00	-62.005	141.118	
149.00	-71.041	139.503	
150.00	-72.012	9.227	
151.00	-62.972	-2.780	
152.00	-59.389	-5.305	
153.00	-57.848	-10.513	
154.00	-57.606	-21.910	
155.00	-57.417	-30.914	
156.00	-55.827	-48.940	
157.00	-54.318	-55.654	
158.00	-52.642	-57.160	
159.00	-51.648	-57.470	
160.00	-51.321	-55.527	
161.00	-52.612	-52.527	
162.00	-55.557	-49.615	
163.00	-61.975	-44.785	
164.00	-68.689	98.641	
165.00	-57.314	119.844	
166.00	-53.143	120.630	
167.00	-51.559	118.707	
168.00	-51.138	114.673	
169.00	-51.612	108.626	
170.00	-52.853	92.302	
171.00	-53.991	70.893	
172.00	-54.784	41.557	
173.00	-54.985	19.777	
174.00	-56.173	-9.545	
175.00	-58.936	-50.909	
176.00	-57.460	-113.283	
177.00	-51.618	-149.179	
178.00	-47.303	-164.935	
179.00	-44.876	-175.940	
180.00	-43.521	173.124	
181.00	-43.152	159.677	
182.00	-43.530	139.774	
183.00	-43.614	109.406	
184.00	-41.742	74.513	
185.00	-38.644	49.132	
186.00	-35.823	33.395	
187.00	-33.561	22.309	
188.00	-32.015	13.715	
189.00	-31.080	6.333	
190.00	-30.711	0.251	
191.00	-30.905	-5.435	
192.00	-31.625	-11.231	
193.00	-32.897	-17.022	
194.00	-34.842	-22.281	
195.00	-37.562	-27.966	
196.00	-41.472	-33.666	
197.00	-47.402	-41.056	
198.00	-58.939	-54.060	
199.00	-59.973	133.050	
200.00	-54.337	131.488	
201.00	-54.621	135.130	
202.00	-57.771	160.295	
203.00	-56.877	-157.562	
204.00	-52.682	-138.046	
205.00	-50.303	-136.395	
206.00	-49.636	-141.567	
207.00	-50.248	-150.342	
208.00	-52.265	-165.590	
209.00	-55.811	166.344	
210.00	-57.800	113.088	
211.00	-55.222	66.437	
212.00	-52.826	41.962	
213.00	-51.896	27.322	
214.00	-52.577	14.217	
215.00	-54.048	2.307	
216.00	-57.764	-8.917	
217.00	-66.776	-19.221	
218.00	-74.688	136.218	
219.00	-61.225	129.536	
220.00	-58.430	122.167	
221.00	-57.124	109.364	
222.00	-57.923	100.242	
223.00	-59.950	91.542	
224.00	-62.861	99.885	
225.00	-63.749	135.792	
226.00	-61.199	146.510	
227.00	-57.871	148.305	
228.00	-55.648	136.159	
229.00	-54.671	119.282	
230.00	-53.487	100.390	
231.00	-53.424	80.730	
232.00	-53.235	58.159	
233.00	-53.345	33.174	
234.00	-53.914	6.392	
235.00	-53.788	-24.128	
236.00	-54.785	-54.545	
237.00	-54.308	-85.014	
238.00	-54.021	-113.191	
239.00	-53.717	-139.292	
240.00	-53.468	-164.945	
241.00	-53.514	170.117	
242.00	-54.316	143.415	
243.00	-54.773	123.731	
244.00	-55.715	97.318	
245.00	-57.613	72.711	
246.00	-58.782	44.156	
247.00	-60.589	11.263	
248.00	-62.316	-28.001	
249.00	-62.296	-62.337	
250.00	-62.194	-92.410	
251.00	-61.501	-128.198	
252.00	-61.477	-157.265	
253.00	-61.375	178.924	
254.00	-61.815	155.783	
255.00	-62.755	132.653	
256.00	-63.088	101.027	
257.00	-66.020	82.238	
258.00	-67.033	49.308	
259.00	-69.493	-0.632	
260.00	-67.016	-37.909	
261.00	-65.936	-64.341	
262.00	-65.306	-93.752	
263.00	-65.068	-120.215	
264.00	-65.117	-140.633	
265.00	-64.753	-162.297	
266.00	-64.823	175.380	
267.00	-64.721	156.416	
268.00	-64.722	137.051	
269.00	-65.714	119.986	
270.00	-66.270	105.461	
271.00	-68.213	90.633	
272.00	-71.196	77.492	
273.00	-75.321	69.583	
274.00	-89.519	138.425	
275.00	-77.766	-170.148	
276.00	-70.643	-174.289	
277.00	-67.440	178.677	
278.00	-65.170	171.352	
279.00	-63.716	162.864	
280.00	-62.967	155.654	
281.00	-63.318	145.014	
282.00	-63.767	134.363	
283.00	-64.879	125.305	
284.00	-64.873	117.530	
285.00	-66.998	94.262	
286.00	-68.271	86.343	
287.00	-70.659	70.625	
288.00	-69.963	95.795	
289.00	-74.373	94.382	
290.00	-72.844	117.280	
291.00	-73.400	126.586	
292.00	-71.832	114.265	
293.00	-71.581	105.845	
294.00	-74.506	86.860	
295.00	-72.120	73.021	
296.00	-72.799	56.909	
297.00	-76.273	41.161	
298.00	-73.841	26.405	
299.00	-74.973	-13.621	
300.00	-77.127	-37.390	
301.00	-75.392	-34.438	
302.00	-79.524	-124.499	
303.00	-83.134	-178.166	
304.00	-77.183	138.776	
305.00	-71.804	133.818	
306.00	-71.946	79.834	
307.00	-69.057	65.819	
308.00	-67.538	48.253	
309.00	-66.389	33.225	
310.00	-65.316	20.349	
311.00	-64.298	7.734	
312.00	-64.772	-0.382	
313.00	-65.030	-8.672	
314.00	-64.598	-15.496	
315.00	-65.225	-16.620	
316.00	-65.622	-20.126	
317.00	-65.698	-24.953	
318.00	-66.591	-22.466	
319.00	-68.413	-26.400	
320.00	-70.353	-25.780	
321.00	-72.336	-13.138	
322.00	-73.985	-6.451	
323.00	-72.501	16.945	
324.00	-70.507	19.174	
325.00	-67.262	9.955	
326.00	-64.883	-3.267	
327.00	-64.291	-18.028	
328.00	-63.602	-33.105	
329.00	-63.466	-49.829	
330.00	-63.221	-75.480	
331.00	-63.747	-95.101	
332.00	-63.456	-115.818	
333.00	-63.391	-136.592	
334.00	-64.815	-154.576	
335.00	-65.460	-174.819	
336.00	-65.875	167.234	
337.00	-67.059	147.451	
338.00	-66.791	117.710	
339.00	-66.186	103.967	
340.00	-65.449	86.705	
341.00	-65.290	72.154	
342.00	-65.724	58.157	
343.00	-65.456	29.503	
344.00	-65.298	10.284	
345.00	-65.320	-12.981	
346.00	-65.701	-31.451	
347.00	-65.733	-49.973	
348.00	-66.146	-63.122	
349.00	-67.594	-71.247	
350.00	-69.741	-72.446	
351.00	-71.838	-60.130	
352.00	-72.945	-39.646	
353.00	-71.105	-23.565	
354.00	-70.503	-7.116	
355.00	-69.012	-12.179	
356.00	-69.748	-16.690	
357.00	-73.256	1.222	
358.00	-74.917	50.170	
359.00	-72.814	109.410	
Frequency	2450.00	MHz	
Channel	test		
Scan Axis name	Azimuth  [deg]		
Scan Axis	Amplitude	Phase	
			
0.00	-75.928	2.646	
1.00	-76.093	-87.132	
2.00	-68.099	-119.170	
3.00	-65.714	-124.320	
4.00	-64.668	-122.491	
5.00	-63.765	-114.390	
6.00	-62.073	-106.539	
7.00	-62.389	-108.840	
8.00	-62.837	-102.076	
9.00	-64.188	-103.592	
10.00	-67.864	-112.306	
11.00	-69.928	-143.612	
12.00	-67.548	-178.172	
13.00	-64.286	174.838	
14.00	-63.172	173.516	
15.00	-61.545	174.319	
16.00	-60.725	177.742	
17.00	-60.056	-179.502	
18.00	-59.948	-172.579	
19.00	-60.468	-165.200	
20.00	-62.293	-159.396	
21.00	-66.541	-158.248	
22.00	-73.380	167.135	
23.00	-71.370	88.995	
24.00	-66.701	81.817	
25.00	-66.289	83.931	
26.00	-67.036	79.137	
27.00	-68.818	66.273	
28.00	-71.410	58.740	
29.00	-74.792	42.037	
30.00	-77.346	-23.090	
31.00	-70.430	-49.355	
32.00	-66.532	-53.237	
33.00	-63.507	-32.408	
34.00	-62.695	-13.189	
35.00	-61.925	2.383	
36.00	-63.222	25.025	
37.00	-66.863	51.726	
38.00	-75.559	110.780	
39.00	-69.472	-127.398	
40.00	-63.554	-94.204	
41.00	-60.326	-72.307	
42.00	-59.117	-49.973	
43.00	-59.671	-28.209	
44.00	-60.874	-10.563	
45.00	-64.312	5.098	
46.00	-70.609	12.770	
47.00	-75.595	-76.961	
48.00	-67.635	-118.011	
49.00	-65.986	-110.222	
50.00	-65.320	-111.410	
51.00	-66.036	-114.724	
52.00	-66.077	-118.416	
53.00	-65.617	-119.314	
54.00	-64.468	-104.152	
55.00	-64.478	-79.864	
56.00	-64.163	-44.066	
57.00	-62.989	3.674	
58.00	-61.323	45.202	
59.00	-60.223	78.485	
60.00	-58.141	105.734	
61.00	-58.047	137.243	
62.00	-58.283	163.213	
63.00	-59.195	-154.784	
64.00	-58.277	-114.291	
65.00	-57.004	-77.567	
66.00	-55.850	-47.220	
67.00	-55.829	-19.316	
68.00	-56.355	11.773	
69.00	-58.001	47.136	
70.00	-58.370	88.222	
71.00	-56.723	137.440	
72.00	-55.603	171.442	
73.00	-53.868	-157.574	
74.00	-53.088	-129.513	
75.00	-52.994	-99.903	
76.00	-52.516	-68.261	
77.00	-52.214	-36.602	
78.00	-51.833	-7.022	
79.00	-50.972	22.398	
80.00	-50.475	48.730	
81.00	-50.158	77.089	
82.00	-49.855	101.709	
83.00	-49.634	130.755	
84.00	-49.631	160.612	
85.00	-49.111	-173.458	
86.00	-48.744	-148.195	
87.00	-48.578	-119.668	
88.00	-48.164	-98.992	
89.00	-48.774	-70.892	
90.00	-48.094	-43.077	
91.00	-49.362	-19.440	
92.00	-49.695	11.378	
93.00	-48.637	26.676	
94.00	-51.194	58.589	
95.00	-47.671	88.814	
96.00	-49.580	115.801	
97.00	-48.452	142.894	
98.00	-46.855	172.287	
99.00	-47.982	-176.944	
100.00	-47.965	-149.871	
101.00	-48.173	-124.708	
102.00	-48.973	-94.029	
103.00	-49.789	-70.805	
104.00	-50.287	-45.207	
105.00	-50.895	-18.573	
106.00	-51.408	7.720	
107.00	-51.881	38.454	
108.00	-52.724	59.530	
109.00	-53.225	88.923	
110.00	-53.963	111.670	
111.00	-55.619	141.917	
112.00	-56.185	166.429	
113.00	-57.982	-163.543	
114.00	-60.983	-131.585	
115.00	-63.574	-90.665	
116.00	-63.801	-26.849	
117.00	-60.361	15.394	
118.00	-57.909	40.740	
119.00	-56.583	58.180	
120.00	-55.978	72.370	
121.00	-56.978	79.323	
122.00	-59.895	79.049	
123.00	-62.917	59.892	
124.00	-61.692	25.062	
125.00	-59.419	12.437	
126.00	-57.365	13.079	
127.00	-56.731	21.308	
128.00	-58.427	32.255	
129.00	-60.361	60.166	
130.00	-63.522	103.869	
131.00	-60.689	162.563	
132.00	-59.550	-169.210	
133.00	-58.410	-137.585	
134.00	-57.459	-111.455	
135.00	-57.693	-81.231	
136.00	-56.397	-48.257	
137.00	-55.581	-18.982	
138.00	-54.132	0.820	
139.00	-54.365	13.656	
140.00	-55.753	26.100	
141.00	-57.282	25.067	
142.00	-61.194	13.377	
143.00	-60.445	-23.120	
144.00	-56.899	-42.244	
145.00	-53.992	-46.444	
146.00	-52.163	-42.138	
147.00	-51.760	-34.273	
148.00	-52.413	-27.442	
149.00	-53.923	-16.340	
150.00	-56.505	-2.193	
151.00	-59.144	15.594	
152.00	-60.814	35.679	
153.00	-61.632	43.858	
154.00	-61.374	42.216	
155.00	-59.919	31.569	
156.00	-58.173	31.797	
157.00	-56.364	38.160	
158.00	-54.943	50.179	
159.00	-53.861	65.240	
160.00	-53.561	79.861	
161.00	-53.874	94.821	
162.00	-55.085	116.999	
163.00	-57.023	149.653	
164.00	-55.934	-168.966	
165.00	-53.668	-143.521	
166.00	-51.609	-127.063	
167.00	-51.149	-120.417	
168.00	-52.036	-116.792	
169.00	-54.948	-119.982	
170.00	-61.272	-145.128	
171.00	-60.383	128.101	
172.00	-53.464	102.605	
173.00	-50.053	93.584	
174.00	-48.448	84.841	
175.00	-47.972	73.332	
176.00	-48.163	55.615	
177.00	-48.064	31.965	
178.00	-47.084	7.962	
179.00	-45.892	-10.156	
180.00	-45.665	-23.250	
181.00	-47.273	-32.809	
182.00	-54.811	-51.230	
183.00	-51.272	157.854	
184.00	-41.005	144.203	
185.00	-35.745	138.212	
186.00	-32.276	133.838	
187.00	-29.849	129.813	
188.00	-28.252	126.034	
189.00	-27.301	122.048	
190.00	-26.951	118.136	
191.00	-27.143	114.080	
192.00	-27.900	109.805	
193.00	-29.258	105.087	
194.00	-31.369	100.024	
195.00	-34.425	94.783	
196.00	-38.800	88.044	
197.00	-46.396	79.839	
198.00	-65.173	-18.281	
199.00	-49.778	-99.655	
200.00	-46.629	-107.485	
201.00	-47.179	-111.786	
202.00	-49.936	-113.248	
203.00	-55.780	-97.870	
204.00	-57.481	-22.829	
205.00	-51.993	-0.796	
206.00	-49.417	-2.465	
207.00	-48.944	-9.376	
208.00	-49.805	-17.979	
209.00	-52.184	-28.946	
210.00	-57.293	-44.880	
211.00	-71.493	-86.214	
212.00	-61.440	116.781	
213.00	-55.298	96.317	
214.00	-52.413	76.270	
215.00	-50.880	55.447	
216.00	-50.012	33.021	
217.00	-49.576	12.482	
218.00	-49.597	-8.635	
219.00	-50.205	-30.429	
220.00	-51.241	-51.844	
221.00	-52.548	-75.597	
222.00	-54.334	-100.974	
223.00	-56.062	-125.562	
224.00	-58.135	-152.017	
225.00	-61.726	-179.233	
226.00	-66.453	153.493	
227.00	-78.218	69.578	
228.00	-67.738	-22.836	
229.00	-63.414	-49.537	
230.00	-61.865	-66.613	
231.00	-60.717	-81.902	
232.00	-60.893	-98.471	
233.00	-61.002	-108.378	
234.00	-62.045	-110.878	
235.00	-63.134	-104.351	
236.00	-62.106	-94.278	
237.00	-60.112	-88.595	
238.00	-58.075	-89.713	
239.00	-56.625	-95.324	
240.00	-55.915	-104.775	
241.00	-55.716	-116.162	
242.00	-56.113	-128.448	
243.00	-57.374	-142.761	
244.00	-59.882	-159.046	
245.00	-62.621	-179.330	
246.00	-68.011	152.544	
247.00	-73.534	76.112	
248.00	-69.823	-2.376	
249.00	-64.613	-33.664	
250.00	-62.602	-54.110	
251.00	-61.147	-76.584	
252.00	-60.215	-98.665	
253.00	-59.925	-122.321	
254.00	-59.372	-142.135	
255.00	-59.350	-164.223	
256.00	-59.448	169.569	
257.00	-59.826	146.101	
258.00	-59.150	119.520	
259.00	-58.684	97.032	
260.00	-58.416	76.243	
261.00	-58.243	59.124	
262.00	-58.980	38.067	
263.00	-59.504	14.769	
264.00	-59.760	-0.844	
265.00	-59.940	-23.858	
266.00	-60.823	-47.698	
267.00	-61.274	-71.059	
268.00	-62.767	-93.656	
269.00	-63.245	-113.470	
270.00	-64.315	-137.302	
271.00	-65.058	-171.307	
272.00	-64.632	158.476	
273.00	-66.507	131.683	
274.00	-65.782	107.830	
275.00	-65.386	86.728	
276.00	-66.105	55.056	
277.00	-66.128	29.422	
278.00	-65.531	3.812	
279.00	-65.218	-18.126	
280.00	-64.642	-34.652	
281.00	-65.057	-54.197	
282.00	-65.052	-68.537	
283.00	-65.782	-85.700	
284.00	-68.546	-88.885	
285.00	-71.604	-91.276	
286.00	-75.178	-95.079	
287.00	-72.328	-75.701	
288.00	-72.489	-61.141	
289.00	-69.465	-61.323	
290.00	-69.926	-60.829	
291.00	-68.510	-79.984	
292.00	-67.702	-72.860	
293.00	-70.087	-91.315	
294.00	-69.331	-96.795	
295.00	-71.475	-111.589	
296.00	-72.914	-135.310	
297.00	-73.765	-135.529	
298.00	-77.643	-166.228	
299.00	-75.275	-135.625	
300.00	-77.143	-133.286	
301.00	-74.108	-145.802	
302.00	-76.191	-151.033	
303.00	-74.376	-178.995	
304.00	-80.383	153.692	
305.00	-75.437	135.437	
306.00	-72.959	110.770	
307.00	-73.469	89.658	
308.00	-69.069	74.412	
309.00	-68.058	69.376	
310.00	-67.158	59.885	
311.00	-68.569	41.607	
312.00	-69.259	13.874	
313.00	-68.798	-16.756	
314.00	-68.786	-54.824	
315.00	-65.818	-80.363	
316.00	-65.485	-98.862	
317.00	-65.007	-113.352	
318.00	-64.876	-131.459	
319.00	-64.992	-153.059	
320.00	-63.843	-173.019	
321.00	-63.487	-179.638	
322.00	-62.881	169.376	
323.00	-63.092	162.250	
324.00	-62.946	158.135	
325.00	-64.067	156.440	
326.00	-66.215	149.005	
327.00	-69.692	131.072	
328.00	-72.516	120.562	
329.00	-74.851	96.931	
330.00	-76.870	53.124	
331.00	-78.284	15.368	
332.00	-73.418	-17.876	
333.00	-71.582	-28.769	
334.00	-68.849	-37.708	
335.00	-67.852	-40.823	
336.00	-67.871	-46.756	
337.00	-68.813	-57.333	
338.00	-70.064	-92.160	
339.00	-68.282	-128.591	
340.00	-64.312	-154.730	
341.00	-61.531	-171.542	
342.00	-59.807	177.260	
343.00	-59.022	166.204	
344.00	-59.044	153.133	
345.00	-59.878	138.016	
346.00	-61.859	123.997	
347.00	-63.588	104.212	
348.00	-65.858	81.746	
349.00	-66.118	62.507	
350.00	-65.037	43.182	
351.00	-63.707	44.249	
352.00	-63.518	40.409	
353.00	-61.702	44.003	
354.00	-61.436	44.543	
355.00	-61.169	41.448	
356.00	-61.026	40.061	
357.00	-62.312	39.228	
358.00	-63.167	35.603	
359.00	-65.813	33.709	
Frequency	2496.00	MHz	
Channel	test		
Scan Axis name	Azimuth  [deg]		
Scan Axis	Amplitude	Phase	
			
0.00	-64.042	-45.561	
1.00	-62.798	-43.724	
2.00	-60.852	-45.448	
3.00	-61.837	-43.127	
4.00	-66.796	-35.269	
5.00	-67.667	-13.508	
6.00	-70.658	20.404	
7.00	-68.370	30.006	
8.00	-68.052	41.017	
9.00	-67.494	63.064	
10.00	-67.846	82.393	
11.00	-68.574	113.449	
12.00	-69.177	127.648	
13.00	-70.193	145.388	
14.00	-72.826	-173.053	
15.00	-74.547	-145.215	
16.00	-67.663	-103.836	
17.00	-68.476	-89.008	
18.00	-65.633	-72.847	
19.00	-64.582	-60.716	
20.00	-64.984	-35.496	
21.00	-64.874	-21.944	
22.00	-67.162	9.211	
23.00	-69.400	59.789	
24.00	-66.779	123.911	
25.00	-65.149	150.917	
26.00	-63.551	172.002	
27.00	-63.597	-175.697	
28.00	-63.797	-160.223	
29.00	-64.621	-142.220	
30.00	-66.987	-132.127	
31.00	-68.482	-97.736	
32.00	-75.568	-46.127	
33.00	-74.852	43.116	
34.00	-67.984	94.741	
35.00	-63.592	126.694	
36.00	-61.531	151.480	
37.00	-60.064	-177.498	
38.00	-61.567	-147.411	
39.00	-62.075	-121.696	
40.00	-63.201	-93.122	
41.00	-67.646	-60.607	
42.00	-74.876	-0.483	
43.00	-74.484	78.531	
44.00	-73.358	153.296	
45.00	-70.687	-164.748	
46.00	-71.660	-129.010	
47.00	-67.958	-72.519	
48.00	-69.784	-41.014	
49.00	-71.388	-26.286	
50.00	-72.520	-19.707	
51.00	-72.947	-76.171	
52.00	-68.727	-84.816	
53.00	-67.064	-64.274	
54.00	-68.757	-49.821	
55.00	-68.657	8.699	
56.00	-65.966	84.630	
57.00	-61.211	119.240	
58.00	-58.230	144.055	
59.00	-58.166	168.565	
60.00	-59.037	-158.767	
61.00	-59.703	-116.209	
62.00	-59.234	-64.278	
63.00	-56.611	-21.656	
64.00	-54.579	11.038	
65.00	-53.650	39.369	
66.00	-53.721	68.080	
67.00	-54.278	103.191	
68.00	-54.099	143.280	
69.00	-52.828	-177.448	
70.00	-51.224	-144.280	
71.00	-50.049	-117.428	
72.00	-49.623	-91.746	
73.00	-49.925	-68.377	
74.00	-50.797	-41.068	
75.00	-52.170	-6.589	
76.00	-52.621	31.615	
77.00	-52.046	70.698	
78.00	-51.054	103.263	
79.00	-50.179	130.482	
80.00	-49.896	157.644	
81.00	-50.230	-174.442	
82.00	-50.517	-143.954	
83.00	-50.713	-110.396	
84.00	-49.878	-78.038	
85.00	-49.121	-52.052	
86.00	-48.413	-25.364	
87.00	-47.949	1.651	
88.00	-47.899	25.247	
89.00	-48.174	50.146	
90.00	-48.064	76.427	
91.00	-48.142	100.179	
92.00	-47.060	131.041	
93.00	-47.433	153.889	
94.00	-46.318	-178.077	
95.00	-47.061	-150.880	
96.00	-46.828	-129.136	
97.00	-46.359	-108.752	
98.00	-46.214	-84.575	
99.00	-46.022	-60.141	
100.00	-45.673	-38.505	
101.00	-45.743	-5.379	
102.00	-45.815	19.022	
103.00	-46.278	39.991	
104.00	-46.887	61.684	
105.00	-47.725	87.240	
106.00	-48.187	110.746	
107.00	-48.653	139.170	
108.00	-48.806	160.489	
109.00	-48.956	-174.695	
110.00	-49.260	-158.587	
111.00	-49.846	-140.257	
112.00	-51.033	-127.591	
113.00	-52.854	-116.126	
114.00	-54.861	-111.288	
115.00	-57.594	-116.965	
116.00	-59.094	-130.963	
117.00	-58.188	-145.361	
118.00	-56.960	-150.585	
119.00	-56.307	-145.020	
120.00	-57.042	-136.309	
121.00	-58.565	-123.765	
122.00	-62.370	-95.184	
123.00	-65.585	-39.475	
124.00	-62.028	20.204	
125.00	-58.190	40.745	
126.00	-57.420	53.698	
127.00	-57.503	65.482	
128.00	-59.843	76.404	
129.00	-64.835	79.259	
130.00	-85.120	-3.362	
131.00	-67.255	-80.445	
132.00	-62.953	-75.966	
133.00	-62.239	-67.585	
134.00	-65.653	-62.794	
135.00	-74.112	-119.792	
136.00	-66.119	175.207	
137.00	-59.577	168.900	
138.00	-56.112	171.474	
139.00	-54.881	-179.492	
140.00	-54.477	-174.923	
141.00	-55.595	-171.728	
142.00	-57.354	-179.627	
143.00	-58.482	156.922	
144.00	-57.149	126.285	
145.00	-54.097	114.688	
146.00	-52.501	108.838	
147.00	-52.072	111.174	
148.00	-52.297	118.569	
149.00	-54.153	128.490	
150.00	-57.375	141.740	
151.00	-61.587	175.259	
152.00	-62.796	-131.506	
153.00	-60.218	-97.378	
154.00	-58.386	-79.370	
155.00	-57.107	-75.841	
156.00	-55.857	-83.001	
157.00	-53.366	-92.407	
158.00	-51.161	-100.436	
159.00	-49.210	-102.981	
160.00	-47.633	-101.293	
161.00	-47.107	-97.355	
162.00	-47.538	-90.667	
163.00	-48.751	-81.522	
164.00	-50.466	-64.267	
165.00	-52.030	-40.571	
166.00	-52.902	-15.501	
167.00	-52.493	-0.501	
168.00	-53.278	3.799	
169.00	-54.415	-15.539	
170.00	-53.642	-49.518	
171.00	-49.731	-74.804	
172.00	-46.318	-85.183	
173.00	-44.509	-89.780	
174.00	-43.593	-93.692	
175.00	-43.979	-98.987	
176.00	-45.261	-107.314	
177.00	-47.776	-120.280	
178.00	-51.211	-147.405	
179.00	-53.530	172.137	
180.00	-56.355	123.048	
181.00	-59.196	36.480	
182.00	-47.555	-29.905	
183.00	-40.103	-47.039	
184.00	-34.985	-55.634	
185.00	-31.432	-61.175	
186.00	-28.862	-65.896	
187.00	-27.006	-70.193	
188.00	-25.807	-73.987	
189.00	-25.143	-78.148	
190.00	-25.032	-82.056	
191.00	-25.468	-85.981	
192.00	-26.471	-90.410	
193.00	-28.146	-94.869	
194.00	-30.603	-99.084	
195.00	-34.140	-103.197	
196.00	-39.409	-106.586	
197.00	-49.324	-103.973	
198.00	-53.497	42.015	
199.00	-45.580	48.616	
200.00	-44.165	45.568	
201.00	-44.894	44.615	
202.00	-47.919	45.053	
203.00	-52.926	61.730	
204.00	-55.693	117.257	
205.00	-51.828	145.337	
206.00	-49.933	146.662	
207.00	-50.224	138.119	
208.00	-52.443	118.758	
209.00	-56.394	79.245	
210.00	-56.010	17.236	
211.00	-52.507	-19.427	
212.00	-50.780	-39.062	
213.00	-50.739	-54.583	
214.00	-52.551	-69.523	
215.00	-57.370	-88.203	
216.00	-66.853	-157.321	
217.00	-58.810	106.080	
218.00	-53.571	81.597	
219.00	-50.846	63.105	
220.00	-49.434	47.938	
221.00	-48.867	32.619	
222.00	-49.150	19.469	
223.00	-50.244	7.396	
224.00	-52.031	-5.847	
225.00	-54.599	-17.179	
226.00	-59.797	-28.268	
227.00	-66.363	-21.373	
228.00	-76.234	76.952	
229.00	-66.524	88.712	
230.00	-63.312	78.328	
231.00	-62.115	62.020	
232.00	-62.337	40.067	
233.00	-63.030	31.669	
234.00	-65.033	16.311	
235.00	-67.729	8.517	
236.00	-76.854	25.644	
237.00	-76.431	106.228	
238.00	-71.663	117.580	
239.00	-68.450	102.610	
240.00	-66.517	94.387	
241.00	-65.510	86.197	
242.00	-63.691	74.816	
243.00	-63.294	67.607	
244.00	-62.055	65.171	
245.00	-60.507	63.097	
246.00	-58.469	55.901	
247.00	-57.416	50.709	
248.00	-56.376	41.748	
249.00	-55.939	32.212	
250.00	-55.463	19.101	
251.00	-55.707	5.011	
252.00	-56.135	-15.160	
253.00	-56.457	-34.612	
254.00	-56.712	-57.422	
255.00	-56.745	-78.494	
256.00	-57.087	-99.237	
257.00	-57.554	-116.630	
258.00	-57.630	-139.868	
259.00	-58.265	-162.151	
260.00	-58.645	178.399	
261.00	-58.951	156.879	
262.00	-59.236	137.491	
263.00	-59.597	120.521	
264.00	-60.583	102.528	
265.00	-61.953	87.553	
266.00	-63.518	66.415	
267.00	-64.508	49.381	
268.00	-65.820	23.678	
269.00	-67.596	3.482	
270.00	-69.444	-10.337	
271.00	-68.318	-27.707	
272.00	-70.828	-30.995	
273.00	-73.206	-44.979	
274.00	-74.712	-47.590	
275.00	-82.722	-30.254	
276.00	-87.680	51.733	
277.00	-89.618	122.569	
278.00	-84.645	89.781	
279.00	-84.770	53.679	
280.00	-81.029	47.458	
281.00	-74.146	34.407	
282.00	-75.588	9.095	
283.00	-74.108	31.193	
284.00	-72.529	13.297	
285.00	-70.260	34.264	
286.00	-70.369	36.290	
287.00	-75.712	54.226	
288.00	-74.557	46.886	
289.00	-78.567	18.719	
290.00	-78.983	66.005	
291.00	-79.971	36.734	
292.00	-81.356	34.570	
293.00	-83.855	45.268	
294.00	-82.403	115.248	
295.00	-79.213	92.523	
296.00	-79.644	80.873	
297.00	-79.607	83.561	
298.00	-71.210	66.581	
299.00	-73.747	29.296	
300.00	-74.007	21.829	
301.00	-70.704	8.232	
302.00	-73.567	-10.745	
303.00	-71.860	-20.004	
304.00	-69.241	-67.131	
305.00	-67.973	-78.297	
306.00	-67.392	-95.274	
307.00	-66.598	-102.838	
308.00	-67.674	-125.963	
309.00	-67.099	-140.199	
310.00	-66.373	-142.899	
311.00	-67.438	-132.775	
312.00	-67.329	-147.430	
313.00	-68.998	-133.903	
314.00	-68.716	-139.248	
315.00	-69.097	-131.858	
316.00	-68.923	-134.071	
317.00	-69.734	-125.152	
318.00	-68.164	-133.275	
319.00	-69.598	-131.987	
320.00	-71.772	-121.127	
321.00	-71.479	-96.238	
322.00	-69.398	-68.142	
323.00	-66.671	-59.467	
324.00	-64.487	-51.884	
325.00	-62.911	-42.660	
326.00	-61.939	-40.858	
327.00	-63.123	-40.137	
328.00	-62.841	-34.541	
329.00	-65.056	-34.450	
330.00	-70.135	-33.732	
331.00	-69.994	-24.003	
332.00	-72.094	-1.546	
333.00	-72.488	4.117	
334.00	-72.780	17.868	
335.00	-69.076	6.920	
336.00	-67.520	19.102	
337.00	-66.225	20.408	
338.00	-66.363	31.359	
339.00	-65.793	24.892	
340.00	-66.263	20.329	
341.00	-65.344	11.076	
342.00	-64.464	-0.305	
343.00	-63.813	-11.709	
344.00	-64.875	-21.933	
345.00	-65.605	-29.602	
346.00	-67.582	-37.801	
347.00	-70.070	-46.288	
348.00	-77.498	-90.102	
349.00	-72.794	-163.889	
350.00	-68.245	166.176	
351.00	-64.183	150.514	
352.00	-61.163	149.442	
353.00	-60.224	146.910	
354.00	-60.527	147.925	
355.00	-62.031	149.434	
356.00	-65.756	148.895	
357.00	-73.195	136.818	
358.00	-86.124	-84.401	
359.00	-71.009	-38.396	
Frequency	2550.00	MHz	
Channel	test		
Scan Axis name	Azimuth  [deg]		
Scan Axis	Amplitude	Phase	
			
0.00	-69.273	8.589	
1.00	-69.862	-7.258	
2.00	-69.434	8.680	
3.00	-66.899	-26.398	
4.00	-68.114	-37.737	
5.00	-68.038	-58.412	
6.00	-67.076	-88.307	
7.00	-66.928	-71.279	
8.00	-64.916	-88.944	
9.00	-67.089	-115.176	
10.00	-73.115	-93.132	
11.00	-71.090	-133.898	
12.00	-67.924	-136.582	
13.00	-71.311	-159.114	
14.00	-71.775	-173.261	
15.00	-71.854	-155.495	
16.00	-70.866	-179.242	
17.00	-74.677	-154.308	
18.00	-75.793	150.594	
19.00	-76.537	72.845	
20.00	-71.791	49.886	
21.00	-66.844	64.809	
22.00	-68.389	69.301	
23.00	-65.992	72.566	
24.00	-70.485	97.778	
25.00	-75.370	24.912	
26.00	-68.003	-37.838	
27.00	-67.178	-23.760	
28.00	-63.407	-39.680	
29.00	-63.725	-36.824	
30.00	-63.290	-39.805	
31.00	-64.978	-41.889	
32.00	-70.696	-53.127	
33.00	-72.801	-129.949	
34.00	-65.327	-140.871	
35.00	-62.205	-142.557	
36.00	-61.282	-125.692	
37.00	-61.165	-126.285	
38.00	-63.850	-99.033	
39.00	-68.632	-77.246	
40.00	-76.908	60.036	
41.00	-67.148	120.308	
42.00	-61.850	136.243	
43.00	-59.962	165.466	
44.00	-58.828	-176.504	
45.00	-59.948	-161.660	
46.00	-62.057	-145.245	
47.00	-65.104	-144.992	
48.00	-69.060	-126.493	
49.00	-69.615	-139.587	
50.00	-75.398	-112.743	
51.00	-73.484	-165.324	
52.00	-74.489	34.656	
53.00	-71.365	93.661	
54.00	-68.765	107.115	
55.00	-65.461	139.381	
56.00	-61.940	165.588	
57.00	-61.031	-166.113	
58.00	-60.917	-139.048	
59.00	-61.619	-116.580	
60.00	-64.892	-68.250	
61.00	-65.935	4.767	
62.00	-61.566	59.265	
63.00	-59.398	91.087	
64.00	-57.636	125.560	
65.00	-57.884	157.467	
66.00	-57.856	-162.373	
67.00	-56.634	-118.529	
68.00	-54.152	-79.855	
69.00	-52.281	-49.569	
70.00	-51.181	-24.719	
71.00	-50.693	1.071	
72.00	-50.232	28.141	
73.00	-50.574	57.849	
74.00	-51.005	87.341	
75.00	-50.628	116.690	
76.00	-50.954	146.959	
77.00	-51.054	175.601	
78.00	-51.526	-154.521	
79.00	-52.077	-121.706	
80.00	-52.055	-87.479	
81.00	-51.984	-53.352	
82.00	-51.454	-19.202	
83.00	-50.824	9.433	
84.00	-50.251	38.284	
85.00	-49.963	64.982	
86.00	-49.513	92.733	
87.00	-49.471	120.305	
88.00	-48.986	147.108	
89.00	-48.657	173.986	
90.00	-48.574	-160.012	
91.00	-48.791	-136.542	
92.00	-47.852	-103.004	
93.00	-48.137	-85.796	
94.00	-47.589	-55.277	
95.00	-47.066	-33.745	
96.00	-47.250	-6.219	
97.00	-46.969	17.801	
98.00	-46.294	41.459	
99.00	-46.160	66.341	
100.00	-45.992	88.913	
101.00	-45.889	122.522	
102.00	-45.819	148.992	
103.00	-45.886	171.473	
104.00	-46.164	-167.231	
105.00	-46.326	-140.666	
106.00	-46.395	-117.499	
107.00	-46.576	-91.107	
108.00	-46.457	-69.606	
109.00	-46.412	-43.870	
110.00	-46.569	-24.566	
111.00	-46.845	-3.087	
112.00	-47.422	14.778	
113.00	-48.218	33.073	
114.00	-49.753	50.505	
115.00	-52.444	64.724	
116.00	-57.230	79.504	
117.00	-67.731	97.796	
118.00	-68.267	-92.695	
119.00	-59.370	-76.787	
120.00	-57.270	-59.914	
121.00	-57.940	-49.128	
122.00	-61.771	-25.767	
123.00	-66.849	31.796	
124.00	-60.676	100.277	
125.00	-57.802	121.600	
126.00	-55.678	137.099	
127.00	-55.608	148.309	
128.00	-57.639	154.932	
129.00	-64.110	163.333	
130.00	-78.876	37.713	
131.00	-63.032	5.378	
132.00	-60.092	10.949	
133.00	-59.485	22.312	
134.00	-61.368	37.408	
135.00	-67.656	51.638	
136.00	-71.361	-178.061	
137.00	-62.847	-134.087	
138.00	-59.270	-111.317	
139.00	-56.890	-93.038	
140.00	-55.347	-77.472	
141.00	-54.989	-62.035	
142.00	-55.272	-54.905	
143.00	-57.035	-48.406	
144.00	-59.498	-60.960	
145.00	-60.545	-84.625	
146.00	-59.581	-114.128	
147.00	-57.572	-121.204	
148.00	-56.869	-121.232	
149.00	-56.239	-114.534	
150.00	-57.742	-105.897	
151.00	-61.710	-92.900	
152.00	-70.767	-85.563	
153.00	-70.488	118.691	
154.00	-58.614	114.253	
155.00	-55.442	118.689	
156.00	-53.579	120.757	
157.00	-53.194	117.464	
158.00	-53.228	111.942	
159.00	-53.360	102.100	
160.00	-52.987	89.951	
161.00	-52.036	86.984	
162.00	-51.828	87.088	
163.00	-52.365	94.514	
164.00	-53.245	111.751	
165.00	-53.448	140.382	
166.00	-52.340	166.663	
167.00	-51.238	-173.079	
168.00	-50.786	-161.736	
169.00	-52.111	-149.456	
170.00	-55.744	-139.756	
171.00	-63.734	-91.391	
172.00	-58.225	5.381	
173.00	-52.371	25.697	
174.00	-49.707	27.370	
175.00	-48.356	25.607	
176.00	-49.057	15.219	
177.00	-50.335	-8.218	
178.00	-50.258	-43.872	
179.00	-48.907	-73.190	
180.00	-48.168	-92.442	
181.00	-50.215	-115.444	
182.00	-52.860	177.231	
183.00	-44.989	119.070	
184.00	-38.660	101.259	
185.00	-34.427	93.535	
186.00	-31.497	89.228	
187.00	-29.489	85.394	
188.00	-28.226	81.554	
189.00	-27.579	78.505	
190.00	-27.560	75.789	
191.00	-28.109	73.234	
192.00	-29.272	70.841	
193.00	-31.046	69.552	
194.00	-33.644	69.650	
195.00	-37.104	72.835	
196.00	-41.509	83.220	
197.00	-45.873	109.844	
198.00	-47.198	144.091	
199.00	-46.978	164.127	
200.00	-47.844	169.459	
201.00	-50.656	174.728	
202.00	-56.566	-168.188	
203.00	-62.142	-91.648	
204.00	-54.640	-58.508	
205.00	-53.285	-57.565	
206.00	-53.539	-57.508	
207.00	-55.790	-69.387	
208.00	-66.553	-64.658	
209.00	-61.091	81.532	
210.00	-53.490	78.766	
211.00	-50.146	73.706	
212.00	-49.217	64.568	
213.00	-49.222	56.250	
214.00	-51.249	49.509	
215.00	-54.342	44.345	
216.00	-62.443	56.570	
217.00	-63.985	167.105	
218.00	-56.205	172.597	
219.00	-53.187	168.828	
220.00	-51.756	161.980	
221.00	-51.545	150.478	
222.00	-52.598	151.234	
223.00	-54.641	146.630	
224.00	-56.814	153.687	
225.00	-59.030	176.195	
226.00	-58.919	-161.468	
227.00	-56.196	-152.002	
228.00	-54.611	-156.562	
229.00	-54.547	-158.594	
230.00	-54.819	-166.924	
231.00	-56.305	-178.420	
232.00	-58.358	170.790	
233.00	-62.208	159.823	
234.00	-67.190	151.481	
235.00	-74.153	166.340	
236.00	-75.006	-144.680	
237.00	-71.375	-132.857	
238.00	-68.317	-145.166	
239.00	-66.861	-157.220	
240.00	-64.701	-167.788	
241.00	-63.591	-179.473	
242.00	-62.809	-167.929	
243.00	-62.972	-159.136	
244.00	-62.409	-158.140	
245.00	-60.525	-161.180	
246.00	-60.471	-169.137	
247.00	-60.073	-174.173	
248.00	-59.897	171.287	
249.00	-61.242	150.249	
250.00	-60.406	128.452	
251.00	-61.184	103.189	
252.00	-61.142	83.819	
253.00	-61.346	60.414	
254.00	-61.767	41.283	
255.00	-61.741	19.124	
256.00	-62.981	-6.212	
257.00	-62.170	-24.535	
258.00	-61.464	-38.573	
259.00	-62.150	-52.631	
260.00	-64.322	-63.196	
261.00	-64.663	-72.982	
262.00	-66.667	-65.077	
263.00	-68.473	-60.308	
264.00	-70.198	-56.340	
265.00	-69.605	-56.475	
266.00	-70.040	-68.525	
267.00	-69.905	-86.762	
268.00	-68.429	-91.203	
269.00	-67.892	-105.323	
270.00	-67.878	-113.363	
271.00	-67.824	-115.693	
272.00	-69.369	-113.873	
273.00	-70.819	-107.577	
274.00	-71.437	-90.462	
275.00	-71.251	-66.002	
276.00	-70.553	-77.205	
277.00	-67.794	-70.976	
278.00	-66.971	-70.617	
279.00	-65.309	-84.391	
280.00	-65.187	-88.784	
281.00	-64.094	-98.175	
282.00	-63.997	-120.007	
283.00	-63.179	-125.736	
284.00	-63.969	-133.719	
285.00	-62.849	-144.464	
286.00	-62.901	-154.367	
287.00	-64.519	-167.963	
288.00	-64.292	-167.997	
289.00	-65.266	170.053	
290.00	-63.397	170.555	
291.00	-63.755	156.149	
292.00	-64.038	153.181	
293.00	-62.908	138.080	
294.00	-64.932	130.654	
295.00	-64.131	112.038	
296.00	-68.654	103.474	
297.00	-71.530	72.837	
298.00	-72.125	76.830	
299.00	-73.250	39.597	
300.00	-79.703	30.605	
301.00	-79.885	53.362	
302.00	-76.454	114.573	
303.00	-73.707	103.815	
304.00	-70.872	98.617	
305.00	-70.778	86.573	
306.00	-68.367	76.668	
307.00	-69.323	41.358	
308.00	-67.185	26.270	
309.00	-66.215	5.653	
310.00	-65.305	-5.323	
311.00	-64.448	-16.369	
312.00	-64.252	-19.055	
313.00	-64.909	-20.767	
314.00	-66.165	-22.071	
315.00	-68.676	-32.467	
316.00	-74.280	-34.587	
317.00	-76.629	-72.930	
318.00	-90.302	-135.469	
319.00	-84.897	164.882	
320.00	-78.039	100.447	
321.00	-77.971	81.947	
322.00	-78.605	82.695	
323.00	-80.663	140.197	
324.00	-79.421	165.867	
325.00	-77.672	-164.233	
326.00	-75.169	-159.337	
327.00	-71.263	-165.897	
328.00	-68.594	-174.605	
329.00	-67.730	-175.672	
330.00	-67.087	-172.522	
331.00	-66.219	-160.351	
332.00	-66.091	-144.341	
333.00	-64.416	-137.313	
334.00	-63.236	-130.651	
335.00	-63.021	-131.695	
336.00	-63.049	-133.122	
337.00	-63.848	-139.557	
338.00	-65.866	-143.742	
339.00	-68.057	-161.509	
340.00	-70.314	-153.271	
341.00	-79.133	-126.718	
342.00	-95.713	70.464	
343.00	-69.083	-48.462	
344.00	-73.170	-57.403	
345.00	-72.989	-80.654	
346.00	-68.584	-113.180	
347.00	-67.347	-135.179	
348.00	-61.827	-142.159	
349.00	-63.057	-150.748	
350.00	-60.920	-155.284	
351.00	-62.196	-164.655	
352.00	-61.676	-167.649	
353.00	-62.695	172.799	
354.00	-67.295	163.684	
355.00	-69.032	171.838	
356.00	-72.820	-161.453	
357.00	-88.551	-94.807	
358.00	-69.250	-19.318	
359.00	-69.460	5.442	
Frequency	2600.00	MHz	
Channel	test		
Scan Axis name	Azimuth  [deg]		
Scan Axis	Amplitude	Phase	
			
0.00	-72.687	-138.040	
1.00	-68.529	-178.131	
2.00	-65.549	161.590	
3.00	-64.309	160.664	
4.00	-65.414	156.434	
5.00	-65.056	147.689	
6.00	-65.982	137.566	
7.00	-66.184	132.984	
8.00	-67.404	128.074	
9.00	-68.029	114.376	
10.00	-70.176	91.083	
11.00	-70.418	63.497	
12.00	-69.504	31.810	
13.00	-67.032	18.030	
14.00	-64.848	9.257	
15.00	-64.085	-0.413	
16.00	-64.046	-0.114	
17.00	-64.002	-10.477	
18.00	-65.005	-17.817	
19.00	-67.464	-28.737	
20.00	-68.665	-51.916	
21.00	-67.016	-89.598	
22.00	-64.307	-105.031	
23.00	-62.960	-108.099	
24.00	-63.433	-107.479	
25.00	-65.665	-109.047	
26.00	-69.689	-125.862	
27.00	-71.491	173.949	
28.00	-66.220	148.536	
29.00	-64.519	143.111	
30.00	-64.267	152.597	
31.00	-65.542	158.594	
32.00	-67.554	175.260	
33.00	-72.337	-151.270	
34.00	-71.846	-74.776	
35.00	-67.180	-35.264	
36.00	-63.921	-7.314	
37.00	-62.235	13.305	
38.00	-61.725	35.284	
39.00	-63.514	61.980	
40.00	-67.472	98.847	
41.00	-71.004	-173.503	
42.00	-64.504	-106.995	
43.00	-60.106	-80.165	
44.00	-58.183	-58.215	
45.00	-57.839	-39.278	
46.00	-58.818	-20.403	
47.00	-61.153	-3.363	
48.00	-65.251	15.970	
49.00	-70.215	43.135	
50.00	-75.557	82.443	
51.00	-77.295	151.455	
52.00	-71.703	-176.075	
53.00	-67.630	-159.056	
54.00	-66.327	-135.325	
55.00	-64.137	-111.462	
56.00	-62.272	-87.297	
57.00	-61.423	-58.573	
58.00	-61.829	-31.221	
59.00	-62.118	-2.987	
60.00	-64.428	29.496	
61.00	-69.696	77.160	
62.00	-69.939	-164.239	
63.00	-61.782	-120.498	
64.00	-57.072	-91.497	
65.00	-54.298	-68.440	
66.00	-53.000	-44.571	
67.00	-52.631	-18.635	
68.00	-53.089	10.542	
69.00	-53.608	46.164	
70.00	-53.314	85.174	
71.00	-52.530	122.758	
72.00	-51.438	156.410	
73.00	-50.615	-175.893	
74.00	-50.105	-146.236	
75.00	-50.174	-116.167	
76.00	-49.789	-86.934	
77.00	-49.542	-57.269	
78.00	-49.612	-28.888	
79.00	-49.599	-0.375	
80.00	-49.650	29.716	
81.00	-49.734	60.858	
82.00	-49.343	93.266	
83.00	-49.029	122.043	
84.00	-48.566	149.622	
85.00	-48.351	177.044	
86.00	-48.098	-157.136	
87.00	-48.208	-129.781	
88.00	-48.318	-101.401	
89.00	-48.142	-74.279	
90.00	-48.137	-46.925	
91.00	-48.060	-20.579	
92.00	-47.923	8.510	
93.00	-47.836	37.656	
94.00	-47.332	65.456	
95.00	-46.492	92.880	
96.00	-45.820	118.621	
97.00	-45.264	142.733	
98.00	-44.764	165.349	
99.00	-44.532	-170.632	
100.00	-44.263	-146.856	
101.00	-44.161	-110.799	
102.00	-43.866	-83.166	
103.00	-43.635	-58.576	
104.00	-43.370	-34.988	
105.00	-43.049	-9.081	
106.00	-42.773	12.814	
107.00	-42.488	38.734	
108.00	-42.226	59.551	
109.00	-42.092	83.944	
110.00	-42.052	103.047	
111.00	-42.319	125.728	
112.00	-42.734	145.806	
113.00	-43.413	168.548	
114.00	-44.363	-168.469	
115.00	-45.418	-145.281	
116.00	-46.678	-119.424	
117.00	-47.897	-93.763	
118.00	-49.329	-66.455	
119.00	-50.853	-37.567	
120.00	-52.244	-7.178	
121.00	-54.085	19.070	
122.00	-56.189	50.987	
123.00	-60.520	89.724	
124.00	-65.382	150.138	
125.00	-61.869	-130.355	
126.00	-57.582	-98.239	
127.00	-55.307	-74.764	
128.00	-54.522	-57.703	
129.00	-55.414	-42.803	
130.00	-57.368	-27.820	
131.00	-62.234	-16.320	
132.00	-73.377	-70.935	
133.00	-64.011	-149.588	
134.00	-58.936	-132.360	
135.00	-57.205	-117.670	
136.00	-57.643	-97.698	
137.00	-59.100	-71.072	
138.00	-61.026	-24.242	
139.00	-58.843	25.554	
140.00	-55.896	58.351	
141.00	-54.531	77.876	
142.00	-54.337	94.931	
143.00	-56.218	108.765	
144.00	-60.719	122.404	
145.00	-73.116	152.963	
146.00	-67.347	-44.862	
147.00	-60.343	-19.088	
148.00	-57.635	-2.784	
149.00	-57.026	19.941	
150.00	-57.287	35.977	
151.00	-59.744	54.980	
152.00	-66.724	82.998	
153.00	-67.205	-143.394	
154.00	-57.331	-116.058	
155.00	-53.661	-106.093	
156.00	-51.784	-98.476	
157.00	-51.646	-96.010	
158.00	-52.581	-97.141	
159.00	-54.414	-109.762	
160.00	-55.117	-133.673	
161.00	-53.953	-158.615	
162.00	-52.261	-169.809	
163.00	-51.630	-172.936	
164.00	-52.675	-171.148	
165.00	-55.269	-166.138	
166.00	-61.341	-154.287	
167.00	-71.824	-51.564	
168.00	-60.331	3.532	
169.00	-56.962	15.593	
170.00	-56.710	23.489	
171.00	-59.389	37.299	
172.00	-66.828	93.961	
173.00	-59.106	173.860	
174.00	-52.973	-172.721	
175.00	-50.192	-171.052	
176.00	-49.132	-172.981	
177.00	-49.725	-177.450	
178.00	-51.672	174.051	
179.00	-55.145	159.860	
180.00	-60.347	141.471	
181.00	-73.053	133.749	
182.00	-59.377	-104.428	
183.00	-50.023	-113.146	
184.00	-44.087	-119.988	
185.00	-39.941	-124.700	
186.00	-36.946	-128.453	
187.00	-34.804	-131.608	
188.00	-33.423	-134.464	
189.00	-32.718	-137.189	
190.00	-32.714	-139.540	
191.00	-33.324	-141.364	
192.00	-34.658	-142.632	
193.00	-36.741	-142.107	
194.00	-39.780	-138.698	
195.00	-43.859	-128.472	
196.00	-48.337	-101.714	
197.00	-49.567	-61.203	
198.00	-48.191	-38.243	
199.00	-48.026	-30.866	
200.00	-49.061	-26.657	
201.00	-51.618	-24.108	
202.00	-55.921	-18.893	
203.00	-62.302	-0.948	
204.00	-69.105	51.621	
205.00	-70.076	101.817	
206.00	-70.093	169.020	
207.00	-63.045	-149.925	
208.00	-57.750	-143.588	
209.00	-55.251	-148.574	
210.00	-54.067	-157.907	
211.00	-54.422	-171.905	
212.00	-55.610	167.584	
213.00	-57.743	137.334	
214.00	-59.105	90.758	
215.00	-57.218	47.674	
216.00	-55.057	20.596	
217.00	-53.575	2.619	
218.00	-53.702	-10.858	
219.00	-54.748	-19.148	
220.00	-57.613	-24.353	
221.00	-61.369	-8.657	
222.00	-61.633	29.445	
223.00	-57.475	51.089	
224.00	-54.692	48.459	
225.00	-53.163	39.798	
226.00	-52.644	26.287	
227.00	-52.921	11.277	
228.00	-54.044	-6.880	
229.00	-55.691	-30.185	
230.00	-58.498	-59.101	
231.00	-61.193	-97.679	
232.00	-63.443	-148.849	
233.00	-62.323	157.765	
234.00	-59.964	120.120	
235.00	-58.147	91.220	
236.00	-56.864	69.719	
237.00	-56.782	49.048	
238.00	-56.681	33.815	
239.00	-57.531	13.786	
240.00	-59.198	-3.274	
241.00	-61.222	-21.492	
242.00	-63.676	-40.721	
243.00	-67.045	-59.254	
244.00	-72.219	-73.647	
245.00	-86.557	-22.822	
246.00	-73.629	47.861	
247.00	-68.831	39.713	
248.00	-65.915	31.705	
249.00	-64.982	15.969	
250.00	-64.921	5.518	
251.00	-65.283	-11.890	
252.00	-66.494	-23.084	
253.00	-67.902	-38.083	
254.00	-69.425	-49.881	
255.00	-71.274	-74.505	
256.00	-73.109	-94.965	
257.00	-77.374	-124.888	
258.00	-78.861	-138.343	
259.00	-79.055	156.500	
260.00	-78.188	140.935	
261.00	-73.437	115.925	
262.00	-77.248	117.459	
263.00	-74.710	109.288	
264.00	-75.818	114.228	
265.00	-79.298	108.934	
266.00	-77.087	94.207	
267.00	-89.633	-111.995	
268.00	-77.914	-92.576	
269.00	-73.515	-94.728	
270.00	-69.962	-97.820	
271.00	-69.618	-108.884	
272.00	-71.658	-111.682	
273.00	-71.055	-129.570	
274.00	-71.764	-160.201	
275.00	-70.941	-178.071	
276.00	-70.437	145.180	
277.00	-69.082	121.372	
278.00	-69.436	97.036	
279.00	-68.514	79.831	
280.00	-67.241	59.251	
281.00	-67.885	48.453	
282.00	-68.394	26.926	
283.00	-67.564	26.063	
284.00	-69.939	14.104	
285.00	-73.450	10.968	
286.00	-73.479	-47.339	
287.00	-82.221	-169.220	
288.00	-83.856	-134.405	
289.00	-77.166	-166.323	
290.00	-79.560	-154.887	
291.00	-72.809	-161.296	
292.00	-72.934	-150.766	
293.00	-69.885	-151.188	
294.00	-69.271	-166.254	
295.00	-67.654	-172.867	
296.00	-66.427	177.713	
297.00	-66.558	165.367	
298.00	-66.301	155.178	
299.00	-67.014	154.875	
300.00	-69.777	140.973	
301.00	-74.507	129.842	
302.00	-80.576	134.237	
303.00	-87.221	-135.598	
304.00	-73.026	-104.803	
305.00	-72.619	-118.810	
306.00	-70.375	-128.000	
307.00	-69.920	-143.762	
308.00	-71.037	-170.202	
309.00	-69.644	175.653	
310.00	-72.381	162.696	
311.00	-73.295	156.263	
312.00	-75.373	154.622	
313.00	-83.075	157.682	
314.00	-90.171	124.990	
315.00	-82.709	68.143	
316.00	-73.654	51.088	
317.00	-68.132	47.797	
318.00	-66.391	39.895	
319.00	-64.569	30.532	
320.00	-63.620	18.398	
321.00	-64.402	12.326	
322.00	-64.703	3.209	
323.00	-66.500	1.411	
324.00	-66.884	-1.264	
325.00	-66.098	-5.006	
326.00	-65.617	-2.831	
327.00	-64.451	-8.877	
328.00	-63.184	-15.108	
329.00	-63.101	-26.974	
330.00	-63.111	-39.580	
331.00	-63.145	-49.771	
332.00	-63.709	-57.183	
333.00	-64.392	-63.388	
334.00	-65.139	-65.052	
335.00	-66.064	-60.605	
336.00	-66.933	-53.698	
337.00	-67.614	-47.133	
338.00	-68.590	-36.172	
339.00	-69.486	-34.051	
340.00	-73.679	-30.058	
341.00	-74.749	-22.308	
342.00	-77.478	28.779	
343.00	-74.304	84.710	
344.00	-69.973	95.694	
345.00	-67.593	93.793	
346.00	-67.216	92.054	
347.00	-68.377	79.996	
348.00	-70.590	56.925	
349.00	-70.393	12.225	
350.00	-65.971	-14.018	
351.00	-63.939	-31.207	
352.00	-61.690	-46.110	
353.00	-60.205	-56.944	
354.00	-59.003	-66.057	
355.00	-58.875	-67.646	
356.00	-58.992	-70.044	
357.00	-60.282	-71.989	
358.00	-63.075	-74.311	
359.00	-66.191	-84.713	
Frequency	2650.00	MHz	
Channel	test		
Scan Axis name	Azimuth  [deg]		
Scan Axis	Amplitude	Phase	
			
0.00	-63.674	32.343	
1.00	-65.402	5.016	
2.00	-65.210	-16.776	
3.00	-65.574	-53.220	
4.00	-63.551	-30.322	
5.00	-69.132	-46.484	
6.00	-79.667	-100.440	
7.00	-74.345	-86.984	
8.00	-68.063	-129.129	
9.00	-65.902	-154.571	
10.00	-68.954	-129.510	
11.00	-68.206	-152.628	
12.00	-71.902	-157.775	
13.00	-69.979	-158.685	
14.00	-74.416	-176.308	
15.00	-71.621	148.267	
16.00	-72.855	109.864	
17.00	-66.714	112.348	
18.00	-62.228	107.369	
19.00	-62.070	117.757	
20.00	-62.980	106.514	
21.00	-66.953	94.281	
22.00	-69.376	61.516	
23.00	-68.001	2.575	
24.00	-64.798	1.801	
25.00	-61.591	0.890	
26.00	-63.000	-2.727	
27.00	-63.880	2.676	
28.00	-64.671	-4.322	
29.00	-69.580	-6.398	
30.00	-70.875	-5.209	
31.00	-68.411	-49.657	
32.00	-65.079	-42.737	
33.00	-71.731	-49.712	
34.00	-68.839	-44.051	
35.00	-69.835	-30.337	
36.00	-67.573	46.702	
37.00	-67.025	61.252	
38.00	-62.744	98.902	
39.00	-62.210	131.090	
40.00	-61.143	168.625	
41.00	-66.227	179.017	
42.00	-70.896	-155.042	
43.00	-67.083	-16.213	
44.00	-62.352	35.088	
45.00	-61.996	52.855	
46.00	-61.721	90.462	
47.00	-62.908	110.240	
48.00	-65.543	136.191	
49.00	-65.937	179.696	
50.00	-69.092	-139.679	
51.00	-68.172	-98.263	
52.00	-70.012	-55.589	
53.00	-68.547	-22.351	
54.00	-63.210	12.873	
55.00	-60.961	31.385	
56.00	-58.456	53.757	
57.00	-57.531	75.314	
58.00	-56.611	97.731	
59.00	-57.187	122.096	
60.00	-58.127	150.452	
61.00	-59.622	-171.326	
62.00	-60.852	-121.482	
63.00	-61.200	-68.527	
64.00	-59.152	-24.097	
65.00	-58.001	15.075	
66.00	-56.694	42.993	
67.00	-57.189	78.478	
68.00	-58.336	122.871	
69.00	-57.414	172.887	
70.00	-55.670	-144.990	
71.00	-53.158	-107.225	
72.00	-51.337	-80.688	
73.00	-50.297	-56.836	
74.00	-50.389	-29.427	
75.00	-50.506	-0.385	
76.00	-50.851	34.320	
77.00	-51.463	65.654	
78.00	-50.524	99.732	
79.00	-50.258	131.738	
80.00	-49.827	160.933	
81.00	-49.390	-168.576	
82.00	-48.977	-137.578	
83.00	-48.206	-111.224	
84.00	-48.102	-83.968	
85.00	-47.536	-59.080	
86.00	-47.721	-32.555	
87.00	-47.937	-4.269	
88.00	-47.942	22.186	
89.00	-48.278	52.570	
90.00	-48.293	80.275	
91.00	-47.965	108.464	
92.00	-47.638	139.016	
93.00	-46.886	166.281	
94.00	-46.489	-165.685	
95.00	-46.077	-137.844	
96.00	-45.378	-110.928	
97.00	-45.123	-85.546	
98.00	-44.604	-63.761	
99.00	-43.914	-39.451	
100.00	-43.529	-13.883	
101.00	-42.866	19.114	
102.00	-42.586	45.260	
103.00	-42.462	68.200	
104.00	-42.105	88.705	
105.00	-41.895	115.261	
106.00	-41.798	135.226	
107.00	-41.551	160.616	
108.00	-41.359	-178.578	
109.00	-41.215	-154.093	
110.00	-41.337	-135.185	
111.00	-41.371	-110.924	
112.00	-41.643	-88.135	
113.00	-42.058	-64.627	
114.00	-42.769	-42.118	
115.00	-43.204	-18.136	
116.00	-43.939	5.426	
117.00	-44.964	29.272	
118.00	-45.996	54.931	
119.00	-47.235	80.170	
120.00	-48.453	106.552	
121.00	-50.137	129.977	
122.00	-52.463	153.617	
123.00	-57.434	178.246	
124.00	-67.586	-130.678	
125.00	-60.482	-8.869	
126.00	-55.379	19.459	
127.00	-53.060	44.077	
128.00	-52.065	60.624	
129.00	-52.960	81.671	
130.00	-56.362	106.993	
131.00	-59.476	156.766	
132.00	-58.839	-141.107	
133.00	-55.287	-107.163	
134.00	-53.657	-80.619	
135.00	-53.579	-57.230	
136.00	-54.117	-38.351	
137.00	-56.077	-14.835	
138.00	-59.203	-1.334	
139.00	-64.145	28.719	
140.00	-78.026	124.678	
141.00	-67.536	-139.487	
142.00	-66.179	-85.607	
143.00	-62.871	-51.329	
144.00	-62.524	-13.129	
145.00	-58.187	22.042	
146.00	-56.910	45.591	
147.00	-57.019	64.146	
148.00	-56.728	95.416	
149.00	-57.215	131.704	
150.00	-58.799	163.820	
151.00	-58.273	-152.681	
152.00	-58.730	-114.896	
153.00	-59.437	-74.672	
154.00	-56.543	-36.235	
155.00	-55.187	-10.028	
156.00	-54.501	12.319	
157.00	-54.925	27.403	
158.00	-57.312	27.155	
159.00	-62.213	11.790	
160.00	-62.407	-45.147	
161.00	-56.373	-62.290	
162.00	-52.030	-67.313	
163.00	-51.591	-62.399	
164.00	-51.769	-49.361	
165.00	-52.788	-31.275	
166.00	-57.538	-7.335	
167.00	-57.355	47.947	
168.00	-54.726	76.378	
169.00	-52.880	97.769	
170.00	-53.880	107.928	
171.00	-54.937	113.598	
172.00	-62.185	98.592	
173.00	-65.702	9.431	
174.00	-56.470	-35.151	
175.00	-53.055	-41.261	
176.00	-53.268	-44.744	
177.00	-54.855	-45.232	
178.00	-60.917	-52.693	
179.00	-67.559	127.457	
180.00	-55.328	126.334	
181.00	-52.468	107.468	
182.00	-52.514	74.908	
183.00	-49.402	38.269	
184.00	-44.517	7.688	
185.00	-39.955	-8.162	
186.00	-36.626	-15.250	
187.00	-34.231	-21.913	
188.00	-32.646	-26.305	
189.00	-31.815	-30.337	
190.00	-31.748	-34.332	
191.00	-32.240	-37.819	
192.00	-33.529	-40.279	
193.00	-35.666	-42.785	
194.00	-38.701	-43.015	
195.00	-43.091	-40.462	
196.00	-49.436	-18.598	
197.00	-52.365	34.610	
198.00	-50.504	62.948	
199.00	-50.060	69.616	
200.00	-51.927	68.963	
201.00	-56.858	66.415	
202.00	-68.844	84.129	
203.00	-59.913	-135.880	
204.00	-53.930	-145.180	
205.00	-52.668	-150.195	
206.00	-53.259	-156.590	
207.00	-54.349	-167.674	
208.00	-59.420	-168.956	
209.00	-65.853	-153.371	
210.00	-67.526	-110.480	
211.00	-65.784	-94.778	
212.00	-65.776	-104.708	
213.00	-65.770	-163.346	
214.00	-62.012	139.923	
215.00	-57.125	116.951	
216.00	-53.626	98.932	
217.00	-52.703	83.615	
218.00	-51.762	68.591	
219.00	-53.422	61.299	
220.00	-55.679	53.293	
221.00	-59.786	47.526	
222.00	-70.858	96.721	
223.00	-62.324	150.120	
224.00	-56.987	147.515	
225.00	-54.219	133.506	
226.00	-52.987	116.265	
227.00	-52.799	97.507	
228.00	-53.114	80.481	
229.00	-54.031	53.362	
230.00	-55.592	24.492	
231.00	-56.918	-3.576	
232.00	-57.092	-38.243	
233.00	-58.207	-82.466	
234.00	-58.645	-111.987	
235.00	-58.133	-138.340	
236.00	-59.589	-167.864	
237.00	-59.106	157.943	
238.00	-58.969	129.708	
239.00	-59.236	106.014	
240.00	-61.388	77.401	
241.00	-62.542	53.173	
242.00	-64.120	40.218	
243.00	-66.321	50.897	
244.00	-66.829	55.650	
245.00	-66.581	88.834	
246.00	-64.859	89.349	
247.00	-65.135	133.829	
248.00	-61.257	85.175	
249.00	-62.049	80.619	
250.00	-61.703	61.539	
251.00	-69.571	121.774	
252.00	-64.206	78.137	
253.00	-64.339	-6.172	
254.00	-62.002	-31.749	
255.00	-68.731	-38.013	
256.00	-66.758	-68.975	
257.00	-66.078	22.623	
258.00	-66.511	15.595	
259.00	-70.017	51.720	
260.00	-66.352	15.519	
261.00	-67.191	34.021	
262.00	-64.635	56.447	
263.00	-69.250	-10.419	
264.00	-71.049	19.306	
265.00	-71.431	-10.578	
266.00	-86.042	0.484	
267.00	-80.545	-161.066	
268.00	-79.663	54.345	
269.00	-90.769	151.792	
270.00	-87.356	-25.416	
271.00	-74.321	-43.454	
272.00	-73.560	-28.565	
273.00	-71.098	-25.510	
274.00	-74.861	-23.952	
275.00	-76.584	-42.027	
276.00	-80.432	164.373	
277.00	-79.341	156.391	
278.00	-75.291	148.250	
279.00	-70.620	128.115	
280.00	-69.879	130.558	
281.00	-67.623	99.839	
282.00	-67.066	63.165	
283.00	-66.155	55.736	
284.00	-65.586	39.328	
285.00	-63.394	24.175	
286.00	-64.106	12.714	
287.00	-65.435	4.192	
288.00	-66.554	1.878	
289.00	-68.524	-5.453	
290.00	-68.504	8.596	
291.00	-68.598	12.740	
292.00	-71.223	4.365	
293.00	-68.136	-18.739	
294.00	-65.906	-11.434	
295.00	-65.831	-6.493	
296.00	-66.781	-4.743	
297.00	-74.113	-21.625	
298.00	-71.265	-5.565	
299.00	-73.023	-27.140	
300.00	-71.490	-73.824	
301.00	-90.488	153.421	
302.00	-69.072	-132.968	
303.00	-71.387	-163.671	
304.00	-68.804	-151.857	
305.00	-65.110	156.958	
306.00	-68.290	134.867	
307.00	-66.274	143.550	
308.00	-69.240	101.697	
309.00	-66.368	127.509	
310.00	-71.564	105.669	
311.00	-63.140	97.740	
312.00	-70.738	60.121	
313.00	-63.956	37.601	
314.00	-64.433	22.881	
315.00	-64.142	32.567	
316.00	-74.732	23.887	
317.00	-64.636	-13.963	
318.00	-69.971	-38.303	
319.00	-63.793	-30.391	
320.00	-65.362	-10.158	
321.00	-70.071	-62.516	
322.00	-68.938	-67.571	
323.00	-74.009	-80.702	
324.00	-69.686	-119.263	
325.00	-65.339	107.722	
326.00	-62.714	105.736	
327.00	-60.786	95.786	
328.00	-59.745	83.079	
329.00	-64.433	70.389	
330.00	-61.576	85.405	
331.00	-62.608	115.693	
332.00	-70.104	87.576	
333.00	-71.664	32.809	
334.00	-73.545	40.223	
335.00	-92.249	75.406	
336.00	-71.461	-54.238	
337.00	-72.386	-135.342	
338.00	-82.548	-105.284	
339.00	-80.177	-120.270	
340.00	-77.922	106.334	
341.00	-74.852	154.767	
342.00	-75.601	146.219	
343.00	-68.577	-135.169	
344.00	-66.428	131.434	
345.00	-65.629	94.726	
346.00	-70.073	-165.587	
347.00	-78.160	153.376	
348.00	-76.280	134.845	
349.00	-78.312	-111.715	
350.00	-67.046	-71.604	
351.00	-60.411	-113.056	
352.00	-57.873	-64.823	
353.00	-64.231	-88.193	
354.00	-70.195	-93.500	
355.00	-65.621	5.488	
356.00	-62.453	23.450	
357.00	-60.632	46.099	
358.00	-61.184	31.523	
359.00	-60.312	45.416	
Frequency	2700.00	MHz	
Channel	test		
Scan Axis name	Azimuth  [deg]		
Scan Axis	Amplitude	Phase	
			
0.00	-67.327	169.179	
1.00	-66.256	155.069	
2.00	-67.401	149.463	
3.00	-68.268	175.736	
4.00	-72.714	159.513	
5.00	-73.047	-133.167	
6.00	-79.228	145.266	
7.00	-81.491	-152.758	
8.00	-71.404	-45.276	
9.00	-82.384	-102.519	
10.00	-77.652	13.802	
11.00	-74.578	20.761	
12.00	-75.088	37.146	
13.00	-69.928	94.089	
14.00	-70.159	95.522	
15.00	-66.886	138.946	
16.00	-65.504	140.083	
17.00	-64.771	159.263	
18.00	-64.335	-168.233	
19.00	-65.266	-169.700	
20.00	-65.591	-157.093	
21.00	-66.305	-118.257	
22.00	-71.512	-82.579	
23.00	-71.644	-13.226	
24.00	-70.715	20.954	
25.00	-67.842	79.225	
26.00	-67.728	91.634	
27.00	-67.548	139.701	
28.00	-65.860	161.622	
29.00	-65.588	-178.482	
30.00	-66.186	-146.696	
31.00	-65.403	-148.380	
32.00	-64.761	-135.046	
33.00	-65.999	-140.934	
34.00	-71.626	-128.534	
35.00	-71.912	169.141	
36.00	-67.075	163.208	
37.00	-67.756	169.825	
38.00	-67.907	-179.096	
39.00	-67.855	-158.736	
40.00	-71.409	-149.084	
41.00	-75.113	-52.434	
42.00	-78.230	57.019	
43.00	-72.372	110.285	
44.00	-70.334	99.533	
45.00	-68.579	160.813	
46.00	-67.595	-161.301	
47.00	-68.628	-123.365	
48.00	-67.516	-109.574	
49.00	-64.522	-68.434	
50.00	-72.612	-56.547	
51.00	-69.442	12.314	
52.00	-69.957	37.047	
53.00	-73.746	63.008	
54.00	-70.373	127.003	
55.00	-64.961	149.240	
56.00	-63.097	169.988	
57.00	-61.431	-151.526	
58.00	-60.768	-136.134	
59.00	-61.575	-103.322	
60.00	-60.807	-78.531	
61.00	-61.927	-41.854	
62.00	-62.708	3.388	
63.00	-62.550	55.274	
64.00	-61.149	98.293	
65.00	-59.628	131.259	
66.00	-59.402	170.246	
67.00	-59.023	-167.689	
68.00	-59.799	-130.467	
69.00	-62.009	-90.159	
70.00	-60.413	-30.394	
71.00	-60.250	12.337	
72.00	-58.617	54.646	
73.00	-57.798	87.566	
74.00	-57.213	115.891	
75.00	-55.332	150.543	
76.00	-55.081	-176.594	
77.00	-55.034	-148.002	
78.00	-54.718	-114.528	
79.00	-54.768	-82.868	
80.00	-55.163	-50.549	
81.00	-55.129	-12.145	
82.00	-54.290	25.595	
83.00	-53.034	54.721	
84.00	-51.816	83.774	
85.00	-51.129	108.026	
86.00	-50.284	133.126	
87.00	-50.611	161.424	
88.00	-50.419	-171.331	
89.00	-49.917	-143.852	
90.00	-49.657	-119.631	
91.00	-49.676	-89.330	
92.00	-47.363	-65.966	
93.00	-49.118	-52.706	
94.00	-46.689	-9.025	
95.00	-47.289	9.131	
96.00	-46.476	36.444	
97.00	-46.730	64.079	
98.00	-46.090	87.570	
99.00	-44.901	112.159	
100.00	-44.957	134.593	
101.00	-44.039	167.977	
102.00	-43.557	-167.234	
103.00	-43.162	-143.887	
104.00	-42.826	-123.034	
105.00	-42.492	-99.600	
106.00	-42.037	-78.873	
107.00	-41.639	-55.402	
108.00	-41.461	-36.197	
109.00	-41.149	-13.362	
110.00	-41.188	5.393	
111.00	-41.243	27.988	
112.00	-41.310	47.568	
113.00	-41.652	69.155	
114.00	-42.148	91.630	
115.00	-42.656	111.839	
116.00	-43.144	135.928	
117.00	-43.854	157.179	
118.00	-44.865	-179.168	
119.00	-45.524	-156.529	
120.00	-46.662	-135.010	
121.00	-47.988	-115.362	
122.00	-50.068	-98.944	
123.00	-53.337	-86.461	
124.00	-58.550	-92.700	
125.00	-65.039	-142.649	
126.00	-58.054	-175.439	
127.00	-54.059	-164.451	
128.00	-53.843	-149.472	
129.00	-54.341	-130.221	
130.00	-55.035	-96.679	
131.00	-55.218	-59.494	
132.00	-53.985	-30.975	
133.00	-53.222	1.049	
134.00	-53.383	28.530	
135.00	-54.926	40.520	
136.00	-56.675	74.462	
137.00	-57.595	92.264	
138.00	-61.884	131.292	
139.00	-67.671	-177.492	
140.00	-71.594	-98.648	
141.00	-65.976	-51.967	
142.00	-62.804	-17.758	
143.00	-60.655	2.619	
144.00	-62.463	17.203	
145.00	-65.034	35.439	
146.00	-70.066	42.038	
147.00	-69.179	6.766	
148.00	-63.355	-8.392	
149.00	-57.502	6.819	
150.00	-54.854	10.894	
151.00	-52.955	22.085	
152.00	-52.771	40.128	
153.00	-53.941	59.232	
154.00	-54.566	91.008	
155.00	-55.340	121.447	
156.00	-55.037	140.315	
157.00	-56.429	161.993	
158.00	-59.808	167.502	
159.00	-67.660	145.618	
160.00	-62.037	67.145	
161.00	-55.963	59.892	
162.00	-52.888	67.817	
163.00	-51.915	76.670	
164.00	-52.511	86.075	
165.00	-54.735	104.029	
166.00	-57.487	137.936	
167.00	-59.204	-171.357	
168.00	-54.853	-127.089	
169.00	-54.093	-109.037	
170.00	-53.802	-95.207	
171.00	-58.442	-92.884	
172.00	-79.474	-84.963	
173.00	-60.453	105.352	
174.00	-54.454	103.532	
175.00	-52.522	100.650	
176.00	-52.582	98.280	
177.00	-58.259	86.012	
178.00	-65.143	-14.349	
179.00	-53.787	-56.875	
180.00	-49.615	-67.599	
181.00	-48.226	-76.369	
182.00	-49.588	-102.444	
183.00	-49.284	-152.051	
184.00	-43.753	165.998	
185.00	-38.785	149.628	
186.00	-35.132	141.413	
187.00	-32.668	136.955	
188.00	-31.075	132.790	
189.00	-30.128	129.434	
190.00	-29.888	126.443	
191.00	-30.295	123.993	
192.00	-31.291	121.670	
193.00	-32.951	120.022	
194.00	-35.490	120.132	
195.00	-39.063	122.387	
196.00	-43.491	130.314	
197.00	-48.839	154.349	
198.00	-51.227	-162.599	
199.00	-50.976	-135.480	
200.00	-51.446	-120.336	
201.00	-53.741	-104.676	
202.00	-59.069	-73.474	
203.00	-57.807	-20.591	
204.00	-53.849	-1.198	
205.00	-54.056	9.935	
206.00	-53.945	14.484	
207.00	-56.180	34.026	
208.00	-57.660	65.410	
209.00	-54.738	98.547	
210.00	-53.067	112.071	
211.00	-51.343	117.987	
212.00	-50.632	115.553	
213.00	-51.544	107.885	
214.00	-52.884	112.508	
215.00	-56.536	113.784	
216.00	-62.784	126.004	
217.00	-68.039	159.837	
218.00	-64.086	-136.757	
219.00	-63.356	-124.250	
220.00	-59.807	-109.683	
221.00	-61.264	-104.533	
222.00	-59.512	-84.367	
223.00	-56.345	-90.345	
224.00	-55.500	-88.971	
225.00	-54.750	-96.222	
226.00	-56.051	-102.630	
227.00	-55.974	-118.522	
228.00	-57.370	-119.632	
229.00	-60.487	-141.257	
230.00	-62.220	-150.087	
231.00	-69.219	-131.342	
232.00	-76.111	-120.086	
233.00	-69.097	-84.771	
234.00	-63.359	-80.897	
235.00	-62.490	-92.034	
236.00	-62.037	-109.723	
237.00	-61.860	-139.240	
238.00	-62.961	-158.793	
239.00	-62.458	178.831	
240.00	-62.507	127.837	
241.00	-66.110	111.965	
242.00	-69.258	97.608	
243.00	-65.646	27.355	
244.00	-69.752	0.047	
245.00	-63.477	-48.532	
246.00	-64.089	-53.391	
247.00	-62.949	-84.462	
248.00	-62.605	-105.510	
249.00	-63.469	-118.716	
250.00	-63.686	-148.032	
251.00	-65.427	-157.445	
252.00	-65.502	-176.275	
253.00	-69.260	154.066	
254.00	-68.060	143.182	
255.00	-72.506	146.994	
256.00	-75.236	111.608	
257.00	-75.936	110.213	
258.00	-75.823	108.819	
259.00	-79.186	60.073	
260.00	-75.629	33.081	
261.00	-78.494	69.018	
262.00	-73.172	30.481	
263.00	-77.229	68.284	
264.00	-75.696	59.873	
265.00	-75.387	84.837	
266.00	-78.502	49.618	
267.00	-83.317	29.156	
268.00	-81.516	40.387	
269.00	-80.137	41.414	
270.00	-82.679	15.926	
271.00	-79.208	52.564	
272.00	-75.514	40.072	
273.00	-73.796	47.529	
274.00	-80.104	23.072	
275.00	-79.278	-81.376	
276.00	-80.552	-14.177	
277.00	-77.612	-87.785	
278.00	-80.022	-122.856	
279.00	-72.130	-105.826	
280.00	-73.486	-84.867	
281.00	-75.119	176.079	
282.00	-75.844	150.829	
283.00	-74.913	136.501	
284.00	-79.036	56.185	
285.00	-71.573	70.416	
286.00	-69.675	17.515	
287.00	-66.961	-11.591	
288.00	-65.100	-16.231	
289.00	-63.348	-51.890	
290.00	-63.966	-56.214	
291.00	-64.111	-71.863	
292.00	-63.708	-86.822	
293.00	-63.218	-118.446	
294.00	-64.868	-125.656	
295.00	-67.630	-147.012	
296.00	-65.995	-178.154	
297.00	-71.387	174.576	
298.00	-72.404	148.904	
299.00	-81.211	-134.466	
300.00	-80.747	-20.635	
301.00	-70.584	-70.436	
302.00	-69.567	-83.187	
303.00	-70.303	-84.725	
304.00	-68.271	-106.139	
305.00	-67.895	-135.482	
306.00	-69.382	-138.767	
307.00	-67.987	-153.774	
308.00	-68.815	-179.614	
309.00	-70.470	169.336	
310.00	-72.123	173.133	
311.00	-71.766	178.312	
312.00	-70.137	169.235	
313.00	-68.714	174.174	
314.00	-67.238	167.967	
315.00	-66.588	158.209	
316.00	-66.114	145.494	
317.00	-65.067	139.100	
318.00	-64.925	113.435	
319.00	-64.420	114.413	
320.00	-64.150	104.172	
321.00	-64.270	95.477	
322.00	-65.317	95.909	
323.00	-67.952	105.228	
324.00	-67.923	118.505	
325.00	-66.562	140.348	
326.00	-67.323	149.267	
327.00	-66.878	133.203	
328.00	-66.920	129.665	
329.00	-67.464	127.298	
330.00	-66.280	112.792	
331.00	-67.713	99.038	
332.00	-66.480	82.079	
333.00	-67.808	72.811	
334.00	-68.659	72.409	
335.00	-69.476	60.782	
336.00	-65.576	48.458	
337.00	-65.879	40.950	
338.00	-68.677	33.916	
339.00	-68.524	26.477	
340.00	-67.819	-5.714	
341.00	-66.240	-25.292	
342.00	-65.289	-35.426	
343.00	-64.477	-44.638	
344.00	-63.090	-67.751	
345.00	-63.367	-95.706	
346.00	-65.095	-85.378	
347.00	-67.409	-124.506	
348.00	-70.832	-160.190	
349.00	-81.054	-168.741	
350.00	-78.420	136.553	
351.00	-67.754	53.680	
352.00	-65.689	29.512	
353.00	-66.222	29.773	
354.00	-66.071	16.498	
355.00	-78.878	14.628	
356.00	-74.261	88.558	
357.00	-69.145	134.320	
358.00	-67.552	149.112	
359.00	-67.988	164.831	
