Test Title:	Alpha Wireless Indoor Range						
Date:	02/11/2017						
Time:	17:08						
Operator Name:	FL						
Comment:	Version 2 Run 2
Cable length changed						
Caib. File Name:	C:\Program Files\Midas 2.01d\Calibration Files\test sigma 180900.cal						
							
[Scan Axis] Name: 	Azimuth  [deg]Start: 	0.000000	Stop	359.000000	Increment	1.000000[Step Axis] Name: 	Start: 	0.000000	Stop	0.000000	Increment	0.000000[Tert] Name: 	None [Forth] Name: 	None  [ Freq.]  (List) 	MHz.	1694.000000	1710.000000	1800.000000	1850.000000	1950.000000	2050.000000	2170.000000	2300.000000	2350.000000	2400.000000	2450.000000	2496.000000	2550.000000	2600.000000	2650.000000	2700.000000
 [Switch]  	None [Channel]  	test			 [ Beam] 	None			
Database:			
First Question			
2nd			
3rd			
4th			
			
Frequency	1694.00	MHz	
Channel	test		
Scan Axis name	Azimuth  [deg]		
Scan Axis	Amplitude	Phase	
			
0.00	-60.387	94.693	
1.00	-63.446	113.817	
2.00	-77.381	145.279	
3.00	-77.275	-132.253	
4.00	-73.046	-136.177	
5.00	-66.238	-69.612	
6.00	-66.579	-34.483	
7.00	-65.818	-42.451	
8.00	-62.544	-36.318	
9.00	-63.680	-36.853	
10.00	-63.894	-31.204	
11.00	-64.228	-35.837	
12.00	-67.841	-39.483	
13.00	-77.976	-52.235	
14.00	-67.281	-136.980	
15.00	-66.515	-140.656	
16.00	-61.912	-146.025	
17.00	-59.971	-141.920	
18.00	-57.883	-134.991	
19.00	-57.413	-127.327	
20.00	-57.345	-120.581	
21.00	-56.484	-108.968	
22.00	-56.843	-96.243	
23.00	-56.923	-83.169	
24.00	-58.351	-71.918	
25.00	-58.894	-63.604	
26.00	-59.102	-46.185	
27.00	-60.701	-31.216	
28.00	-63.324	-24.559	
29.00	-65.345	-27.016	
30.00	-71.293	-39.497	
31.00	-75.766	-89.921	
32.00	-69.278	-138.310	
33.00	-65.594	-138.379	
34.00	-62.174	-141.172	
35.00	-60.551	-129.622	
36.00	-58.448	-126.268	
37.00	-58.218	-117.921	
38.00	-57.916	-111.589	
39.00	-57.048	-104.027	
40.00	-57.860	-96.683	
41.00	-57.632	-92.726	
42.00	-58.023	-88.640	
43.00	-59.418	-90.268	
44.00	-59.607	-83.422	
45.00	-60.201	-93.819	
46.00	-61.168	-98.821	
47.00	-61.022	-100.281	
48.00	-61.136	-102.871	
49.00	-59.872	-99.974	
50.00	-60.150	-103.352	
51.00	-60.015	-97.641	
52.00	-60.304	-93.688	
53.00	-61.742	-88.769	
54.00	-61.966	-85.877	
55.00	-63.241	-83.694	
56.00	-65.221	-82.855	
57.00	-66.208	-79.636	
58.00	-68.786	-86.198	
59.00	-68.273	-111.132	
60.00	-67.502	-116.639	
61.00	-67.474	-123.726	
62.00	-66.334	-133.620	
63.00	-64.675	-129.822	
64.00	-64.019	-124.507	
65.00	-63.599	-118.191	
66.00	-63.626	-101.837	
67.00	-64.319	-87.101	
68.00	-63.368	-72.682	
69.00	-63.135	-51.622	
70.00	-61.297	-38.049	
71.00	-60.711	-24.796	
72.00	-59.448	-14.803	
73.00	-58.864	-5.152	
74.00	-58.712	1.846	
75.00	-58.491	6.967	
76.00	-59.225	12.538	
77.00	-61.077	18.501	
78.00	-62.705	22.861	
79.00	-65.645	22.620	
80.00	-70.259	17.963	
81.00	-95.158	154.493	
82.00	-76.602	-157.215	
83.00	-69.747	-139.844	
84.00	-67.317	-143.642	
85.00	-66.261	-133.436	
86.00	-63.804	-133.716	
87.00	-65.487	-118.756	
88.00	-67.632	-96.671	
89.00	-69.055	-114.043	
90.00	-68.857	-83.448	
91.00	-70.556	-46.113	
92.00	-76.039	-47.513	
93.00	-74.422	28.050	
94.00	-72.342	46.320	
95.00	-69.463	113.436	
96.00	-73.984	86.388	
97.00	-69.346	61.498	
98.00	-69.804	123.551	
99.00	-67.214	132.658	
100.00	-68.127	138.350	
101.00	-64.081	150.239	
102.00	-64.022	160.805	
103.00	-63.286	166.387	
104.00	-63.026	161.063	
105.00	-63.908	170.572	
106.00	-63.397	166.313	
107.00	-62.775	162.738	
108.00	-63.747	159.676	
109.00	-65.432	159.010	
110.00	-65.446	146.556	
111.00	-67.447	130.642	
112.00	-67.360	115.483	
113.00	-65.312	101.660	
114.00	-64.276	80.961	
115.00	-61.935	77.543	
116.00	-60.737	77.523	
117.00	-59.001	71.064	
118.00	-57.874	74.990	
119.00	-56.688	79.620	
120.00	-55.979	87.256	
121.00	-55.612	93.563	
122.00	-54.748	103.876	
123.00	-53.817	116.079	
124.00	-52.714	128.891	
125.00	-51.903	140.960	
126.00	-50.466	150.478	
127.00	-49.597	161.888	
128.00	-48.383	169.334	
129.00	-47.432	176.191	
130.00	-46.776	-176.642	
131.00	-46.219	-171.194	
132.00	-46.084	-166.344	
133.00	-46.080	-162.846	
134.00	-46.278	-159.882	
135.00	-46.756	-159.596	
136.00	-47.403	-159.991	
137.00	-48.276	-162.619	
138.00	-49.001	-169.080	
139.00	-49.422	178.949	
140.00	-48.990	167.389	
141.00	-47.733	158.888	
142.00	-46.571	154.289	
143.00	-45.259	151.992	
144.00	-44.068	151.528	
145.00	-43.301	153.206	
146.00	-42.787	155.431	
147.00	-42.309	158.220	
148.00	-42.206	160.903	
149.00	-42.445	163.322	
150.00	-42.885	164.834	
151.00	-43.695	166.862	
152.00	-44.728	167.088	
153.00	-46.071	163.907	
154.00	-47.732	159.875	
155.00	-49.010	149.505	
156.00	-50.275	139.249	
157.00	-50.493	126.798	
158.00	-50.478	115.812	
159.00	-50.934	113.397	
160.00	-51.217	112.321	
161.00	-52.410	117.719	
162.00	-54.537	133.148	
163.00	-58.010	150.583	
164.00	-58.330	-156.856	
165.00	-56.018	-123.478	
166.00	-53.469	-108.359	
167.00	-52.386	-102.677	
168.00	-52.935	-97.193	
169.00	-55.806	-93.390	
170.00	-63.016	-95.091	
171.00	-60.392	88.306	
172.00	-51.361	95.816	
173.00	-46.451	97.897	
174.00	-43.615	98.842	
175.00	-41.570	101.667	
176.00	-40.393	102.834	
177.00	-40.033	104.463	
178.00	-40.349	105.286	
179.00	-41.842	106.334	
180.00	-45.369	108.406	
181.00	-54.390	113.188	
182.00	-51.661	-80.766	
183.00	-42.310	-78.699	
184.00	-37.587	-77.578	
185.00	-34.564	-77.642	
186.00	-32.435	-78.773	
187.00	-30.916	-79.917	
188.00	-29.867	-81.098	
189.00	-29.270	-82.675	
190.00	-28.938	-84.650	
191.00	-29.082	-86.538	
192.00	-29.483	-89.114	
193.00	-30.274	-91.737	
194.00	-31.441	-94.905	
195.00	-33.043	-98.488	
196.00	-35.297	-103.724	
197.00	-38.325	-110.576	
198.00	-42.601	-122.573	
199.00	-48.952	-155.291	
200.00	-49.202	134.504	
201.00	-44.734	103.389	
202.00	-41.951	91.796	
203.00	-40.443	85.929	
204.00	-39.673	82.437	
205.00	-39.439	80.277	
206.00	-39.626	78.385	
207.00	-39.881	78.471	
208.00	-40.438	79.432	
209.00	-41.328	80.611	
210.00	-42.046	83.186	
211.00	-42.869	85.006	
212.00	-43.819	86.716	
213.00	-44.734	87.700	
214.00	-46.255	86.166	
215.00	-47.909	86.636	
216.00	-50.213	86.088	
217.00	-53.818	89.480	
218.00	-58.895	99.315	
219.00	-62.549	164.179	
220.00	-57.379	-158.059	
221.00	-53.171	-151.259	
222.00	-50.641	-153.491	
223.00	-49.161	-157.297	
224.00	-47.872	-162.184	
225.00	-47.246	-167.645	
226.00	-47.181	-172.018	
227.00	-47.439	-177.806	
228.00	-48.058	-179.544	
229.00	-49.029	175.011	
230.00	-50.382	173.336	
231.00	-52.332	172.586	
232.00	-54.018	176.300	
233.00	-56.660	-176.021	
234.00	-59.100	-171.638	
235.00	-61.664	-159.134	
236.00	-61.296	-129.280	
237.00	-63.058	-124.789	
238.00	-62.818	-117.315	
239.00	-64.560	-111.957	
240.00	-64.699	-106.993	
241.00	-65.348	-89.463	
242.00	-63.527	-94.593	
243.00	-62.630	-86.146	
244.00	-61.434	-89.476	
245.00	-60.468	-94.051	
246.00	-58.790	-100.061	
247.00	-57.043	-113.915	
248.00	-56.954	-125.067	
249.00	-55.417	-140.099	
250.00	-53.753	-148.121	
251.00	-53.570	-160.496	
252.00	-53.181	-167.961	
253.00	-52.673	179.242	
254.00	-51.939	167.524	
255.00	-51.854	156.175	
256.00	-51.635	148.859	
257.00	-51.742	138.728	
258.00	-51.699	131.817	
259.00	-51.962	124.337	
260.00	-52.464	120.792	
261.00	-53.389	115.394	
262.00	-54.503	112.662	
263.00	-55.644	112.833	
264.00	-57.953	117.311	
265.00	-59.775	130.404	
266.00	-60.719	144.548	
267.00	-61.153	157.280	
268.00	-59.855	167.364	
269.00	-58.956	170.852	
270.00	-59.192	173.106	
271.00	-58.485	172.518	
272.00	-58.338	168.146	
273.00	-58.575	163.339	
274.00	-59.072	158.234	
275.00	-60.254	152.188	
276.00	-61.651	144.574	
277.00	-63.610	139.838	
278.00	-66.605	131.762	
279.00	-71.848	116.608	
280.00	-81.301	22.301	
281.00	-72.965	-60.706	
282.00	-66.746	-71.832	
283.00	-64.086	-85.236	
284.00	-61.542	-93.118	
285.00	-60.335	-102.584	
286.00	-59.988	-114.107	
287.00	-58.001	-129.462	
288.00	-57.862	-144.361	
289.00	-57.265	-163.709	
290.00	-56.736	-176.019	
291.00	-56.095	165.083	
292.00	-54.839	157.277	
293.00	-54.213	141.960	
294.00	-53.634	130.821	
295.00	-53.062	120.947	
296.00	-53.092	109.852	
297.00	-53.402	100.765	
298.00	-54.514	92.576	
299.00	-54.478	79.337	
300.00	-56.553	75.113	
301.00	-59.231	65.352	
302.00	-62.928	51.737	
303.00	-66.214	16.583	
304.00	-68.617	-26.625	
305.00	-68.060	-80.533	
306.00	-62.922	-106.183	
307.00	-61.713	-117.899	
308.00	-60.110	-128.884	
309.00	-59.170	-138.327	
310.00	-58.207	-144.635	
311.00	-57.773	-150.110	
312.00	-57.497	-157.612	
313.00	-57.125	-161.925	
314.00	-57.207	-169.709	
315.00	-56.890	-172.034	
316.00	-56.610	-175.071	
317.00	-56.417	-179.688	
318.00	-56.245	175.447	
319.00	-56.717	169.266	
320.00	-57.570	161.596	
321.00	-58.145	148.768	
322.00	-58.526	142.663	
323.00	-58.531	135.169	
324.00	-58.585	121.648	
325.00	-58.185	110.225	
326.00	-57.041	97.861	
327.00	-56.384	83.899	
328.00	-55.643	72.546	
329.00	-55.009	62.309	
330.00	-54.815	55.092	
331.00	-54.754	41.071	
332.00	-55.141	30.461	
333.00	-55.804	19.901	
334.00	-56.981	1.954	
335.00	-57.346	-16.501	
336.00	-58.460	-38.579	
337.00	-58.805	-62.232	
338.00	-58.483	-93.303	
339.00	-57.776	-107.563	
340.00	-57.294	-119.935	
341.00	-57.062	-135.363	
342.00	-57.103	-150.834	
343.00	-57.089	-162.047	
344.00	-57.898	-179.786	
345.00	-58.418	172.808	
346.00	-59.237	153.136	
347.00	-59.668	134.726	
348.00	-58.429	117.606	
349.00	-57.431	104.967	
350.00	-56.372	95.325	
351.00	-55.468	93.135	
352.00	-54.456	87.958	
353.00	-53.845	86.602	
354.00	-53.445	85.496	
355.00	-53.468	83.809	
356.00	-53.465	84.892	
357.00	-54.211	88.713	
358.00	-55.146	85.602	
359.00	-57.211	89.678	
Frequency	1710.00	MHz	
Channel	test		
Scan Axis name	Azimuth  [deg]		
Scan Axis	Amplitude	Phase	
			
0.00	-57.789	-18.610	
1.00	-59.592	-35.963	
2.00	-58.163	-28.697	
3.00	-59.166	-62.362	
4.00	-59.380	-60.682	
5.00	-60.731	-62.933	
6.00	-61.253	-62.777	
7.00	-57.956	-59.380	
8.00	-58.511	-49.919	
9.00	-57.261	-55.613	
10.00	-58.309	-35.955	
11.00	-57.618	-40.749	
12.00	-58.731	-26.908	
13.00	-57.711	-6.574	
14.00	-59.051	-3.885	
15.00	-58.473	13.179	
16.00	-63.011	23.063	
17.00	-61.604	34.998	
18.00	-59.851	63.639	
19.00	-63.187	70.533	
20.00	-62.555	67.293	
21.00	-68.065	41.824	
22.00	-71.227	-32.644	
23.00	-66.303	-92.188	
24.00	-60.453	-63.947	
25.00	-59.209	-65.327	
26.00	-59.423	-68.039	
27.00	-57.134	-61.016	
28.00	-57.680	-59.775	
29.00	-59.282	-64.798	
30.00	-61.103	-54.297	
31.00	-61.045	-56.033	
32.00	-68.920	-37.732	
33.00	-72.331	-48.873	
34.00	-93.373	93.999	
35.00	-68.484	137.847	
36.00	-66.249	146.901	
37.00	-62.574	156.661	
38.00	-62.630	158.382	
39.00	-59.056	159.138	
40.00	-61.121	159.032	
41.00	-59.987	161.774	
42.00	-60.001	155.873	
43.00	-58.522	165.541	
44.00	-57.816	153.079	
45.00	-60.212	145.134	
46.00	-58.307	158.070	
47.00	-58.191	157.124	
48.00	-59.044	164.380	
49.00	-61.151	166.321	
50.00	-61.888	179.372	
51.00	-66.477	174.039	
52.00	-78.619	162.120	
53.00	-81.022	-24.754	
54.00	-69.362	18.519	
55.00	-63.987	25.922	
56.00	-62.276	33.029	
57.00	-61.414	38.364	
58.00	-60.007	42.747	
59.00	-60.919	62.812	
60.00	-61.230	58.046	
61.00	-62.814	75.657	
62.00	-64.542	99.521	
63.00	-63.534	111.067	
64.00	-65.356	125.032	
65.00	-63.465	126.266	
66.00	-63.163	149.400	
67.00	-62.649	158.980	
68.00	-62.074	159.141	
69.00	-61.344	163.728	
70.00	-62.157	169.277	
71.00	-61.170	168.345	
72.00	-61.649	167.048	
73.00	-62.369	170.527	
74.00	-61.908	167.897	
75.00	-61.839	162.701	
76.00	-62.920	176.322	
77.00	-62.743	170.615	
78.00	-63.377	179.582	
79.00	-64.819	178.843	
80.00	-66.864	175.283	
81.00	-65.101	-175.017	
82.00	-66.684	-178.511	
83.00	-69.838	-161.771	
84.00	-71.174	-165.052	
85.00	-72.131	-148.721	
86.00	-76.047	-147.558	
87.00	-71.697	-126.150	
88.00	-71.318	-120.162	
89.00	-71.786	-87.057	
90.00	-67.677	-86.473	
91.00	-69.443	-113.391	
92.00	-66.031	-106.110	
93.00	-64.983	-92.531	
94.00	-66.376	-83.543	
95.00	-64.193	-93.794	
96.00	-60.893	-103.852	
97.00	-63.983	-98.425	
98.00	-63.035	-84.168	
99.00	-58.886	-62.761	
100.00	-61.506	-54.813	
101.00	-60.157	-42.166	
102.00	-61.111	-21.990	
103.00	-63.734	-22.168	
104.00	-57.907	0.709	
105.00	-60.545	15.165	
106.00	-62.172	35.282	
107.00	-56.192	66.021	
108.00	-56.669	78.780	
109.00	-56.646	86.316	
110.00	-53.678	73.809	
111.00	-56.563	83.044	
112.00	-55.858	90.984	
113.00	-56.728	97.648	
114.00	-57.760	94.655	
115.00	-59.177	91.435	
116.00	-61.489	83.027	
117.00	-63.111	55.520	
118.00	-61.957	28.312	
119.00	-58.042	16.722	
120.00	-55.956	11.758	
121.00	-54.281	10.316	
122.00	-54.016	15.576	
123.00	-53.121	18.449	
124.00	-52.946	27.455	
125.00	-52.917	36.395	
126.00	-53.346	47.931	
127.00	-53.933	57.417	
128.00	-54.520	69.287	
129.00	-54.821	80.326	
130.00	-54.961	87.609	
131.00	-55.109	92.836	
132.00	-54.913	89.045	
133.00	-54.346	82.706	
134.00	-53.239	74.326	
135.00	-51.164	65.074	
136.00	-49.121	64.682	
137.00	-47.349	64.318	
138.00	-45.513	66.032	
139.00	-44.271	68.915	
140.00	-43.193	73.587	
141.00	-42.482	78.194	
142.00	-41.906	84.052	
143.00	-41.603	90.227	
144.00	-41.542	96.277	
145.00	-41.772	101.625	
146.00	-42.270	107.165	
147.00	-43.128	113.123	
148.00	-44.588	117.131	
149.00	-46.793	122.156	
150.00	-50.117	121.924	
151.00	-55.914	116.693	
152.00	-63.351	28.896	
153.00	-53.557	-15.085	
154.00	-48.497	-18.226	
155.00	-45.826	-15.635	
156.00	-44.048	-14.231	
157.00	-43.168	-10.365	
158.00	-42.881	-8.259	
159.00	-43.036	-6.501	
160.00	-44.118	-6.016	
161.00	-46.055	-8.349	
162.00	-49.303	-13.755	
163.00	-54.220	-35.860	
164.00	-55.182	-103.073	
165.00	-50.617	-133.140	
166.00	-47.922	-141.398	
167.00	-46.589	-146.676	
168.00	-46.888	-149.705	
169.00	-48.649	-157.651	
170.00	-52.636	-175.801	
171.00	-55.666	107.967	
172.00	-48.430	66.224	
173.00	-43.171	56.116	
174.00	-40.150	51.198	
175.00	-38.161	47.821	
176.00	-37.023	44.727	
177.00	-36.668	39.732	
178.00	-37.102	33.859	
179.00	-38.497	21.758	
180.00	-40.350	-0.629	
181.00	-40.595	-40.412	
182.00	-37.486	-73.985	
183.00	-33.884	-92.119	
184.00	-30.903	-102.096	
185.00	-28.625	-108.469	
186.00	-26.926	-113.044	
187.00	-25.677	-116.546	
188.00	-24.839	-119.769	
189.00	-24.338	-122.903	
190.00	-24.156	-125.441	
191.00	-24.334	-128.093	
192.00	-24.780	-130.633	
193.00	-25.606	-133.018	
194.00	-26.759	-135.385	
195.00	-28.434	-136.959	
196.00	-30.638	-137.994	
197.00	-33.614	-137.099	
198.00	-37.777	-133.193	
199.00	-44.104	-112.526	
200.00	-47.038	-45.775	
201.00	-42.194	-13.013	
202.00	-39.406	-5.843	
203.00	-38.179	-4.355	
204.00	-38.140	-4.097	
205.00	-38.764	-4.146	
206.00	-40.349	-4.139	
207.00	-42.814	0.808	
208.00	-47.025	16.657	
209.00	-49.507	58.431	
210.00	-46.980	98.245	
211.00	-43.731	110.711	
212.00	-41.418	116.169	
213.00	-40.078	116.171	
214.00	-39.561	115.973	
215.00	-39.490	115.319	
216.00	-39.873	114.780	
217.00	-40.562	115.829	
218.00	-41.705	117.203	
219.00	-43.146	120.352	
220.00	-44.019	123.245	
221.00	-45.192	131.199	
222.00	-45.550	139.044	
223.00	-46.140	143.162	
224.00	-45.985	144.053	
225.00	-46.149	141.167	
226.00	-46.094	134.807	
227.00	-46.652	128.307	
228.00	-46.607	117.961	
229.00	-46.638	106.068	
230.00	-46.760	96.152	
231.00	-46.662	85.347	
232.00	-46.662	75.257	
233.00	-46.597	65.198	
234.00	-46.957	56.901	
235.00	-47.163	49.336	
236.00	-47.376	41.387	
237.00	-47.861	34.210	
238.00	-48.399	27.296	
239.00	-48.884	18.382	
240.00	-49.157	12.418	
241.00	-49.597	3.367	
242.00	-50.098	-5.118	
243.00	-50.302	-12.717	
244.00	-50.823	-21.930	
245.00	-51.207	-30.441	
246.00	-51.774	-39.751	
247.00	-52.227	-48.225	
248.00	-52.293	-55.957	
249.00	-53.945	-64.889	
250.00	-54.859	-80.183	
251.00	-55.371	-86.743	
252.00	-57.681	-100.934	
253.00	-58.657	-121.658	
254.00	-60.503	-156.873	
255.00	-62.095	-169.682	
256.00	-59.388	174.424	
257.00	-60.270	144.143	
258.00	-60.585	136.814	
259.00	-59.999	119.543	
260.00	-58.913	103.749	
261.00	-58.670	92.802	
262.00	-59.657	83.053	
263.00	-60.207	64.492	
264.00	-59.047	48.634	
265.00	-59.518	31.321	
266.00	-59.360	21.616	
267.00	-58.821	3.569	
268.00	-58.902	-6.666	
269.00	-58.322	-24.792	
270.00	-57.926	-33.077	
271.00	-57.447	-46.298	
272.00	-57.213	-46.775	
273.00	-58.090	-61.267	
274.00	-57.327	-68.598	
275.00	-57.447	-78.151	
276.00	-58.007	-83.397	
277.00	-58.555	-86.504	
278.00	-59.066	-94.159	
279.00	-59.202	-99.561	
280.00	-59.484	-102.885	
281.00	-59.865	-109.271	
282.00	-59.834	-108.214	
283.00	-59.828	-116.682	
284.00	-59.160	-124.127	
285.00	-60.227	-131.572	
286.00	-58.937	-143.065	
287.00	-59.204	-150.912	
288.00	-58.150	-168.859	
289.00	-57.092	178.495	
290.00	-57.458	175.305	
291.00	-56.595	163.880	
292.00	-56.204	146.632	
293.00	-56.258	128.121	
294.00	-55.482	105.622	
295.00	-56.152	93.603	
296.00	-54.576	86.420	
297.00	-54.435	67.606	
298.00	-54.234	61.401	
299.00	-54.522	45.218	
300.00	-54.490	42.294	
301.00	-56.380	26.156	
302.00	-56.390	25.035	
303.00	-57.830	21.585	
304.00	-62.998	10.731	
305.00	-78.430	0.538	
306.00	-74.661	73.804	
307.00	-71.437	162.501	
308.00	-62.444	138.083	
309.00	-63.204	124.715	
310.00	-61.578	95.653	
311.00	-60.687	118.688	
312.00	-60.988	115.513	
313.00	-61.583	110.954	
314.00	-61.508	110.661	
315.00	-61.248	77.796	
316.00	-61.284	63.389	
317.00	-62.321	56.300	
318.00	-60.947	41.786	
319.00	-60.978	15.409	
320.00	-60.275	21.769	
321.00	-58.986	22.291	
322.00	-58.568	6.635	
323.00	-58.927	-4.329	
324.00	-58.280	-15.249	
325.00	-57.959	-9.381	
326.00	-57.012	-11.614	
327.00	-57.798	-22.960	
328.00	-58.593	-15.247	
329.00	-58.191	-27.547	
330.00	-58.770	-38.664	
331.00	-58.303	-46.857	
332.00	-57.535	-70.809	
333.00	-57.188	-64.860	
334.00	-56.477	-80.846	
335.00	-57.396	-98.938	
336.00	-57.464	-117.115	
337.00	-57.149	-141.611	
338.00	-54.825	-138.553	
339.00	-58.478	-144.122	
340.00	-56.990	-150.590	
341.00	-56.719	178.314	
342.00	-58.049	168.428	
343.00	-58.467	166.555	
344.00	-61.667	146.516	
345.00	-61.093	151.398	
346.00	-62.950	139.408	
347.00	-68.500	116.216	
348.00	-62.511	31.504	
349.00	-59.806	35.130	
350.00	-58.928	11.531	
351.00	-55.108	0.770	
352.00	-55.129	-2.558	
353.00	-53.658	-4.989	
354.00	-52.939	-3.526	
355.00	-52.549	-4.799	
356.00	-52.223	-13.979	
357.00	-52.670	-15.214	
358.00	-53.387	-20.851	
359.00	-56.096	-23.012	
Frequency	1800.00	MHz	
Channel	test		
Scan Axis name	Azimuth  [deg]		
Scan Axis	Amplitude	Phase	
			
0.00	-59.734	-168.780	
1.00	-59.720	-166.319	
2.00	-59.006	-154.303	
3.00	-57.908	-150.276	
4.00	-56.058	-148.425	
5.00	-55.308	-148.580	
6.00	-54.716	-151.514	
7.00	-54.588	-155.626	
8.00	-55.070	-158.651	
9.00	-55.221	-163.308	
10.00	-56.068	-169.857	
11.00	-57.522	-178.377	
12.00	-58.718	174.771	
13.00	-59.983	166.781	
14.00	-62.268	164.744	
15.00	-64.342	152.790	
16.00	-64.638	162.132	
17.00	-65.975	170.967	
18.00	-68.767	-166.644	
19.00	-69.022	-141.426	
20.00	-66.184	-128.760	
21.00	-64.608	-109.838	
22.00	-60.980	-101.029	
23.00	-58.878	-87.097	
24.00	-60.340	-74.763	
25.00	-59.224	-67.408	
26.00	-57.918	-60.270	
27.00	-59.361	-53.564	
28.00	-61.624	-50.935	
29.00	-64.234	-35.433	
30.00	-70.071	1.454	
31.00	-72.726	99.503	
32.00	-63.487	105.977	
33.00	-61.001	115.672	
34.00	-59.452	128.673	
35.00	-58.771	135.482	
36.00	-58.794	140.336	
37.00	-59.805	150.398	
38.00	-61.583	148.328	
39.00	-64.281	165.803	
40.00	-71.648	154.185	
41.00	-90.501	-120.559	
42.00	-72.583	34.242	
43.00	-65.875	20.823	
44.00	-62.796	25.522	
45.00	-60.314	39.891	
46.00	-59.804	54.227	
47.00	-59.751	70.159	
48.00	-59.273	82.845	
49.00	-59.545	98.424	
50.00	-59.905	107.584	
51.00	-60.076	125.650	
52.00	-60.635	140.005	
53.00	-60.735	159.170	
54.00	-60.535	174.281	
55.00	-59.462	-169.828	
56.00	-59.759	-155.667	
57.00	-58.299	-150.722	
58.00	-59.399	-136.760	
59.00	-60.285	-113.701	
60.00	-59.982	-109.078	
61.00	-59.871	-101.325	
62.00	-59.556	-90.185	
63.00	-60.509	-79.884	
64.00	-61.560	-66.348	
65.00	-62.990	-59.952	
66.00	-65.689	-45.716	
67.00	-63.866	-36.703	
68.00	-65.219	-28.646	
69.00	-65.551	-23.522	
70.00	-65.901	-1.479	
71.00	-65.388	-0.410	
72.00	-65.168	3.494	
73.00	-65.287	7.244	
74.00	-66.169	4.670	
75.00	-66.434	6.399	
76.00	-65.662	6.730	
77.00	-67.217	14.499	
78.00	-68.377	6.784	
79.00	-69.716	35.815	
80.00	-73.630	70.308	
81.00	-75.201	81.661	
82.00	-74.160	128.295	
83.00	-69.993	153.398	
84.00	-67.069	177.853	
85.00	-63.328	-165.275	
86.00	-63.445	-160.300	
87.00	-61.321	-142.721	
88.00	-61.614	-139.162	
89.00	-60.013	-128.806	
90.00	-60.704	-125.923	
91.00	-60.796	-109.513	
92.00	-60.175	-97.127	
93.00	-61.018	-76.043	
94.00	-61.060	-54.273	
95.00	-60.490	-36.313	
96.00	-59.714	-32.843	
97.00	-58.757	-7.184	
98.00	-58.469	5.445	
99.00	-57.318	12.744	
100.00	-57.628	25.684	
101.00	-56.799	30.039	
102.00	-56.768	52.153	
103.00	-56.729	61.292	
104.00	-57.199	74.274	
105.00	-58.319	89.564	
106.00	-57.619	108.091	
107.00	-58.249	120.815	
108.00	-57.645	134.017	
109.00	-58.024	150.822	
110.00	-57.202	156.766	
111.00	-58.171	171.164	
112.00	-57.742	175.529	
113.00	-58.240	177.939	
114.00	-59.212	-176.523	
115.00	-59.137	-172.966	
116.00	-59.699	-161.509	
117.00	-60.187	-157.639	
118.00	-60.879	-136.991	
119.00	-59.650	-113.636	
120.00	-58.094	-100.995	
121.00	-55.546	-82.588	
122.00	-53.509	-67.657	
123.00	-51.942	-56.610	
124.00	-50.366	-43.380	
125.00	-48.760	-29.801	
126.00	-47.658	-17.221	
127.00	-46.517	-2.862	
128.00	-45.783	11.351	
129.00	-44.986	24.845	
130.00	-44.414	39.569	
131.00	-43.915	54.565	
132.00	-43.438	69.082	
133.00	-43.288	84.494	
134.00	-43.295	98.685	
135.00	-43.746	112.777	
136.00	-44.467	129.830	
137.00	-45.866	148.758	
138.00	-47.478	172.019	
139.00	-49.444	-152.021	
140.00	-49.081	-109.799	
141.00	-47.304	-69.283	
142.00	-43.866	-42.942	
143.00	-41.494	-22.724	
144.00	-39.494	-6.784	
145.00	-38.101	5.145	
146.00	-36.866	18.572	
147.00	-36.085	30.373	
148.00	-35.631	41.678	
149.00	-35.393	52.946	
150.00	-35.562	63.797	
151.00	-35.984	74.490	
152.00	-36.772	85.931	
153.00	-37.935	97.526	
154.00	-39.639	110.847	
155.00	-41.782	125.931	
156.00	-44.374	146.638	
157.00	-47.185	176.646	
158.00	-48.795	-149.644	
159.00	-48.686	-115.168	
160.00	-48.291	-94.728	
161.00	-48.481	-78.522	
162.00	-50.660	-72.034	
163.00	-54.604	-70.550	
164.00	-61.059	-129.810	
165.00	-53.220	-178.373	
166.00	-47.921	178.324	
167.00	-44.996	-178.713	
168.00	-43.512	-171.400	
169.00	-42.711	-161.454	
170.00	-42.857	-148.845	
171.00	-43.362	-129.532	
172.00	-43.796	-105.851	
173.00	-43.052	-74.918	
174.00	-40.813	-51.948	
175.00	-38.835	-36.242	
176.00	-37.195	-26.576	
177.00	-36.391	-19.858	
178.00	-36.286	-15.262	
179.00	-37.017	-14.812	
180.00	-38.885	-19.181	
181.00	-42.725	-35.830	
182.00	-44.609	-92.797	
183.00	-39.056	-134.806	
184.00	-34.174	-147.582	
185.00	-30.888	-152.264	
186.00	-28.530	-154.739	
187.00	-26.812	-156.141	
188.00	-25.610	-157.382	
189.00	-24.820	-158.447	
190.00	-24.390	-159.602	
191.00	-24.319	-160.615	
192.00	-24.660	-161.391	
193.00	-25.198	-162.724	
194.00	-26.154	-163.874	
195.00	-27.501	-164.957	
196.00	-29.207	-166.261	
197.00	-31.380	-167.023	
198.00	-34.256	-167.727	
199.00	-37.840	-167.519	
200.00	-42.628	-163.106	
201.00	-49.408	-148.123	
202.00	-55.283	-92.834	
203.00	-53.171	-44.749	
204.00	-51.401	-27.480	
205.00	-53.225	-20.923	
206.00	-54.661	-2.901	
207.00	-57.228	42.637	
208.00	-54.191	75.906	
209.00	-49.918	83.025	
210.00	-47.411	86.355	
211.00	-46.511	81.423	
212.00	-45.329	71.212	
213.00	-44.884	65.777	
214.00	-44.522	54.464	
215.00	-44.763	45.356	
216.00	-45.077	35.562	
217.00	-45.439	24.504	
218.00	-46.185	16.002	
219.00	-47.071	8.199	
220.00	-48.100	2.809	
221.00	-49.217	1.394	
222.00	-51.321	0.754	
223.00	-52.474	3.080	
224.00	-52.799	12.686	
225.00	-51.886	14.707	
226.00	-51.051	7.161	
227.00	-49.689	3.215	
228.00	-48.238	-5.740	
229.00	-47.169	-17.736	
230.00	-45.073	-29.124	
231.00	-44.128	-37.475	
232.00	-42.797	-46.013	
233.00	-41.788	-54.257	
234.00	-40.908	-63.586	
235.00	-40.271	-70.880	
236.00	-39.834	-78.239	
237.00	-39.366	-86.620	
238.00	-39.222	-94.566	
239.00	-38.969	-102.546	
240.00	-39.056	-111.704	
241.00	-39.185	-121.288	
242.00	-39.404	-131.535	
243.00	-39.588	-140.723	
244.00	-39.917	-151.460	
245.00	-40.231	-162.317	
246.00	-40.593	-173.077	
247.00	-40.954	174.561	
248.00	-41.221	164.374	
249.00	-41.658	151.071	
250.00	-42.270	138.992	
251.00	-42.523	127.582	
252.00	-43.276	115.450	
253.00	-43.762	102.286	
254.00	-44.365	89.332	
255.00	-44.883	76.225	
256.00	-45.458	63.082	
257.00	-45.916	48.918	
258.00	-46.321	35.475	
259.00	-46.854	21.499	
260.00	-47.326	8.647	
261.00	-48.142	-4.773	
262.00	-48.585	-21.921	
263.00	-48.849	-35.726	
264.00	-49.501	-50.134	
265.00	-49.666	-65.733	
266.00	-49.675	-80.540	
267.00	-49.720	-93.461	
268.00	-50.187	-107.938	
269.00	-50.248	-122.334	
270.00	-50.573	-136.171	
271.00	-51.165	-149.991	
272.00	-51.510	-166.654	
273.00	-52.685	177.257	
274.00	-52.704	158.721	
275.00	-52.531	140.182	
276.00	-52.418	125.075	
277.00	-52.387	108.445	
278.00	-52.357	97.119	
279.00	-52.486	87.255	
280.00	-53.530	76.672	
281.00	-54.380	72.874	
282.00	-56.765	65.043	
283.00	-60.334	62.021	
284.00	-66.635	77.662	
285.00	-68.501	138.453	
286.00	-64.618	165.341	
287.00	-60.448	165.970	
288.00	-58.036	165.439	
289.00	-57.667	150.503	
290.00	-55.933	143.410	
291.00	-58.056	114.406	
292.00	-56.751	113.361	
293.00	-57.881	100.475	
294.00	-59.054	77.657	
295.00	-60.166	55.305	
296.00	-62.340	39.751	
297.00	-68.293	7.402	
298.00	-67.827	-73.866	
299.00	-61.509	-116.696	
300.00	-58.638	-137.966	
301.00	-56.381	-143.512	
302.00	-55.086	-160.007	
303.00	-55.389	-168.044	
304.00	-55.187	-179.788	
305.00	-56.252	170.354	
306.00	-58.561	158.435	
307.00	-60.891	134.320	
308.00	-63.854	102.167	
309.00	-65.884	50.834	
310.00	-63.789	21.006	
311.00	-61.833	-1.552	
312.00	-61.140	-17.923	
313.00	-61.477	-30.785	
314.00	-61.314	-44.289	
315.00	-62.099	-61.433	
316.00	-63.229	-79.309	
317.00	-62.796	-101.523	
318.00	-61.914	-116.641	
319.00	-61.695	-125.675	
320.00	-61.167	-138.355	
321.00	-60.212	-144.622	
322.00	-60.609	-163.704	
323.00	-61.268	-178.506	
324.00	-61.550	163.348	
325.00	-62.657	135.023	
326.00	-62.742	112.843	
327.00	-62.861	82.645	
328.00	-62.697	57.583	
329.00	-62.556	33.881	
330.00	-62.041	7.103	
331.00	-61.262	-9.386	
332.00	-61.048	-26.219	
333.00	-60.573	-39.749	
334.00	-60.496	-51.601	
335.00	-59.834	-61.448	
336.00	-59.386	-65.512	
337.00	-58.382	-71.203	
338.00	-57.813	-74.996	
339.00	-57.314	-81.273	
340.00	-57.613	-86.708	
341.00	-58.304	-90.042	
342.00	-59.907	-99.570	
343.00	-63.265	-104.174	
344.00	-69.592	-110.188	
345.00	-83.012	9.444	
346.00	-67.559	59.040	
347.00	-63.680	36.563	
348.00	-60.971	31.025	
349.00	-59.174	16.783	
350.00	-59.574	5.978	
351.00	-60.830	-5.570	
352.00	-64.045	-14.499	
353.00	-68.694	-52.149	
354.00	-68.637	-90.023	
355.00	-69.036	-118.879	
356.00	-64.474	-157.904	
357.00	-63.407	-170.092	
358.00	-61.367	178.669	
359.00	-60.165	-173.390	
Frequency	1850.00	MHz	
Channel	test		
Scan Axis name	Azimuth  [deg]		
Scan Axis	Amplitude	Phase	
			
0.00	-61.917	-77.435	
1.00	-58.533	-65.520	
2.00	-59.490	-81.961	
3.00	-59.844	-89.782	
4.00	-60.138	-96.321	
5.00	-61.665	-78.624	
6.00	-64.084	-99.764	
7.00	-73.497	-82.988	
8.00	-75.421	71.767	
9.00	-68.118	54.843	
10.00	-65.623	63.396	
11.00	-63.448	48.115	
12.00	-62.355	44.563	
13.00	-65.274	52.404	
14.00	-70.125	40.479	
15.00	-70.096	125.447	
16.00	-69.499	174.174	
17.00	-63.630	-176.663	
18.00	-60.911	-169.642	
19.00	-58.994	-172.889	
20.00	-57.496	-162.174	
21.00	-58.910	-165.808	
22.00	-59.964	-173.692	
23.00	-62.159	-174.804	
24.00	-61.846	178.357	
25.00	-61.957	163.802	
26.00	-61.759	154.275	
27.00	-60.441	150.075	
28.00	-61.400	139.513	
29.00	-62.711	131.413	
30.00	-63.921	122.621	
31.00	-66.904	95.639	
32.00	-68.600	68.554	
33.00	-69.735	35.736	
34.00	-64.261	3.740	
35.00	-61.656	-13.403	
36.00	-60.136	-23.010	
37.00	-60.377	-22.139	
38.00	-57.653	-25.631	
39.00	-57.712	-24.183	
40.00	-58.833	-17.125	
41.00	-59.423	-21.791	
42.00	-63.924	-13.244	
43.00	-69.370	-19.828	
44.00	-83.455	-52.704	
45.00	-72.848	-153.490	
46.00	-64.319	-167.242	
47.00	-64.105	-163.890	
48.00	-63.411	-160.777	
49.00	-62.260	-158.900	
50.00	-63.914	-158.089	
51.00	-65.090	-152.671	
52.00	-65.465	-154.264	
53.00	-67.172	-144.883	
54.00	-68.765	-115.444	
55.00	-68.993	-103.345	
56.00	-73.098	-62.992	
57.00	-66.043	-50.151	
58.00	-63.980	-38.051	
59.00	-63.473	-23.036	
60.00	-63.812	-10.499	
61.00	-64.136	7.454	
62.00	-66.202	11.376	
63.00	-68.772	32.721	
64.00	-75.140	91.894	
65.00	-69.567	160.204	
66.00	-63.563	-174.407	
67.00	-61.921	-164.217	
68.00	-60.003	-147.880	
69.00	-59.590	-139.513	
70.00	-58.870	-124.311	
71.00	-59.616	-118.409	
72.00	-61.224	-103.154	
73.00	-62.814	-83.622	
74.00	-64.299	-61.635	
75.00	-65.396	-36.278	
76.00	-65.287	-5.794	
77.00	-64.356	15.577	
78.00	-64.263	32.036	
79.00	-64.380	43.600	
80.00	-64.679	66.833	
81.00	-66.048	77.155	
82.00	-68.682	92.715	
83.00	-67.776	122.983	
84.00	-69.899	141.325	
85.00	-75.669	156.768	
86.00	-76.165	-139.691	
87.00	-72.344	-91.556	
88.00	-69.464	-67.898	
89.00	-70.268	-43.165	
90.00	-65.089	-20.613	
91.00	-64.195	-6.577	
92.00	-63.236	4.998	
93.00	-61.882	13.357	
94.00	-63.462	32.198	
95.00	-60.713	67.244	
96.00	-65.218	84.061	
97.00	-66.157	111.298	
98.00	-66.796	128.122	
99.00	-61.792	175.710	
100.00	-58.735	-164.507	
101.00	-55.398	-141.473	
102.00	-54.161	-126.788	
103.00	-52.743	-117.344	
104.00	-51.710	-107.765	
105.00	-51.082	-97.137	
106.00	-50.590	-87.373	
107.00	-50.014	-72.921	
108.00	-50.543	-67.086	
109.00	-50.782	-53.063	
110.00	-51.352	-42.910	
111.00	-51.903	-29.279	
112.00	-52.844	-15.286	
113.00	-53.736	0.299	
114.00	-54.965	15.998	
115.00	-56.524	36.364	
116.00	-58.822	51.852	
117.00	-59.827	76.903	
118.00	-62.115	101.527	
119.00	-64.897	135.639	
120.00	-68.660	-171.556	
121.00	-69.173	-96.084	
122.00	-61.445	-50.458	
123.00	-57.568	-20.429	
124.00	-53.637	2.276	
125.00	-50.595	17.449	
126.00	-47.994	30.499	
127.00	-45.801	43.629	
128.00	-44.002	56.944	
129.00	-42.528	69.828	
130.00	-41.364	82.047	
131.00	-40.363	94.897	
132.00	-39.544	107.449	
133.00	-38.957	120.280	
134.00	-38.509	132.629	
135.00	-38.267	144.661	
136.00	-38.183	156.366	
137.00	-38.160	168.693	
138.00	-38.482	179.803	
139.00	-39.235	-169.860	
140.00	-40.326	-158.871	
141.00	-42.145	-149.388	
142.00	-45.223	-138.584	
143.00	-50.537	-126.407	
144.00	-67.291	-52.450	
145.00	-51.842	53.692	
146.00	-45.651	68.628	
147.00	-42.435	75.873	
148.00	-40.594	84.198	
149.00	-39.145	95.068	
150.00	-38.705	99.085	
151.00	-38.557	105.766	
152.00	-38.797	111.839	
153.00	-39.501	117.426	
154.00	-40.725	121.930	
155.00	-42.416	125.724	
156.00	-44.879	127.097	
157.00	-48.544	125.148	
158.00	-53.855	113.169	
159.00	-59.035	58.446	
160.00	-54.046	15.221	
161.00	-50.708	-2.039	
162.00	-48.687	-6.857	
163.00	-47.723	-10.694	
164.00	-47.247	-16.073	
165.00	-46.954	-23.066	
166.00	-46.974	-31.186	
167.00	-46.929	-37.949	
168.00	-46.811	-43.650	
169.00	-47.181	-45.905	
170.00	-47.523	-40.146	
171.00	-48.955	-25.755	
172.00	-49.292	2.226	
173.00	-47.623	30.365	
174.00	-43.805	48.676	
175.00	-41.089	57.473	
176.00	-38.985	61.603	
177.00	-37.610	62.290	
178.00	-36.753	60.513	
179.00	-36.421	55.286	
180.00	-36.503	45.948	
181.00	-36.587	30.689	
182.00	-36.015	10.183	
183.00	-34.485	-10.643	
184.00	-32.310	-27.065	
185.00	-30.171	-38.273	
186.00	-28.305	-46.257	
187.00	-26.765	-52.033	
188.00	-25.642	-56.738	
189.00	-24.819	-60.644	
190.00	-24.314	-64.066	
191.00	-24.122	-67.152	
192.00	-24.245	-70.034	
193.00	-24.633	-73.136	
194.00	-25.360	-75.789	
195.00	-26.416	-78.547	
196.00	-27.835	-81.190	
197.00	-29.715	-83.734	
198.00	-32.100	-86.009	
199.00	-35.237	-86.062	
200.00	-39.549	-89.543	
201.00	-46.091	-85.213	
202.00	-62.309	-41.271	
203.00	-51.384	72.568	
204.00	-46.449	77.804	
205.00	-44.601	80.645	
206.00	-43.543	86.489	
207.00	-42.952	92.130	
208.00	-41.756	98.580	
209.00	-41.600	99.523	
210.00	-40.338	99.635	
211.00	-40.231	96.134	
212.00	-39.581	89.084	
213.00	-39.073	79.240	
214.00	-38.591	67.542	
215.00	-38.056	54.205	
216.00	-37.587	40.603	
217.00	-37.046	26.930	
218.00	-36.593	13.639	
219.00	-36.250	0.880	
220.00	-36.046	-11.267	
221.00	-36.035	-22.979	
222.00	-36.202	-34.149	
223.00	-36.837	-43.819	
224.00	-37.307	-54.264	
225.00	-38.311	-62.956	
226.00	-39.796	-70.279	
227.00	-41.719	-75.528	
228.00	-44.408	-75.851	
229.00	-48.280	-67.178	
230.00	-51.015	-33.677	
231.00	-48.553	-1.295	
232.00	-45.006	7.955	
233.00	-42.520	5.555	
234.00	-40.738	-0.262	
235.00	-39.548	-7.961	
236.00	-38.680	-17.054	
237.00	-38.036	-27.450	
238.00	-37.592	-38.214	
239.00	-37.269	-49.530	
240.00	-37.068	-60.850	
241.00	-36.985	-72.381	
242.00	-36.943	-83.831	
243.00	-36.998	-95.158	
244.00	-37.096	-106.457	
245.00	-37.370	-117.782	
246.00	-37.717	-128.991	
247.00	-38.112	-140.377	
248.00	-38.464	-152.583	
249.00	-39.106	-163.787	
250.00	-39.588	-175.519	
251.00	-40.271	171.516	
252.00	-40.926	159.803	
253.00	-41.726	146.959	
254.00	-42.320	134.445	
255.00	-42.899	121.700	
256.00	-43.561	109.019	
257.00	-44.244	96.359	
258.00	-44.784	83.293	
259.00	-45.448	70.928	
260.00	-45.904	57.280	
261.00	-46.402	44.614	
262.00	-46.811	31.101	
263.00	-47.246	18.212	
264.00	-47.750	6.321	
265.00	-48.325	-6.436	
266.00	-48.838	-19.330	
267.00	-49.516	-32.848	
268.00	-50.199	-47.060	
269.00	-50.740	-62.648	
270.00	-51.378	-79.179	
271.00	-51.767	-96.457	
272.00	-52.152	-112.998	
273.00	-52.207	-130.654	
274.00	-52.413	-144.846	
275.00	-52.591	-160.055	
276.00	-52.928	-172.954	
277.00	-53.681	173.113	
278.00	-54.598	158.697	
279.00	-55.667	143.783	
280.00	-57.187	127.712	
281.00	-58.858	106.798	
282.00	-61.267	83.673	
283.00	-62.451	53.714	
284.00	-62.851	21.905	
285.00	-62.724	-10.683	
286.00	-58.257	-6.249	
287.00	-60.571	-69.993	
288.00	-59.680	-78.814	
289.00	-59.761	-93.228	
290.00	-60.195	-101.248	
291.00	-62.235	-111.372	
292.00	-62.295	-114.480	
293.00	-65.371	-107.083	
294.00	-65.964	-106.949	
295.00	-65.692	-88.708	
296.00	-64.683	-74.885	
297.00	-62.074	-74.262	
298.00	-61.600	-82.253	
299.00	-61.464	-103.168	
300.00	-61.056	-114.165	
301.00	-61.331	-133.074	
302.00	-61.000	-158.320	
303.00	-60.913	-179.454	
304.00	-60.082	155.339	
305.00	-59.464	138.917	
306.00	-58.255	102.832	
307.00	-56.097	94.275	
308.00	-60.186	70.416	
309.00	-60.188	47.525	
310.00	-59.474	17.002	
311.00	-58.376	-1.612	
312.00	-57.114	-18.692	
313.00	-56.230	-30.360	
314.00	-56.005	-40.222	
315.00	-57.054	-35.938	
316.00	-55.704	-56.053	
317.00	-55.762	-59.413	
318.00	-56.366	-73.890	
319.00	-57.010	-68.862	
320.00	-57.109	-75.973	
321.00	-58.326	-81.329	
322.00	-59.508	-90.649	
323.00	-61.722	-98.341	
324.00	-64.613	-101.709	
325.00	-73.553	-96.276	
326.00	-72.270	25.422	
327.00	-68.383	-3.490	
328.00	-65.402	-0.846	
329.00	-63.090	-10.162	
330.00	-62.655	-18.033	
331.00	-64.305	-26.554	
332.00	-67.250	-39.796	
333.00	-72.732	-65.086	
334.00	-75.124	-59.482	
335.00	-72.705	127.968	
336.00	-68.055	114.507	
337.00	-65.821	111.821	
338.00	-65.326	100.154	
339.00	-66.949	94.939	
340.00	-69.650	104.216	
341.00	-70.617	122.242	
342.00	-73.588	167.056	
343.00	-69.133	177.101	
344.00	-71.266	-173.684	
345.00	-71.669	-110.634	
346.00	-66.414	-77.977	
347.00	-64.225	-75.429	
348.00	-62.117	-67.648	
349.00	-61.098	-77.456	
350.00	-61.465	-74.473	
351.00	-62.538	-81.188	
352.00	-63.974	-80.560	
353.00	-68.271	-81.517	
354.00	-68.954	-84.063	
355.00	-77.690	-56.330	
356.00	-75.134	-35.491	
357.00	-73.472	-36.086	
358.00	-69.637	-62.036	
359.00	-65.296	-44.167	
Frequency	1950.00	MHz	
Channel	test		
Scan Axis name	Azimuth  [deg]		
Scan Axis	Amplitude	Phase	
			
0.00	-62.854	123.643	
1.00	-64.780	147.816	
2.00	-66.317	179.809	
3.00	-66.983	-157.066	
4.00	-67.646	-179.671	
5.00	-67.930	-161.934	
6.00	-69.951	-177.486	
7.00	-72.271	147.101	
8.00	-70.776	132.045	
9.00	-67.260	131.472	
10.00	-66.841	119.205	
11.00	-65.490	95.267	
12.00	-67.959	117.023	
13.00	-69.403	134.943	
14.00	-78.305	110.320	
15.00	-76.904	-51.823	
16.00	-67.366	-75.928	
17.00	-61.820	-68.234	
18.00	-61.949	-58.706	
19.00	-59.548	-51.220	
20.00	-58.258	-33.082	
21.00	-58.338	-25.118	
22.00	-58.910	-22.576	
23.00	-58.689	-13.006	
24.00	-60.632	1.998	
25.00	-63.682	17.053	
26.00	-66.723	29.426	
27.00	-66.790	21.438	
28.00	-73.188	14.964	
29.00	-79.857	21.546	
30.00	-91.202	128.623	
31.00	-75.672	20.801	
32.00	-69.817	94.053	
33.00	-65.759	120.280	
34.00	-62.596	121.902	
35.00	-59.913	130.208	
36.00	-58.158	139.421	
37.00	-56.181	147.355	
38.00	-55.536	153.225	
39.00	-54.456	158.672	
40.00	-54.310	169.883	
41.00	-54.254	-179.704	
42.00	-54.974	-171.006	
43.00	-56.068	-151.127	
44.00	-58.328	-136.855	
45.00	-58.774	-109.946	
46.00	-59.171	-80.187	
47.00	-58.694	-54.889	
48.00	-59.405	-35.652	
49.00	-60.284	-11.741	
50.00	-61.112	12.834	
51.00	-61.394	35.835	
52.00	-62.696	71.549	
53.00	-62.838	88.811	
54.00	-62.729	111.238	
55.00	-62.837	127.684	
56.00	-65.840	139.845	
57.00	-68.263	134.756	
58.00	-70.117	131.135	
59.00	-74.829	151.529	
60.00	-71.446	83.073	
61.00	-75.004	40.474	
62.00	-75.744	102.795	
63.00	-76.318	130.649	
64.00	-78.769	113.518	
65.00	-75.191	160.609	
66.00	-71.692	-135.438	
67.00	-67.694	-139.904	
68.00	-66.474	-131.161	
69.00	-65.638	-122.571	
70.00	-64.848	-118.530	
71.00	-67.524	-114.135	
72.00	-68.040	-108.014	
73.00	-68.473	-116.839	
74.00	-68.777	-120.671	
75.00	-68.072	-125.402	
76.00	-69.676	-122.270	
77.00	-66.565	-115.957	
78.00	-66.620	-106.819	
79.00	-65.200	-108.893	
80.00	-63.833	-84.555	
81.00	-62.623	-74.744	
82.00	-60.263	-53.290	
83.00	-59.988	-48.334	
84.00	-59.257	-35.839	
85.00	-59.940	-24.871	
86.00	-58.713	-10.738	
87.00	-58.250	0.165	
88.00	-58.407	20.612	
89.00	-58.827	41.329	
90.00	-59.138	54.807	
91.00	-57.888	63.476	
92.00	-58.773	90.214	
93.00	-58.020	104.668	
94.00	-57.283	122.283	
95.00	-56.970	141.531	
96.00	-56.442	152.449	
97.00	-56.747	161.881	
98.00	-55.629	-177.679	
99.00	-55.169	-168.099	
100.00	-55.252	-154.604	
101.00	-55.649	-131.231	
102.00	-56.344	-116.246	
103.00	-56.628	-108.586	
104.00	-57.089	-84.275	
105.00	-57.473	-64.642	
106.00	-56.739	-46.287	
107.00	-55.175	-19.690	
108.00	-54.080	-4.299	
109.00	-52.738	8.222	
110.00	-51.408	18.824	
111.00	-50.538	34.944	
112.00	-49.751	44.795	
113.00	-48.943	59.623	
114.00	-48.553	73.400	
115.00	-48.210	86.257	
116.00	-47.249	104.096	
117.00	-46.838	118.955	
118.00	-46.665	135.732	
119.00	-46.004	149.220	
120.00	-45.864	165.573	
121.00	-45.777	177.965	
122.00	-46.092	-168.499	
123.00	-46.865	-155.188	
124.00	-48.293	-143.037	
125.00	-50.628	-129.248	
126.00	-54.833	-114.371	
127.00	-69.758	-59.116	
128.00	-56.738	71.618	
129.00	-49.861	85.417	
130.00	-45.880	99.541	
131.00	-43.226	112.070	
132.00	-41.414	123.489	
133.00	-39.941	136.000	
134.00	-39.005	148.427	
135.00	-38.297	161.162	
136.00	-37.812	173.962	
137.00	-37.477	-173.533	
138.00	-37.421	-161.365	
139.00	-37.572	-148.853	
140.00	-38.087	-137.065	
141.00	-38.904	-125.043	
142.00	-40.002	-112.371	
143.00	-41.843	-98.100	
144.00	-44.268	-81.823	
145.00	-46.957	-57.696	
146.00	-50.506	-21.628	
147.00	-50.172	33.224	
148.00	-47.746	70.468	
149.00	-45.315	92.011	
150.00	-43.306	108.459	
151.00	-41.876	122.796	
152.00	-40.871	134.411	
153.00	-40.147	146.194	
154.00	-39.549	155.648	
155.00	-39.481	165.930	
156.00	-39.642	173.990	
157.00	-39.911	-177.966	
158.00	-40.527	-171.240	
159.00	-41.609	-165.489	
160.00	-42.891	-159.793	
161.00	-44.976	-156.370	
162.00	-47.563	-157.631	
163.00	-50.978	-168.928	
164.00	-54.511	155.879	
165.00	-52.787	106.646	
166.00	-48.836	90.246	
167.00	-45.818	83.806	
168.00	-44.288	81.338	
169.00	-43.030	78.897	
170.00	-42.224	76.557	
171.00	-41.967	75.237	
172.00	-42.238	73.066	
173.00	-42.711	72.227	
174.00	-43.827	70.192	
175.00	-45.177	70.790	
176.00	-47.567	75.221	
177.00	-50.504	81.657	
178.00	-51.021	101.118	
179.00	-50.826	124.831	
180.00	-47.327	129.258	
181.00	-44.238	127.122	
182.00	-41.471	119.248	
183.00	-38.688	111.862	
184.00	-36.365	105.010	
185.00	-34.270	99.001	
186.00	-32.624	94.370	
187.00	-31.239	89.944	
188.00	-30.317	86.248	
189.00	-29.646	82.925	
190.00	-29.390	79.533	
191.00	-29.497	76.530	
192.00	-29.946	73.938	
193.00	-30.844	72.000	
194.00	-32.100	71.263	
195.00	-33.939	71.894	
196.00	-36.439	75.316	
197.00	-39.550	86.272	
198.00	-42.363	108.461	
199.00	-42.910	140.105	
200.00	-41.824	162.021	
201.00	-40.053	171.047	
202.00	-39.474	174.845	
203.00	-39.417	177.342	
204.00	-40.051	178.497	
205.00	-40.907	-179.466	
206.00	-42.215	-173.751	
207.00	-43.559	-169.781	
208.00	-44.670	-165.950	
209.00	-45.249	-165.264	
210.00	-45.750	-169.470	
211.00	-45.517	178.701	
212.00	-45.674	155.909	
213.00	-44.737	136.332	
214.00	-43.226	116.305	
215.00	-41.703	98.259	
216.00	-40.462	83.129	
217.00	-39.468	69.266	
218.00	-39.007	56.645	
219.00	-38.921	43.502	
220.00	-39.298	30.787	
221.00	-40.151	17.252	
222.00	-41.597	1.359	
223.00	-43.833	-14.801	
224.00	-47.236	-39.180	
225.00	-51.648	-82.268	
226.00	-51.133	-153.482	
227.00	-46.550	165.384	
228.00	-43.043	143.830	
229.00	-40.638	125.703	
230.00	-39.044	110.486	
231.00	-37.898	96.634	
232.00	-37.114	83.196	
233.00	-36.864	69.999	
234.00	-36.691	56.621	
235.00	-37.005	43.672	
236.00	-37.615	29.799	
237.00	-38.467	15.305	
238.00	-39.547	0.016	
239.00	-40.962	-17.914	
240.00	-42.559	-37.457	
241.00	-43.715	-60.867	
242.00	-44.952	-84.852	
243.00	-45.435	-108.509	
244.00	-45.688	-132.694	
245.00	-46.109	-155.981	
246.00	-46.846	-173.877	
247.00	-47.211	167.085	
248.00	-48.138	148.513	
249.00	-49.368	128.144	
250.00	-51.241	111.768	
251.00	-52.030	90.382	
252.00	-54.425	66.940	
253.00	-55.851	33.449	
254.00	-57.188	0.820	
255.00	-56.832	-36.799	
256.00	-55.339	-58.755	
257.00	-53.442	-81.381	
258.00	-53.336	-103.998	
259.00	-52.667	-118.642	
260.00	-52.672	-135.889	
261.00	-52.694	-150.552	
262.00	-53.078	-169.051	
263.00	-53.436	175.089	
264.00	-53.897	153.952	
265.00	-54.303	141.877	
266.00	-54.301	123.677	
267.00	-54.757	109.902	
268.00	-55.287	93.289	
269.00	-56.240	77.528	
270.00	-58.050	65.256	
271.00	-59.116	47.585	
272.00	-60.478	22.798	
273.00	-61.211	1.524	
274.00	-61.878	-29.331	
275.00	-61.222	-43.867	
276.00	-61.992	-63.738	
277.00	-61.394	-75.955	
278.00	-62.309	-83.352	
279.00	-63.742	-93.270	
280.00	-63.628	-106.982	
281.00	-64.020	-140.517	
282.00	-65.749	-136.779	
283.00	-64.757	-163.509	
284.00	-64.975	-175.442	
285.00	-62.625	171.356	
286.00	-62.326	166.263	
287.00	-59.514	147.837	
288.00	-58.644	140.049	
289.00	-58.352	137.092	
290.00	-60.039	135.640	
291.00	-60.620	123.241	
292.00	-61.118	106.514	
293.00	-59.731	78.128	
294.00	-61.251	75.937	
295.00	-61.828	52.154	
296.00	-63.107	50.364	
297.00	-64.402	22.781	
298.00	-65.111	-11.057	
299.00	-66.960	-45.683	
300.00	-67.572	-104.148	
301.00	-65.767	-101.433	
302.00	-63.288	-139.626	
303.00	-63.108	-160.104	
304.00	-62.932	-172.377	
305.00	-61.628	179.036	
306.00	-62.441	168.645	
307.00	-62.523	151.568	
308.00	-63.454	146.264	
309.00	-64.725	145.345	
310.00	-66.597	146.430	
311.00	-66.405	132.758	
312.00	-67.152	135.985	
313.00	-66.821	151.706	
314.00	-65.381	133.140	
315.00	-64.657	123.264	
316.00	-63.513	109.777	
317.00	-65.884	90.713	
318.00	-63.567	90.149	
319.00	-66.151	69.452	
320.00	-67.610	61.241	
321.00	-68.465	73.487	
322.00	-71.601	54.855	
323.00	-72.844	54.970	
324.00	-72.080	67.193	
325.00	-77.976	38.918	
326.00	-83.704	38.892	
327.00	-85.057	-79.822	
328.00	-78.879	-97.052	
329.00	-73.830	-124.566	
330.00	-69.761	-144.791	
331.00	-67.013	-150.674	
332.00	-65.215	-156.720	
333.00	-64.940	-177.448	
334.00	-63.677	-179.531	
335.00	-65.963	172.720	
336.00	-69.520	-175.191	
337.00	-67.903	-165.772	
338.00	-75.017	-162.327	
339.00	-71.127	-139.713	
340.00	-67.328	-122.450	
341.00	-67.847	-135.884	
342.00	-69.921	-153.540	
343.00	-64.523	-161.674	
344.00	-62.060	-172.136	
345.00	-63.023	169.450	
346.00	-62.100	160.494	
347.00	-60.928	155.630	
348.00	-61.639	140.828	
349.00	-60.757	133.593	
350.00	-59.696	118.753	
351.00	-59.084	115.654	
352.00	-58.250	114.621	
353.00	-57.753	112.661	
354.00	-56.897	105.980	
355.00	-56.245	109.238	
356.00	-56.737	114.538	
357.00	-57.701	106.192	
358.00	-58.959	116.554	
359.00	-61.743	119.527	
Frequency	2050.00	MHz	
Channel	test		
Scan Axis name	Azimuth  [deg]		
Scan Axis	Amplitude	Phase	
			
0.00	-68.298	92.429	
1.00	-65.140	104.249	
2.00	-63.961	114.895	
3.00	-65.559	117.496	
4.00	-61.962	105.159	
5.00	-61.284	90.633	
6.00	-61.895	89.027	
7.00	-60.454	76.856	
8.00	-59.996	73.047	
9.00	-60.024	72.565	
10.00	-59.624	81.531	
11.00	-59.899	81.851	
12.00	-61.248	95.283	
13.00	-62.192	105.479	
14.00	-63.639	129.609	
15.00	-65.062	150.793	
16.00	-66.572	-172.816	
17.00	-66.912	-154.459	
18.00	-65.105	-125.937	
19.00	-66.587	-106.872	
20.00	-65.920	-92.516	
21.00	-67.488	-74.528	
22.00	-67.520	-72.598	
23.00	-67.754	-39.730	
24.00	-64.241	3.890	
25.00	-82.023	85.415	
26.00	-76.856	156.847	
27.00	-68.471	168.886	
28.00	-65.814	-177.862	
29.00	-64.772	-170.440	
30.00	-64.677	-152.320	
31.00	-64.076	-146.281	
32.00	-66.468	-131.517	
33.00	-68.845	-135.149	
34.00	-72.565	-123.705	
35.00	-83.242	-143.692	
36.00	-76.784	128.172	
37.00	-71.173	142.913	
38.00	-67.119	143.629	
39.00	-65.988	164.310	
40.00	-64.808	166.377	
41.00	-63.890	169.082	
42.00	-63.278	178.550	
43.00	-62.845	176.885	
44.00	-63.235	-175.679	
45.00	-63.516	-174.185	
46.00	-64.566	-166.964	
47.00	-66.265	-162.183	
48.00	-68.097	-139.732	
49.00	-71.754	-115.206	
50.00	-74.515	-69.274	
51.00	-74.631	-26.573	
52.00	-77.672	0.359	
53.00	-76.128	61.356	
54.00	-75.454	142.303	
55.00	-70.030	166.539	
56.00	-67.281	178.231	
57.00	-66.316	-168.165	
58.00	-66.133	-153.469	
59.00	-66.315	-144.010	
60.00	-68.636	-133.456	
61.00	-72.066	-106.946	
62.00	-77.704	-43.577	
63.00	-74.333	-3.813	
64.00	-70.670	22.892	
65.00	-68.686	34.413	
66.00	-71.145	45.050	
67.00	-71.330	37.222	
68.00	-73.679	-12.711	
69.00	-72.719	-34.240	
70.00	-70.536	-45.755	
71.00	-67.358	-59.055	
72.00	-66.757	-55.711	
73.00	-68.210	-53.165	
74.00	-68.923	-54.097	
75.00	-73.940	-56.707	
76.00	-82.466	-74.095	
77.00	-73.954	-173.872	
78.00	-69.161	179.907	
79.00	-66.092	-171.446	
80.00	-63.411	-172.921	
81.00	-62.405	-167.112	
82.00	-61.949	-162.438	
83.00	-62.819	-154.971	
84.00	-62.723	-147.861	
85.00	-64.313	-147.903	
86.00	-65.489	-134.207	
87.00	-68.107	-125.484	
88.00	-70.899	-112.958	
89.00	-73.319	-77.696	
90.00	-73.785	15.756	
91.00	-77.901	-14.940	
92.00	-77.077	8.153	
93.00	-79.563	61.410	
94.00	-80.912	22.847	
95.00	-80.285	28.226	
96.00	-77.020	-78.014	
97.00	-69.616	-49.654	
98.00	-68.626	-61.278	
99.00	-75.430	32.652	
100.00	-65.889	-39.404	
101.00	-63.480	-48.699	
102.00	-66.817	-27.593	
103.00	-65.745	-5.009	
104.00	-68.611	7.365	
105.00	-66.194	34.216	
106.00	-65.824	62.399	
107.00	-65.739	73.635	
108.00	-63.642	101.594	
109.00	-61.539	119.047	
110.00	-59.272	135.067	
111.00	-58.083	148.868	
112.00	-56.633	162.713	
113.00	-55.419	176.866	
114.00	-54.602	-179.299	
115.00	-53.468	-160.953	
116.00	-52.860	-149.549	
117.00	-52.120	-133.908	
118.00	-51.539	-120.747	
119.00	-51.162	-107.014	
120.00	-50.521	-89.119	
121.00	-50.333	-74.067	
122.00	-49.696	-60.032	
123.00	-49.292	-47.374	
124.00	-49.532	-32.970	
125.00	-49.745	-23.632	
126.00	-50.305	-13.511	
127.00	-51.589	-5.710	
128.00	-53.961	-2.588	
129.00	-57.323	-13.428	
130.00	-59.823	-55.833	
131.00	-55.122	-92.888	
132.00	-50.420	-99.626	
133.00	-47.124	-96.033	
134.00	-44.733	-91.654	
135.00	-42.982	-85.486	
136.00	-41.698	-78.326	
137.00	-40.804	-71.075	
138.00	-40.237	-63.075	
139.00	-39.933	-56.524	
140.00	-39.870	-49.122	
141.00	-40.146	-42.225	
142.00	-40.723	-35.409	
143.00	-41.650	-30.421	
144.00	-43.220	-25.701	
145.00	-45.606	-23.938	
146.00	-49.417	-28.211	
147.00	-54.683	-61.866	
148.00	-52.248	-122.758	
149.00	-46.704	-139.305	
150.00	-43.054	-140.876	
151.00	-40.674	-138.476	
152.00	-38.973	-133.726	
153.00	-37.961	-128.833	
154.00	-37.260	-123.629	
155.00	-36.989	-117.462	
156.00	-37.136	-110.184	
157.00	-37.588	-102.797	
158.00	-38.349	-93.617	
159.00	-39.431	-83.471	
160.00	-40.501	-71.548	
161.00	-41.335	-59.109	
162.00	-42.301	-45.380	
163.00	-43.198	-36.614	
164.00	-44.469	-32.946	
165.00	-45.715	-37.161	
166.00	-46.665	-52.569	
167.00	-46.136	-74.111	
168.00	-44.066	-93.349	
169.00	-41.796	-103.915	
170.00	-40.157	-109.426	
171.00	-39.210	-112.362	
172.00	-38.928	-115.733	
173.00	-39.847	-120.212	
174.00	-41.584	-128.002	
175.00	-44.789	-142.502	
176.00	-48.239	174.248	
177.00	-45.898	123.110	
178.00	-42.510	100.865	
179.00	-40.370	88.355	
180.00	-39.699	77.481	
181.00	-40.720	64.874	
182.00	-43.164	37.647	
183.00	-43.242	-16.675	
184.00	-38.246	-56.364	
185.00	-33.642	-72.626	
186.00	-30.343	-81.535	
187.00	-27.907	-87.906	
188.00	-26.167	-92.811	
189.00	-24.943	-97.353	
190.00	-24.184	-101.466	
191.00	-23.834	-105.379	
192.00	-23.871	-109.226	
193.00	-24.266	-112.761	
194.00	-25.029	-116.180	
195.00	-26.170	-119.520	
196.00	-27.757	-122.085	
197.00	-29.788	-123.778	
198.00	-32.274	-123.862	
199.00	-35.279	-120.789	
200.00	-38.643	-111.617	
201.00	-41.268	-93.755	
202.00	-42.290	-74.826	
203.00	-42.208	-64.527	
204.00	-42.266	-63.678	
205.00	-42.761	-68.686	
206.00	-43.728	-79.560	
207.00	-44.591	-94.333	
208.00	-45.132	-111.374	
209.00	-45.062	-128.607	
210.00	-44.546	-142.035	
211.00	-43.828	-151.950	
212.00	-42.864	-158.223	
213.00	-41.844	-162.818	
214.00	-40.764	-167.463	
215.00	-39.785	-172.349	
216.00	-38.893	-177.999	
217.00	-38.205	175.445	
218.00	-37.756	168.150	
219.00	-37.597	160.067	
220.00	-37.775	151.677	
221.00	-38.265	142.592	
222.00	-39.217	133.494	
223.00	-40.655	124.614	
224.00	-42.732	116.473	
225.00	-45.841	109.514	
226.00	-51.019	109.931	
227.00	-58.396	159.712	
228.00	-52.390	-145.944	
229.00	-47.424	-143.244	
230.00	-44.766	-149.333	
231.00	-43.340	-158.501	
232.00	-42.551	-168.781	
233.00	-42.323	179.639	
234.00	-42.603	166.769	
235.00	-43.250	153.533	
236.00	-44.191	139.162	
237.00	-45.556	122.734	
238.00	-46.858	106.489	
239.00	-48.641	88.060	
240.00	-50.396	69.112	
241.00	-52.499	50.476	
242.00	-55.081	30.149	
243.00	-58.469	11.794	
244.00	-63.738	-9.167	
245.00	-78.585	-53.944	
246.00	-68.082	155.808	
247.00	-61.451	135.153	
248.00	-58.435	122.604	
249.00	-55.849	101.387	
250.00	-54.725	83.159	
251.00	-54.983	69.641	
252.00	-53.734	55.778	
253.00	-53.833	38.313	
254.00	-54.403	22.432	
255.00	-54.943	5.798	
256.00	-55.932	-13.487	
257.00	-57.208	-33.692	
258.00	-57.782	-57.470	
259.00	-58.752	-84.772	
260.00	-58.925	-112.845	
261.00	-58.149	-132.826	
262.00	-57.931	-155.426	
263.00	-58.416	-173.352	
264.00	-58.858	165.457	
265.00	-59.752	148.866	
266.00	-61.009	128.566	
267.00	-62.274	98.484	
268.00	-62.747	65.594	
269.00	-62.202	32.408	
270.00	-60.741	2.642	
271.00	-59.486	-21.463	
272.00	-58.437	-42.248	
273.00	-57.263	-58.174	
274.00	-56.778	-76.324	
275.00	-56.313	-92.306	
276.00	-56.301	-105.700	
277.00	-56.378	-122.573	
278.00	-56.639	-137.791	
279.00	-57.358	-153.543	
280.00	-58.183	-173.849	
281.00	-59.355	163.954	
282.00	-60.240	137.222	
283.00	-60.242	113.258	
284.00	-59.013	90.918	
285.00	-58.447	68.852	
286.00	-58.193	53.703	
287.00	-57.713	35.266	
288.00	-58.347	25.405	
289.00	-59.315	15.942	
290.00	-60.828	6.744	
291.00	-61.517	-0.362	
292.00	-64.304	-2.717	
293.00	-67.322	-7.864	
294.00	-69.440	2.046	
295.00	-70.865	15.811	
296.00	-70.844	15.016	
297.00	-68.045	16.710	
298.00	-69.542	23.352	
299.00	-69.861	3.057	
300.00	-68.858	-6.138	
301.00	-68.712	-22.581	
302.00	-70.669	-33.450	
303.00	-72.515	-54.517	
304.00	-73.244	-79.345	
305.00	-76.608	-109.961	
306.00	-77.274	176.845	
307.00	-74.386	145.093	
308.00	-73.221	106.469	
309.00	-71.228	106.589	
310.00	-76.001	69.643	
311.00	-77.418	8.521	
312.00	-73.004	-49.294	
313.00	-70.876	-73.326	
314.00	-66.486	-102.260	
315.00	-66.947	-117.387	
316.00	-64.168	-137.723	
317.00	-64.693	-145.300	
318.00	-65.024	-158.532	
319.00	-65.221	-151.953	
320.00	-65.494	-148.187	
321.00	-64.608	-140.558	
322.00	-62.925	-134.280	
323.00	-61.063	-135.830	
324.00	-59.762	-134.387	
325.00	-59.365	-138.486	
326.00	-58.591	-142.112	
327.00	-58.606	-145.537	
328.00	-59.336	-153.517	
329.00	-59.696	-151.036	
330.00	-58.987	-162.121	
331.00	-60.505	-158.159	
332.00	-61.506	-172.866	
333.00	-62.109	-178.912	
334.00	-62.695	174.327	
335.00	-63.143	164.629	
336.00	-64.560	154.633	
337.00	-64.302	151.911	
338.00	-64.961	159.842	
339.00	-65.060	144.645	
340.00	-65.470	138.161	
341.00	-66.088	144.676	
342.00	-66.688	142.845	
343.00	-67.449	145.512	
344.00	-70.795	146.799	
345.00	-73.587	138.993	
346.00	-75.782	-173.630	
347.00	-84.976	58.623	
348.00	-81.315	56.886	
349.00	-70.885	44.309	
350.00	-68.326	44.085	
351.00	-63.696	37.284	
352.00	-60.833	28.063	
353.00	-59.716	26.788	
354.00	-59.071	20.625	
355.00	-59.049	22.453	
356.00	-60.360	17.340	
357.00	-60.487	30.518	
358.00	-65.021	42.231	
359.00	-65.739	47.184	
Frequency	2170.00	MHz	
Channel	test		
Scan Axis name	Azimuth  [deg]		
Scan Axis	Amplitude	Phase	
			
0.00	-63.726	150.336	
1.00	-61.811	150.768	
2.00	-63.611	152.415	
3.00	-63.113	117.184	
4.00	-61.269	92.277	
5.00	-62.257	84.171	
6.00	-60.394	78.254	
7.00	-61.116	65.050	
8.00	-60.100	56.755	
9.00	-61.156	44.314	
10.00	-62.852	49.197	
11.00	-65.389	47.943	
12.00	-69.190	9.462	
13.00	-70.757	12.163	
14.00	-70.010	-0.724	
15.00	-72.049	16.436	
16.00	-71.207	-28.175	
17.00	-66.743	5.759	
18.00	-70.663	4.007	
19.00	-72.091	5.435	
20.00	-67.860	23.445	
21.00	-67.950	38.295	
22.00	-70.472	85.082	
23.00	-70.964	87.266	
24.00	-72.490	101.833	
25.00	-74.037	116.042	
26.00	-78.242	119.126	
27.00	-74.344	84.230	
28.00	-72.196	86.532	
29.00	-65.407	55.328	
30.00	-63.802	83.638	
31.00	-62.354	77.918	
32.00	-61.118	85.708	
33.00	-60.085	90.048	
34.00	-59.625	94.935	
35.00	-59.111	98.974	
36.00	-59.825	93.600	
37.00	-60.630	97.319	
38.00	-60.403	101.444	
39.00	-60.827	101.573	
40.00	-61.556	100.629	
41.00	-61.563	92.212	
42.00	-62.078	103.325	
43.00	-61.789	103.718	
44.00	-62.347	108.034	
45.00	-62.500	128.077	
46.00	-64.512	130.876	
47.00	-63.960	153.929	
48.00	-67.691	159.988	
49.00	-69.829	-167.452	
50.00	-77.869	-136.053	
51.00	-80.646	17.699	
52.00	-71.889	54.950	
53.00	-68.810	67.897	
54.00	-63.057	75.010	
55.00	-61.307	90.238	
56.00	-59.987	103.523	
57.00	-59.763	107.091	
58.00	-60.196	116.390	
59.00	-61.072	123.935	
60.00	-62.239	131.139	
61.00	-63.407	142.471	
62.00	-64.229	147.508	
63.00	-66.545	148.020	
64.00	-66.781	167.816	
65.00	-68.702	158.558	
66.00	-68.288	151.583	
67.00	-70.639	157.588	
68.00	-70.045	158.441	
69.00	-71.487	141.095	
70.00	-68.848	135.120	
71.00	-67.222	142.212	
72.00	-67.265	142.127	
73.00	-65.314	147.619	
74.00	-65.362	153.455	
75.00	-64.243	172.560	
76.00	-64.963	-171.237	
77.00	-64.040	-153.150	
78.00	-62.749	-131.873	
79.00	-63.180	-112.783	
80.00	-61.943	-100.011	
81.00	-62.427	-84.668	
82.00	-62.572	-65.168	
83.00	-63.453	-48.198	
84.00	-63.412	-21.452	
85.00	-64.836	20.846	
86.00	-64.368	42.875	
87.00	-62.712	67.669	
88.00	-61.340	82.832	
89.00	-60.683	102.070	
90.00	-59.111	117.043	
91.00	-59.078	135.391	
92.00	-58.827	151.428	
93.00	-57.547	170.178	
94.00	-58.275	-175.791	
95.00	-59.048	-155.863	
96.00	-58.269	-145.165	
97.00	-58.573	-129.299	
98.00	-60.454	-112.067	
99.00	-62.405	-86.877	
100.00	-61.801	-70.178	
101.00	-64.277	-10.330	
102.00	-64.382	20.605	
103.00	-63.921	54.110	
104.00	-62.587	30.081	
105.00	-61.413	75.138	
106.00	-59.764	93.432	
107.00	-62.181	124.552	
108.00	-63.870	137.399	
109.00	-66.490	156.257	
110.00	-61.410	161.715	
111.00	-65.849	171.057	
112.00	-62.146	-168.677	
113.00	-61.879	-168.410	
114.00	-59.520	-149.479	
115.00	-60.245	-146.354	
116.00	-59.470	-137.013	
117.00	-60.671	-129.309	
118.00	-62.338	-112.012	
119.00	-64.348	-80.220	
120.00	-65.369	-36.611	
121.00	-61.788	18.138	
122.00	-58.732	42.119	
123.00	-56.188	62.358	
124.00	-54.019	78.492	
125.00	-52.256	94.687	
126.00	-51.342	111.465	
127.00	-50.643	129.419	
128.00	-50.517	147.028	
129.00	-50.005	165.612	
130.00	-49.899	-176.381	
131.00	-49.760	-155.196	
132.00	-49.869	-137.247	
133.00	-49.772	-120.760	
134.00	-50.151	-104.924	
135.00	-50.859	-91.097	
136.00	-51.825	-76.864	
137.00	-53.418	-61.099	
138.00	-55.665	-44.547	
139.00	-57.193	-24.919	
140.00	-57.901	-1.572	
141.00	-56.556	13.197	
142.00	-55.248	25.416	
143.00	-53.403	27.973	
144.00	-51.914	31.753	
145.00	-50.814	37.252	
146.00	-50.035	40.244	
147.00	-50.146	44.371	
148.00	-50.553	44.757	
149.00	-52.261	45.446	
150.00	-54.760	31.524	
151.00	-56.148	-1.092	
152.00	-53.239	-36.966	
153.00	-49.631	-47.851	
154.00	-47.005	-48.943	
155.00	-45.326	-46.232	
156.00	-44.634	-40.934	
157.00	-44.399	-36.600	
158.00	-45.400	-28.306	
159.00	-47.060	-17.002	
160.00	-49.642	-3.920	
161.00	-53.809	26.128	
162.00	-55.447	79.701	
163.00	-52.352	119.407	
164.00	-50.007	138.960	
165.00	-49.230	150.221	
166.00	-49.931	156.618	
167.00	-52.616	163.409	
168.00	-59.606	-175.593	
169.00	-61.109	-49.427	
170.00	-51.988	-29.236	
171.00	-48.183	-24.080	
172.00	-46.399	-22.079	
173.00	-46.078	-25.201	
174.00	-47.673	-30.404	
175.00	-49.993	-51.120	
176.00	-51.784	-96.779	
177.00	-48.205	-140.147	
178.00	-44.556	-157.509	
179.00	-42.341	-168.800	
180.00	-41.510	-176.878	
181.00	-42.062	170.977	
182.00	-43.796	148.425	
183.00	-44.401	104.319	
184.00	-40.409	63.892	
185.00	-36.113	44.306	
186.00	-32.787	34.671	
187.00	-30.357	28.862	
188.00	-28.677	24.323	
189.00	-27.522	20.831	
190.00	-26.904	17.844	
191.00	-26.719	15.121	
192.00	-26.978	12.822	
193.00	-27.667	10.698	
194.00	-28.774	9.247	
195.00	-30.369	8.446	
196.00	-32.387	8.110	
197.00	-34.895	9.435	
198.00	-37.920	12.594	
199.00	-41.486	19.092	
200.00	-45.158	28.584	
201.00	-49.265	38.661	
202.00	-53.764	43.572	
203.00	-60.745	19.034	
204.00	-57.410	-59.407	
205.00	-51.529	-78.633	
206.00	-48.194	-85.659	
207.00	-46.320	-89.771	
208.00	-45.376	-93.487	
209.00	-45.346	-96.201	
210.00	-45.806	-96.657	
211.00	-46.878	-94.876	
212.00	-48.110	-93.028	
213.00	-49.449	-87.096	
214.00	-50.305	-80.838	
215.00	-50.802	-78.433	
216.00	-51.271	-76.797	
217.00	-52.227	-81.994	
218.00	-53.539	-87.737	
219.00	-54.887	-97.203	
220.00	-57.976	-105.728	
221.00	-62.859	-111.830	
222.00	-70.126	-83.562	
223.00	-67.616	-3.885	
224.00	-59.931	-3.882	
225.00	-56.940	-16.091	
226.00	-54.455	-31.008	
227.00	-52.917	-47.499	
228.00	-52.168	-65.110	
229.00	-51.333	-83.651	
230.00	-51.003	-102.879	
231.00	-50.606	-122.039	
232.00	-50.620	-140.179	
233.00	-50.281	-158.232	
234.00	-50.486	-174.431	
235.00	-50.637	170.987	
236.00	-51.446	159.078	
237.00	-52.337	145.935	
238.00	-53.695	138.491	
239.00	-55.469	133.651	
240.00	-56.809	133.029	
241.00	-57.838	139.687	
242.00	-57.782	145.528	
243.00	-56.923	145.445	
244.00	-55.776	139.246	
245.00	-54.647	130.178	
246.00	-53.741	116.997	
247.00	-53.058	102.718	
248.00	-52.535	88.534	
249.00	-52.362	72.655	
250.00	-52.262	54.522	
251.00	-52.885	37.768	
252.00	-52.818	24.429	
253.00	-52.927	3.781	
254.00	-53.966	-10.646	
255.00	-54.564	-31.431	
256.00	-54.616	-47.545	
257.00	-55.364	-69.353	
258.00	-55.785	-92.191	
259.00	-55.426	-112.092	
260.00	-55.989	-132.714	
261.00	-55.643	-155.903	
262.00	-55.301	-169.237	
263.00	-54.877	171.617	
264.00	-55.385	160.761	
265.00	-55.458	147.956	
266.00	-56.214	137.098	
267.00	-56.609	127.498	
268.00	-57.824	118.579	
269.00	-59.720	104.380	
270.00	-61.755	97.074	
271.00	-62.649	76.410	
272.00	-65.620	52.458	
273.00	-68.429	26.359	
274.00	-69.715	0.533	
275.00	-75.665	-24.385	
276.00	-75.845	-65.266	
277.00	-72.931	-118.703	
278.00	-70.961	-148.488	
279.00	-67.410	-172.678	
280.00	-65.284	167.589	
281.00	-63.973	148.491	
282.00	-62.205	141.635	
283.00	-61.832	123.412	
284.00	-61.204	114.763	
285.00	-61.183	107.695	
286.00	-60.003	99.164	
287.00	-61.843	89.320	
288.00	-63.481	78.200	
289.00	-64.407	72.318	
290.00	-66.170	62.008	
291.00	-69.117	70.268	
292.00	-69.696	63.440	
293.00	-75.451	94.698	
294.00	-74.189	114.740	
295.00	-70.964	156.133	
296.00	-71.313	-177.773	
297.00	-69.130	176.079	
298.00	-66.840	173.048	
299.00	-66.990	-178.625	
300.00	-65.646	171.219	
301.00	-63.766	167.164	
302.00	-63.505	160.224	
303.00	-66.200	147.711	
304.00	-65.387	141.468	
305.00	-67.041	135.951	
306.00	-67.884	126.379	
307.00	-68.202	119.582	
308.00	-69.464	118.167	
309.00	-69.396	106.423	
310.00	-67.723	118.035	
311.00	-66.291	95.958	
312.00	-63.615	81.383	
313.00	-62.662	70.993	
314.00	-59.949	67.672	
315.00	-60.394	62.625	
316.00	-58.869	60.389	
317.00	-57.940	45.086	
318.00	-57.235	32.105	
319.00	-56.963	23.312	
320.00	-57.196	10.963	
321.00	-58.362	-4.385	
322.00	-59.380	-14.748	
323.00	-59.636	-25.398	
324.00	-61.407	-36.926	
325.00	-63.417	-66.254	
326.00	-66.944	-79.036	
327.00	-67.383	-113.845	
328.00	-66.847	-127.831	
329.00	-65.400	-154.840	
330.00	-67.250	-163.414	
331.00	-63.893	-166.018	
332.00	-67.368	-161.830	
333.00	-62.918	-158.667	
334.00	-61.075	-158.997	
335.00	-61.204	-160.068	
336.00	-60.123	-167.284	
337.00	-60.004	-169.708	
338.00	-61.257	-164.846	
339.00	-59.181	-171.767	
340.00	-60.543	-166.789	
341.00	-60.923	-166.545	
342.00	-61.427	-161.177	
343.00	-63.942	-165.521	
344.00	-64.661	-177.590	
345.00	-64.523	178.324	
346.00	-63.622	162.416	
347.00	-63.270	162.051	
348.00	-61.503	135.986	
349.00	-62.054	124.226	
350.00	-61.385	122.435	
351.00	-60.380	129.073	
352.00	-61.074	127.061	
353.00	-60.954	119.032	
354.00	-59.529	126.193	
355.00	-61.236	131.387	
356.00	-61.165	143.364	
357.00	-60.567	153.459	
358.00	-62.202	157.854	
359.00	-60.441	150.801	
Frequency	2300.00	MHz	
Channel	test		
Scan Axis name	Azimuth  [deg]		
Scan Axis	Amplitude	Phase	
			
0.00	-68.189	-121.226	
1.00	-68.995	-127.876	
2.00	-68.084	-124.921	
3.00	-69.133	-121.973	
4.00	-70.029	-106.523	
5.00	-70.975	-76.025	
6.00	-67.186	-47.080	
7.00	-65.906	-28.210	
8.00	-65.745	-15.249	
9.00	-63.778	-5.411	
10.00	-63.633	12.734	
11.00	-61.603	19.590	
12.00	-61.792	34.674	
13.00	-60.918	38.726	
14.00	-60.797	46.506	
15.00	-62.000	45.430	
16.00	-63.582	43.889	
17.00	-65.768	42.146	
18.00	-73.096	49.799	
19.00	-77.353	-6.710	
20.00	-72.039	-114.604	
21.00	-71.240	-103.411	
22.00	-67.058	-116.109	
23.00	-65.364	-135.166	
24.00	-65.902	-134.009	
25.00	-64.285	-147.020	
26.00	-63.129	-160.360	
27.00	-64.853	-160.865	
28.00	-64.250	-168.037	
29.00	-66.347	-177.322	
30.00	-70.471	176.195	
31.00	-68.847	126.772	
32.00	-69.853	91.110	
33.00	-67.087	73.397	
34.00	-62.258	72.249	
35.00	-62.426	69.866	
36.00	-62.034	67.593	
37.00	-61.919	70.497	
38.00	-62.456	76.458	
39.00	-63.699	83.134	
40.00	-65.823	89.115	
41.00	-70.616	114.801	
42.00	-74.174	127.028	
43.00	-87.017	134.948	
44.00	-83.458	-127.794	
45.00	-75.678	-101.937	
46.00	-75.977	-97.988	
47.00	-77.119	-98.215	
48.00	-83.116	-23.750	
49.00	-78.019	83.564	
50.00	-71.854	72.815	
51.00	-68.331	90.811	
52.00	-65.844	95.712	
53.00	-63.654	112.041	
54.00	-62.430	123.317	
55.00	-63.022	131.205	
56.00	-63.058	139.217	
57.00	-64.553	150.494	
58.00	-66.719	152.121	
59.00	-73.706	129.593	
60.00	-76.806	102.321	
61.00	-70.078	50.309	
62.00	-68.498	62.147	
63.00	-66.816	77.030	
64.00	-65.919	86.186	
65.00	-67.188	110.660	
66.00	-68.412	122.918	
67.00	-72.571	145.020	
68.00	-71.590	163.148	
69.00	-74.971	170.283	
70.00	-78.181	156.124	
71.00	-74.213	127.260	
72.00	-71.299	98.214	
73.00	-68.914	102.601	
74.00	-67.337	131.463	
75.00	-68.603	135.692	
76.00	-68.690	159.682	
77.00	-73.338	-160.055	
78.00	-73.075	-77.610	
79.00	-68.960	-38.229	
80.00	-64.837	-14.103	
81.00	-61.629	-6.581	
82.00	-58.933	19.228	
83.00	-59.006	32.513	
84.00	-59.208	52.165	
85.00	-57.875	72.678	
86.00	-58.097	86.552	
87.00	-58.965	116.078	
88.00	-59.534	122.182	
89.00	-60.775	164.050	
90.00	-60.344	-151.798	
91.00	-61.052	-127.615	
92.00	-59.940	-100.367	
93.00	-57.559	-75.372	
94.00	-57.862	-55.574	
95.00	-56.190	-39.809	
96.00	-57.127	-15.737	
97.00	-56.256	-4.906	
98.00	-58.022	16.456	
99.00	-60.889	30.468	
100.00	-62.500	56.991	
101.00	-64.963	101.550	
102.00	-65.674	139.990	
103.00	-64.234	-167.148	
104.00	-62.343	-138.823	
105.00	-62.186	-101.484	
106.00	-60.961	-90.313	
107.00	-59.756	-64.593	
108.00	-60.492	-43.142	
109.00	-61.068	-23.000	
110.00	-61.083	-0.360	
111.00	-62.424	22.844	
112.00	-63.051	50.057	
113.00	-63.042	71.947	
114.00	-62.423	99.793	
115.00	-63.295	109.647	
116.00	-62.757	126.849	
117.00	-61.131	132.912	
118.00	-60.431	142.063	
119.00	-59.269	142.803	
120.00	-57.910	154.339	
121.00	-55.868	162.162	
122.00	-54.549	173.928	
123.00	-53.434	-177.006	
124.00	-52.390	-165.955	
125.00	-52.152	-157.693	
126.00	-52.475	-150.825	
127.00	-53.903	-141.363	
128.00	-56.773	-136.447	
129.00	-63.756	-138.752	
130.00	-68.054	106.364	
131.00	-57.551	94.301	
132.00	-53.567	99.713	
133.00	-51.480	109.229	
134.00	-50.237	117.989	
135.00	-49.580	128.353	
136.00	-49.866	139.013	
137.00	-50.759	149.277	
138.00	-52.332	157.532	
139.00	-54.536	162.377	
140.00	-57.579	159.028	
141.00	-59.502	134.407	
142.00	-57.361	111.570	
143.00	-55.524	104.107	
144.00	-53.731	108.260	
145.00	-52.716	118.713	
146.00	-53.419	125.857	
147.00	-54.285	134.877	
148.00	-56.530	149.295	
149.00	-60.618	161.620	
150.00	-65.555	167.597	
151.00	-80.817	91.721	
152.00	-64.888	53.482	
153.00	-61.085	69.710	
154.00	-58.216	94.169	
155.00	-55.266	117.004	
156.00	-53.511	138.047	
157.00	-51.900	149.397	
158.00	-51.583	162.858	
159.00	-51.167	174.646	
160.00	-52.071	-176.250	
161.00	-54.059	-170.237	
162.00	-57.800	-167.977	
163.00	-64.766	-179.010	
164.00	-67.559	74.381	
165.00	-59.545	58.524	
166.00	-56.545	48.216	
167.00	-55.544	42.729	
168.00	-56.682	26.450	
169.00	-57.402	-6.665	
170.00	-55.139	-46.032	
171.00	-51.207	-66.973	
172.00	-48.550	-77.292	
173.00	-46.950	-83.393	
174.00	-46.489	-88.953	
175.00	-47.369	-95.513	
176.00	-49.958	-108.128	
177.00	-54.470	-140.392	
178.00	-53.892	152.839	
179.00	-48.990	121.443	
180.00	-46.274	105.292	
181.00	-45.413	91.620	
182.00	-45.815	70.239	
183.00	-46.071	34.297	
184.00	-43.238	-5.729	
185.00	-39.102	-29.558	
186.00	-35.657	-42.836	
187.00	-33.051	-51.643	
188.00	-31.215	-58.035	
189.00	-29.929	-63.374	
190.00	-29.199	-68.155	
191.00	-28.972	-72.499	
192.00	-29.194	-76.528	
193.00	-29.893	-80.168	
194.00	-31.066	-83.544	
195.00	-32.812	-86.089	
196.00	-35.093	-87.794	
197.00	-38.271	-87.846	
198.00	-42.336	-83.749	
199.00	-48.023	-69.272	
200.00	-53.246	-26.693	
201.00	-52.631	18.956	
202.00	-51.576	40.408	
203.00	-52.204	54.762	
204.00	-53.242	71.106	
205.00	-54.378	89.145	
206.00	-54.955	107.156	
207.00	-55.323	120.465	
208.00	-58.739	126.878	
209.00	-67.727	145.728	
210.00	-62.586	-82.258	
211.00	-54.393	-76.741	
212.00	-50.318	-80.292	
213.00	-47.902	-86.075	
214.00	-46.812	-93.303	
215.00	-46.555	-100.474	
216.00	-47.185	-108.508	
217.00	-48.930	-118.398	
218.00	-51.584	-129.925	
219.00	-55.935	-149.553	
220.00	-62.267	160.508	
221.00	-59.581	83.520	
222.00	-55.459	51.085	
223.00	-52.950	37.099	
224.00	-52.225	27.717	
225.00	-51.960	18.674	
226.00	-52.813	13.403	
227.00	-53.918	10.462	
228.00	-55.463	12.118	
229.00	-56.552	19.550	
230.00	-57.205	27.197	
231.00	-56.837	28.809	
232.00	-56.861	29.494	
233.00	-57.529	25.297	
234.00	-58.567	16.422	
235.00	-60.496	7.043	
236.00	-62.971	-13.506	
237.00	-65.502	-32.263	
238.00	-66.991	-62.147	
239.00	-69.125	-78.009	
240.00	-70.784	-88.144	
241.00	-69.308	-70.218	
242.00	-67.376	-51.634	
243.00	-63.851	-48.478	
244.00	-61.194	-53.039	
245.00	-58.595	-59.306	
246.00	-57.134	-72.147	
247.00	-56.507	-83.728	
248.00	-55.703	-94.432	
249.00	-54.832	-111.983	
250.00	-55.112	-122.919	
251.00	-55.653	-135.960	
252.00	-56.082	-152.657	
253.00	-57.522	-161.973	
254.00	-58.468	179.702	
255.00	-60.415	162.503	
256.00	-62.403	140.785	
257.00	-64.404	114.258	
258.00	-65.487	92.625	
259.00	-66.340	69.085	
260.00	-67.494	44.054	
261.00	-68.586	18.687	
262.00	-71.334	-19.870	
263.00	-69.440	-36.540	
264.00	-70.121	-70.209	
265.00	-68.441	-78.156	
266.00	-68.407	-96.396	
267.00	-69.013	-118.700	
268.00	-69.738	-132.059	
269.00	-68.389	-155.849	
270.00	-67.265	-173.475	
271.00	-65.982	170.888	
272.00	-65.055	160.684	
273.00	-64.124	147.530	
274.00	-63.957	137.955	
275.00	-63.614	128.902	
276.00	-63.996	114.871	
277.00	-64.650	99.215	
278.00	-65.123	83.637	
279.00	-66.338	55.636	
280.00	-66.112	41.212	
281.00	-66.020	18.516	
282.00	-66.923	2.266	
283.00	-67.221	-21.170	
284.00	-68.162	-43.633	
285.00	-69.518	-81.447	
286.00	-70.328	-119.199	
287.00	-69.329	-171.684	
288.00	-64.817	164.213	
289.00	-63.005	137.926	
290.00	-61.850	122.436	
291.00	-60.225	104.528	
292.00	-58.803	90.220	
293.00	-57.570	78.412	
294.00	-57.162	68.142	
295.00	-56.812	54.938	
296.00	-56.677	43.638	
297.00	-56.774	38.609	
298.00	-56.538	28.583	
299.00	-57.627	20.871	
300.00	-58.736	12.627	
301.00	-59.683	5.719	
302.00	-62.132	-2.572	
303.00	-65.151	-25.439	
304.00	-68.735	-35.014	
305.00	-71.975	-76.554	
306.00	-70.502	-134.719	
307.00	-66.943	176.485	
308.00	-63.895	158.156	
309.00	-62.119	152.456	
310.00	-60.611	140.241	
311.00	-60.389	126.756	
312.00	-60.678	123.610	
313.00	-61.574	114.769	
314.00	-62.332	112.759	
315.00	-64.828	114.921	
316.00	-67.743	125.890	
317.00	-68.057	140.307	
318.00	-68.809	156.664	
319.00	-68.782	160.922	
320.00	-68.921	167.653	
321.00	-69.069	170.163	
322.00	-69.869	174.727	
323.00	-69.393	171.347	
324.00	-69.657	178.526	
325.00	-70.058	-179.891	
326.00	-70.955	-176.369	
327.00	-71.296	-163.673	
328.00	-68.907	-159.643	
329.00	-67.929	-156.625	
330.00	-65.301	-165.971	
331.00	-64.802	-170.492	
332.00	-62.927	-172.728	
333.00	-63.585	173.744	
334.00	-64.542	166.280	
335.00	-65.539	147.380	
336.00	-68.507	140.581	
337.00	-72.174	109.741	
338.00	-78.439	45.953	
339.00	-73.729	-2.008	
340.00	-75.739	-17.152	
341.00	-77.300	-42.409	
342.00	-96.427	137.244	
343.00	-80.869	113.062	
344.00	-70.076	93.183	
345.00	-66.449	86.043	
346.00	-64.011	73.059	
347.00	-62.131	67.796	
348.00	-61.188	56.185	
349.00	-61.169	47.913	
350.00	-61.402	34.085	
351.00	-61.829	25.257	
352.00	-62.035	15.172	
353.00	-64.180	7.005	
354.00	-65.503	-7.418	
355.00	-69.501	-21.855	
356.00	-71.642	-42.988	
357.00	-71.811	-80.646	
358.00	-71.781	-118.061	
359.00	-69.701	-112.328	
Frequency	2350.00	MHz	
Channel	test		
Scan Axis name	Azimuth  [deg]		
Scan Axis	Amplitude	Phase	
			
0.00	-70.105	3.528	
1.00	-70.163	-19.915	
2.00	-69.531	-38.658	
3.00	-68.447	-55.518	
4.00	-67.286	-68.562	
5.00	-66.881	-78.952	
6.00	-66.017	-79.541	
7.00	-67.675	-78.929	
8.00	-69.941	-77.045	
9.00	-76.657	-80.645	
10.00	-80.842	147.552	
11.00	-71.718	136.785	
12.00	-69.301	139.706	
13.00	-68.267	133.395	
14.00	-68.250	122.266	
15.00	-69.019	101.621	
16.00	-70.784	85.299	
17.00	-73.536	62.898	
18.00	-73.814	14.563	
19.00	-69.416	-19.018	
20.00	-65.530	-30.484	
21.00	-63.147	-27.968	
22.00	-62.372	-25.764	
23.00	-62.518	-22.003	
24.00	-64.591	-21.121	
25.00	-66.234	-19.907	
26.00	-68.720	-19.959	
27.00	-71.946	-17.225	
28.00	-74.592	-9.573	
29.00	-80.111	26.254	
30.00	-83.621	94.214	
31.00	-77.927	154.996	
32.00	-73.758	175.321	
33.00	-73.404	-165.238	
34.00	-73.560	-162.122	
35.00	-71.574	-172.147	
36.00	-68.640	177.922	
37.00	-65.674	-176.056	
38.00	-62.866	-167.109	
39.00	-61.528	-148.029	
40.00	-60.689	-127.383	
41.00	-59.948	-109.506	
42.00	-59.824	-85.733	
43.00	-59.766	-65.633	
44.00	-59.833	-48.560	
45.00	-60.772	-37.517	
46.00	-61.967	-29.716	
47.00	-63.241	-28.588	
48.00	-65.271	-24.533	
49.00	-68.316	-19.200	
50.00	-76.469	-13.764	
51.00	-80.124	152.995	
52.00	-68.216	170.079	
53.00	-63.786	-175.655	
54.00	-60.606	-161.796	
55.00	-59.414	-145.774	
56.00	-59.093	-129.180	
57.00	-59.688	-109.663	
58.00	-61.307	-88.809	
59.00	-63.657	-65.968	
60.00	-69.503	-36.298	
61.00	-79.356	64.991	
62.00	-67.397	142.503	
63.00	-62.880	172.687	
64.00	-59.940	-162.375	
65.00	-58.154	-140.221	
66.00	-57.484	-120.840	
67.00	-57.508	-99.756	
68.00	-58.479	-75.474	
69.00	-60.019	-50.568	
70.00	-62.330	-21.014	
71.00	-64.942	26.952	
72.00	-65.212	82.514	
73.00	-62.291	128.553	
74.00	-60.716	161.759	
75.00	-59.217	-165.526	
76.00	-58.138	-136.698	
77.00	-57.066	-105.057	
78.00	-56.112	-74.977	
79.00	-54.924	-48.793	
80.00	-53.737	-25.579	
81.00	-53.197	-2.088	
82.00	-53.023	22.641	
83.00	-53.077	45.146	
84.00	-53.017	73.526	
85.00	-52.769	101.030	
86.00	-52.493	125.918	
87.00	-51.980	152.153	
88.00	-51.910	175.787	
89.00	-51.483	-159.349	
90.00	-51.899	-136.948	
91.00	-51.734	-110.258	
92.00	-52.257	-86.522	
93.00	-52.108	-63.221	
94.00	-51.617	-42.702	
95.00	-52.070	-20.362	
96.00	-52.196	0.239	
97.00	-53.202	25.254	
98.00	-53.928	47.327	
99.00	-54.621	72.685	
100.00	-55.618	97.856	
101.00	-57.306	136.571	
102.00	-57.510	168.749	
103.00	-56.947	-159.711	
104.00	-57.262	-134.256	
105.00	-57.001	-110.644	
106.00	-57.138	-90.707	
107.00	-58.856	-69.212	
108.00	-60.430	-59.064	
109.00	-63.045	-27.054	
110.00	-65.741	-1.078	
111.00	-67.415	50.637	
112.00	-66.089	86.683	
113.00	-65.123	109.140	
114.00	-65.035	120.372	
115.00	-65.987	124.878	
116.00	-65.178	120.857	
117.00	-64.452	122.099	
118.00	-63.896	125.186	
119.00	-62.122	138.722	
120.00	-60.207	160.123	
121.00	-58.312	178.253	
122.00	-55.986	-163.232	
123.00	-54.485	-147.290	
124.00	-53.552	-131.646	
125.00	-53.089	-117.525	
126.00	-53.635	-102.728	
127.00	-54.979	-84.451	
128.00	-57.862	-65.300	
129.00	-61.872	-31.284	
130.00	-64.338	43.110	
131.00	-59.822	94.586	
132.00	-56.601	122.209	
133.00	-54.691	146.253	
134.00	-53.524	166.628	
135.00	-52.834	-174.424	
136.00	-52.626	-157.470	
137.00	-53.064	-143.370	
138.00	-54.442	-135.777	
139.00	-56.895	-137.692	
140.00	-59.252	-161.421	
141.00	-57.176	167.668	
142.00	-53.419	159.405	
143.00	-50.908	163.690	
144.00	-49.356	172.551	
145.00	-48.690	-176.294	
146.00	-48.703	-163.778	
147.00	-49.540	-149.579	
148.00	-51.272	-135.921	
149.00	-54.688	-118.828	
150.00	-61.135	-88.684	
151.00	-64.134	7.935	
152.00	-58.197	54.925	
153.00	-55.519	75.177	
154.00	-55.365	96.197	
155.00	-56.524	121.008	
156.00	-58.236	159.595	
157.00	-57.282	-151.327	
158.00	-54.965	-114.209	
159.00	-52.674	-88.319	
160.00	-51.193	-66.577	
161.00	-50.270	-47.627	
162.00	-49.690	-29.947	
163.00	-49.712	-13.420	
164.00	-49.815	5.119	
165.00	-49.665	22.728	
166.00	-49.300	35.300	
167.00	-48.903	41.382	
168.00	-48.463	38.411	
169.00	-47.822	30.267	
170.00	-46.757	18.688	
171.00	-45.337	9.457	
172.00	-44.147	2.864	
173.00	-43.484	-0.424	
174.00	-43.673	-1.451	
175.00	-45.027	-0.833	
176.00	-48.193	3.757	
177.00	-55.259	28.392	
178.00	-54.692	121.720	
179.00	-47.595	142.345	
180.00	-44.417	142.927	
181.00	-43.254	136.574	
182.00	-43.528	122.046	
183.00	-44.076	92.469	
184.00	-42.096	52.197	
185.00	-38.080	25.544	
186.00	-34.467	10.806	
187.00	-31.699	1.467	
188.00	-29.716	-5.491	
189.00	-28.345	-11.410	
190.00	-27.560	-16.633	
191.00	-27.279	-21.381	
192.00	-27.480	-25.950	
193.00	-28.136	-30.060	
194.00	-29.332	-33.888	
195.00	-31.042	-37.073	
196.00	-33.368	-39.096	
197.00	-36.447	-38.864	
198.00	-40.283	-33.950	
199.00	-44.703	-18.726	
200.00	-47.617	7.395	
201.00	-48.546	26.317	
202.00	-49.875	31.278	
203.00	-53.307	23.911	
204.00	-61.396	-16.589	
205.00	-57.792	-117.012	
206.00	-52.423	-143.536	
207.00	-50.011	-159.707	
208.00	-49.599	-175.417	
209.00	-50.531	165.358	
210.00	-52.914	139.278	
211.00	-55.328	95.204	
212.00	-54.397	40.894	
213.00	-51.648	4.512	
214.00	-49.570	-20.540	
215.00	-48.637	-41.389	
216.00	-48.649	-60.898	
217.00	-49.530	-83.841	
218.00	-51.283	-112.106	
219.00	-52.617	-152.911	
220.00	-51.965	163.403	
221.00	-49.897	129.662	
222.00	-48.050	104.550	
223.00	-47.023	85.700	
224.00	-46.548	68.933	
225.00	-46.820	54.116	
226.00	-47.721	40.258	
227.00	-49.307	28.720	
228.00	-51.677	21.069	
229.00	-55.178	21.159	
230.00	-58.523	40.626	
231.00	-57.759	70.398	
232.00	-54.774	79.204	
233.00	-52.670	74.308	
234.00	-51.393	64.740	
235.00	-50.938	51.923	
236.00	-50.797	38.770	
237.00	-51.208	23.695	
238.00	-51.789	9.701	
239.00	-52.957	-3.910	
240.00	-54.424	-16.461	
241.00	-56.394	-26.531	
242.00	-58.999	-31.834	
243.00	-62.234	-29.962	
244.00	-64.912	-14.384	
245.00	-65.143	7.912	
246.00	-63.655	13.109	
247.00	-62.654	8.074	
248.00	-62.300	1.162	
249.00	-62.175	-18.059	
250.00	-64.658	-38.515	
251.00	-65.188	-56.865	
252.00	-65.502	-86.765	
253.00	-67.355	-117.586	
254.00	-67.181	-148.461	
255.00	-66.301	-173.719	
256.00	-64.975	165.331	
257.00	-64.403	149.860	
258.00	-64.329	139.297	
259.00	-64.185	131.103	
260.00	-64.464	126.317	
261.00	-64.325	119.427	
262.00	-64.526	117.975	
263.00	-64.897	116.273	
264.00	-64.931	113.897	
265.00	-65.136	109.326	
266.00	-65.431	103.765	
267.00	-65.380	97.204	
268.00	-66.285	91.405	
269.00	-67.324	83.670	
270.00	-69.209	74.146	
271.00	-72.607	65.551	
272.00	-76.653	35.909	
273.00	-85.873	-36.160	
274.00	-77.649	-95.908	
275.00	-75.608	-115.232	
276.00	-73.482	-135.523	
277.00	-73.207	-153.407	
278.00	-73.479	-177.674	
279.00	-74.683	158.472	
280.00	-72.600	121.989	
281.00	-70.885	102.585	
282.00	-69.048	88.635	
283.00	-69.421	84.237	
284.00	-69.563	83.072	
285.00	-71.556	84.793	
286.00	-75.479	99.788	
287.00	-74.634	164.306	
288.00	-70.730	176.321	
289.00	-67.156	170.060	
290.00	-65.305	165.062	
291.00	-63.819	158.210	
292.00	-63.430	151.080	
293.00	-63.472	142.100	
294.00	-64.291	135.445	
295.00	-65.011	128.186	
296.00	-66.293	122.928	
297.00	-68.942	121.170	
298.00	-71.191	113.968	
299.00	-75.294	118.938	
300.00	-76.234	128.033	
301.00	-78.566	156.055	
302.00	-76.155	178.582	
303.00	-76.319	-157.701	
304.00	-73.461	-145.125	
305.00	-71.695	-143.009	
306.00	-69.988	-131.213	
307.00	-69.002	-133.157	
308.00	-68.134	-134.424	
309.00	-68.925	-140.089	
310.00	-69.124	-153.867	
311.00	-71.756	-161.477	
312.00	-73.743	-177.893	
313.00	-78.103	164.568	
314.00	-86.161	-165.360	
315.00	-79.171	-115.338	
316.00	-71.980	-102.755	
317.00	-67.006	-109.409	
318.00	-64.799	-116.964	
319.00	-63.080	-120.563	
320.00	-62.343	-123.513	
321.00	-62.298	-124.371	
322.00	-63.324	-121.695	
323.00	-64.624	-113.909	
324.00	-65.741	-97.405	
325.00	-64.821	-79.939	
326.00	-64.073	-68.252	
327.00	-62.706	-66.851	
328.00	-61.653	-67.230	
329.00	-61.475	-73.508	
330.00	-61.776	-83.348	
331.00	-62.544	-93.637	
332.00	-64.395	-108.129	
333.00	-66.368	-127.101	
334.00	-67.952	-152.096	
335.00	-68.678	-176.915	
336.00	-69.006	162.246	
337.00	-69.189	146.068	
338.00	-70.143	137.862	
339.00	-71.567	135.800	
340.00	-73.010	129.465	
341.00	-71.837	126.436	
342.00	-70.326	119.157	
343.00	-69.182	111.473	
344.00	-67.870	104.011	
345.00	-67.537	92.363	
346.00	-67.393	74.895	
347.00	-67.380	58.264	
348.00	-67.098	39.612	
349.00	-66.424	24.253	
350.00	-65.963	14.905	
351.00	-65.884	10.898	
352.00	-65.943	12.029	
353.00	-65.395	19.527	
354.00	-65.324	25.095	
355.00	-64.829	33.679	
356.00	-64.776	37.888	
357.00	-65.398	34.381	
358.00	-65.656	33.311	
359.00	-67.160	28.784	
Frequency	2400.00	MHz	
Channel	test		
Scan Axis name	Azimuth  [deg]		
Scan Axis	Amplitude	Phase	
			
0.00	-68.225	-92.369	
1.00	-68.823	-93.232	
2.00	-74.193	-81.759	
3.00	-72.156	-86.038	
4.00	-76.026	178.671	
5.00	-79.132	-174.309	
6.00	-79.066	76.255	
7.00	-76.361	86.806	
8.00	-69.980	49.664	
9.00	-70.775	46.632	
10.00	-70.546	39.811	
11.00	-70.624	28.375	
12.00	-70.085	27.148	
13.00	-71.945	12.882	
14.00	-70.012	-3.668	
15.00	-70.782	-23.096	
16.00	-71.580	-33.849	
17.00	-72.172	-32.245	
18.00	-73.078	-37.622	
19.00	-71.812	-44.821	
20.00	-70.217	-28.623	
21.00	-67.472	-2.249	
22.00	-67.120	13.075	
23.00	-66.272	29.042	
24.00	-66.078	38.797	
25.00	-65.055	54.922	
26.00	-68.042	57.240	
27.00	-69.341	67.851	
28.00	-71.550	85.678	
29.00	-72.602	115.061	
30.00	-72.236	144.029	
31.00	-69.266	-178.154	
32.00	-68.302	-167.862	
33.00	-67.362	-158.128	
34.00	-70.667	-169.617	
35.00	-70.542	165.695	
36.00	-66.842	154.397	
37.00	-66.096	159.477	
38.00	-64.836	167.607	
39.00	-66.097	-169.555	
40.00	-69.044	-128.861	
41.00	-69.831	-72.424	
42.00	-66.268	-28.677	
43.00	-64.755	5.446	
44.00	-64.490	26.769	
45.00	-64.703	49.349	
46.00	-66.194	69.676	
47.00	-71.175	80.379	
48.00	-74.020	96.827	
49.00	-80.832	87.053	
50.00	-79.337	90.447	
51.00	-76.641	124.469	
52.00	-74.413	174.337	
53.00	-71.386	-163.296	
54.00	-66.290	-126.250	
55.00	-64.277	-101.521	
56.00	-62.491	-74.833	
57.00	-62.124	-53.483	
58.00	-62.566	-30.403	
59.00	-64.604	-0.673	
60.00	-69.340	28.980	
61.00	-73.439	106.649	
62.00	-70.253	172.120	
63.00	-66.324	-152.885	
64.00	-64.089	-121.736	
65.00	-63.546	-81.342	
66.00	-63.181	-44.383	
67.00	-61.667	1.221	
68.00	-59.920	37.811	
69.00	-57.754	67.911	
70.00	-56.266	95.934	
71.00	-55.153	121.440	
72.00	-54.477	147.064	
73.00	-54.517	171.717	
74.00	-55.120	-159.640	
75.00	-54.652	-128.258	
76.00	-54.959	-98.530	
77.00	-54.628	-64.526	
78.00	-54.476	-31.844	
79.00	-53.560	-1.139	
80.00	-52.731	28.300	
81.00	-52.012	53.449	
82.00	-51.997	81.020	
83.00	-51.133	105.986	
84.00	-51.090	130.560	
85.00	-50.731	157.521	
86.00	-50.654	-175.692	
87.00	-50.347	-151.474	
88.00	-50.379	-125.508	
89.00	-50.155	-103.411	
90.00	-49.763	-76.032	
91.00	-49.747	-52.926	
92.00	-49.366	-28.444	
93.00	-49.414	-3.325	
94.00	-49.466	18.524	
95.00	-49.559	41.178	
96.00	-49.795	64.054	
97.00	-50.116	87.004	
98.00	-50.652	113.183	
99.00	-50.480	140.284	
100.00	-50.956	163.462	
101.00	-51.298	-166.446	
102.00	-51.777	-140.221	
103.00	-52.184	-116.241	
104.00	-52.685	-93.029	
105.00	-53.863	-69.225	
106.00	-54.687	-44.866	
107.00	-56.075	-15.994	
108.00	-58.027	14.435	
109.00	-59.439	50.728	
110.00	-59.767	91.114	
111.00	-58.311	127.315	
112.00	-57.438	152.891	
113.00	-56.736	175.539	
114.00	-57.144	-159.293	
115.00	-57.423	-138.062	
116.00	-58.268	-113.562	
117.00	-58.736	-88.261	
118.00	-58.363	-66.319	
119.00	-58.190	-50.325	
120.00	-57.757	-41.824	
121.00	-57.192	-44.116	
122.00	-56.986	-48.961	
123.00	-55.799	-55.217	
124.00	-54.882	-58.161	
125.00	-54.656	-55.843	
126.00	-54.927	-53.542	
127.00	-56.898	-48.481	
128.00	-60.833	-40.311	
129.00	-71.733	-21.901	
130.00	-66.640	148.848	
131.00	-59.360	163.027	
132.00	-56.357	178.064	
133.00	-54.679	-164.983	
134.00	-53.807	-143.066	
135.00	-52.871	-121.339	
136.00	-52.071	-102.249	
137.00	-51.234	-87.036	
138.00	-51.149	-77.182	
139.00	-51.960	-71.592	
140.00	-53.081	-69.693	
141.00	-54.753	-81.921	
142.00	-55.046	-97.236	
143.00	-54.261	-107.933	
144.00	-53.005	-111.533	
145.00	-52.422	-106.222	
146.00	-52.713	-99.525	
147.00	-54.411	-88.471	
148.00	-58.302	-76.859	
149.00	-69.359	-28.084	
150.00	-60.810	83.908	
151.00	-53.982	104.329	
152.00	-51.506	113.910	
153.00	-50.242	123.727	
154.00	-50.421	130.180	
155.00	-51.628	135.984	
156.00	-54.487	133.986	
157.00	-58.586	115.610	
158.00	-58.288	66.725	
159.00	-53.719	47.056	
160.00	-50.514	46.123	
161.00	-48.946	48.815	
162.00	-48.564	55.999	
163.00	-49.036	67.084	
164.00	-50.079	82.880	
165.00	-51.097	105.037	
166.00	-50.804	126.689	
167.00	-50.145	137.862	
168.00	-50.003	140.998	
169.00	-49.874	134.922	
170.00	-49.418	120.089	
171.00	-48.228	102.661	
172.00	-46.796	90.409	
173.00	-46.007	82.508	
174.00	-46.252	77.090	
175.00	-48.325	73.050	
176.00	-54.299	67.943	
177.00	-61.753	-108.432	
178.00	-48.270	-116.134	
179.00	-43.313	-121.127	
180.00	-40.804	-126.350	
181.00	-39.634	-134.756	
182.00	-39.608	-148.766	
183.00	-40.084	-171.873	
184.00	-39.279	153.468	
185.00	-36.618	123.097	
186.00	-33.250	104.006	
187.00	-30.514	91.661	
188.00	-28.579	83.422	
189.00	-27.228	76.741	
190.00	-26.436	71.490	
191.00	-26.207	66.980	
192.00	-26.465	62.951	
193.00	-27.206	59.715	
194.00	-28.505	57.228	
195.00	-30.335	56.144	
196.00	-32.804	57.268	
197.00	-35.925	62.953	
198.00	-39.202	76.097	
199.00	-41.648	96.990	
200.00	-42.659	114.957	
201.00	-43.372	123.684	
202.00	-45.466	124.671	
203.00	-49.467	121.021	
204.00	-59.538	104.710	
205.00	-58.002	-47.051	
206.00	-51.156	-60.422	
207.00	-48.682	-71.693	
208.00	-48.662	-80.138	
209.00	-50.372	-89.486	
210.00	-54.796	-97.730	
211.00	-67.226	-104.700	
212.00	-59.425	52.580	
213.00	-52.991	42.922	
214.00	-50.394	28.648	
215.00	-49.631	12.210	
216.00	-49.823	-8.693	
217.00	-50.725	-36.466	
218.00	-51.366	-71.544	
219.00	-50.464	-107.333	
220.00	-49.370	-137.423	
221.00	-48.287	-162.106	
222.00	-47.863	177.872	
223.00	-47.949	160.561	
224.00	-48.715	142.322	
225.00	-50.458	126.956	
226.00	-53.166	112.188	
227.00	-57.714	103.063	
228.00	-65.430	115.010	
229.00	-62.648	-166.796	
230.00	-56.488	-166.701	
231.00	-52.717	-177.143	
232.00	-50.693	168.430	
233.00	-49.381	154.561	
234.00	-48.592	139.196	
235.00	-48.545	125.789	
236.00	-48.956	111.855	
237.00	-49.689	96.940	
238.00	-50.665	84.451	
239.00	-52.002	71.039	
240.00	-53.576	60.747	
241.00	-55.345	52.373	
242.00	-57.297	49.156	
243.00	-58.937	52.757	
244.00	-60.091	55.947	
245.00	-60.852	55.505	
246.00	-61.941	51.017	
247.00	-63.052	40.808	
248.00	-64.354	15.229	
249.00	-67.073	-21.246	
250.00	-66.758	-57.571	
251.00	-64.890	-90.747	
252.00	-63.565	-107.458	
253.00	-62.576	-126.211	
254.00	-62.790	-145.608	
255.00	-63.030	-161.773	
256.00	-64.512	178.952	
257.00	-66.614	156.535	
258.00	-67.948	143.655	
259.00	-71.163	122.878	
260.00	-77.601	101.533	
261.00	-84.663	-74.366	
262.00	-72.106	-99.827	
263.00	-66.901	-112.474	
264.00	-64.164	-119.391	
265.00	-62.456	-125.265	
266.00	-62.152	-135.094	
267.00	-62.200	-142.094	
268.00	-63.023	-148.064	
269.00	-64.672	-151.145	
270.00	-67.048	-155.146	
271.00	-70.911	-151.950	
272.00	-75.323	-123.929	
273.00	-75.745	-91.606	
274.00	-74.904	-85.184	
275.00	-73.828	-95.605	
276.00	-72.933	-107.613	
277.00	-70.946	-132.764	
278.00	-70.670	-155.791	
279.00	-69.728	-177.781	
280.00	-68.707	163.890	
281.00	-67.387	137.194	
282.00	-67.110	113.882	
283.00	-66.038	97.212	
284.00	-65.889	80.112	
285.00	-65.787	59.849	
286.00	-66.424	36.602	
287.00	-67.783	4.473	
288.00	-69.634	-18.829	
289.00	-69.933	-43.768	
290.00	-69.230	-73.603	
291.00	-67.908	-84.730	
292.00	-69.615	-104.377	
293.00	-74.271	-99.366	
294.00	-73.710	-105.197	
295.00	-75.889	-88.787	
296.00	-72.023	-59.303	
297.00	-67.970	-56.591	
298.00	-65.526	-65.416	
299.00	-63.747	-76.722	
300.00	-62.454	-83.668	
301.00	-61.884	-94.021	
302.00	-62.123	-101.524	
303.00	-63.032	-111.718	
304.00	-65.323	-128.263	
305.00	-67.406	-139.488	
306.00	-71.045	-167.071	
307.00	-72.663	155.135	
308.00	-73.236	131.101	
309.00	-70.387	114.290	
310.00	-69.515	102.184	
311.00	-68.919	103.980	
312.00	-68.227	95.729	
313.00	-68.226	86.330	
314.00	-67.396	74.288	
315.00	-66.975	57.657	
316.00	-65.663	46.064	
317.00	-65.194	31.556	
318.00	-64.865	19.639	
319.00	-64.644	12.483	
320.00	-64.478	7.098	
321.00	-65.583	-0.757	
322.00	-66.516	-4.499	
323.00	-67.497	-14.990	
324.00	-69.625	-18.999	
325.00	-70.488	-16.030	
326.00	-72.443	-25.100	
327.00	-75.428	-12.454	
328.00	-72.183	-20.457	
329.00	-73.435	-25.607	
330.00	-70.234	-31.412	
331.00	-68.039	-32.717	
332.00	-66.290	-32.098	
333.00	-65.842	-31.351	
334.00	-65.936	-25.915	
335.00	-65.173	-14.726	
336.00	-62.898	-11.253	
337.00	-63.609	-13.638	
338.00	-63.883	-19.019	
339.00	-63.973	-27.629	
340.00	-64.942	-38.423	
341.00	-65.724	-49.794	
342.00	-66.477	-59.688	
343.00	-69.694	-76.477	
344.00	-71.747	-81.070	
345.00	-73.033	-97.424	
346.00	-76.313	-105.580	
347.00	-76.187	-112.400	
348.00	-76.273	-108.897	
349.00	-76.307	-90.770	
350.00	-79.001	-89.090	
351.00	-73.414	-96.493	
352.00	-75.942	-103.612	
353.00	-74.884	-126.732	
354.00	-73.356	-129.115	
355.00	-71.971	-133.773	
356.00	-69.746	-115.364	
357.00	-67.890	-104.981	
358.00	-68.400	-103.773	
359.00	-66.753	-97.733	
Frequency	2450.00	MHz	
Channel	test		
Scan Axis name	Azimuth  [deg]		
Scan Axis	Amplitude	Phase	
			
0.00	-83.072	-101.089	
1.00	-83.996	-89.317	
2.00	-81.298	-106.223	
3.00	-85.114	-2.066	
4.00	-87.749	5.096	
5.00	-82.545	-45.202	
6.00	-77.669	-70.568	
7.00	-73.675	-45.704	
8.00	-71.184	-35.210	
9.00	-70.502	-26.615	
10.00	-70.710	19.494	
11.00	-68.041	50.342	
12.00	-67.095	61.316	
13.00	-66.353	68.133	
14.00	-66.874	75.280	
15.00	-68.066	77.289	
16.00	-70.668	98.336	
17.00	-73.140	176.358	
18.00	-68.248	-150.056	
19.00	-63.504	-127.054	
20.00	-61.033	-115.664	
21.00	-59.934	-109.410	
22.00	-59.706	-108.976	
23.00	-60.157	-118.656	
24.00	-59.396	-124.165	
25.00	-57.980	-132.458	
26.00	-56.776	-136.760	
27.00	-56.354	-134.764	
28.00	-56.150	-134.854	
29.00	-55.928	-134.240	
30.00	-55.712	-133.775	
31.00	-56.252	-127.745	
32.00	-57.071	-120.692	
33.00	-59.465	-114.840	
34.00	-60.527	-116.878	
35.00	-62.774	-126.106	
36.00	-61.814	-149.196	
37.00	-59.825	-152.989	
38.00	-58.357	-147.671	
39.00	-57.796	-132.044	
40.00	-58.466	-115.867	
41.00	-60.427	-93.863	
42.00	-63.682	-56.578	
43.00	-67.271	-24.732	
44.00	-67.762	29.239	
45.00	-68.041	68.410	
46.00	-70.242	106.492	
47.00	-76.674	145.797	
48.00	-81.623	-148.781	
49.00	-77.022	-106.244	
50.00	-75.620	-76.108	
51.00	-70.139	-106.220	
52.00	-66.924	-102.719	
53.00	-64.689	-93.174	
54.00	-62.242	-73.542	
55.00	-61.823	-47.865	
56.00	-61.389	-22.272	
57.00	-61.264	9.568	
58.00	-60.987	43.171	
59.00	-61.500	79.200	
60.00	-61.327	120.128	
61.00	-61.487	144.535	
62.00	-63.002	178.340	
63.00	-66.180	-145.700	
64.00	-69.122	-75.194	
65.00	-65.027	-3.142	
66.00	-60.701	37.492	
67.00	-57.477	65.534	
68.00	-55.668	89.602	
69.00	-54.635	112.773	
70.00	-54.671	138.800	
71.00	-55.212	166.622	
72.00	-55.993	-158.715	
73.00	-55.688	-119.374	
74.00	-54.937	-83.446	
75.00	-53.312	-50.148	
76.00	-52.706	-23.452	
77.00	-52.142	3.382	
78.00	-51.899	30.378	
79.00	-51.686	60.338	
80.00	-51.464	90.353	
81.00	-51.190	119.288	
82.00	-50.820	146.705	
83.00	-50.213	174.493	
84.00	-50.151	-156.952	
85.00	-49.828	-129.881	
86.00	-49.419	-100.910	
87.00	-48.672	-72.882	
88.00	-48.034	-48.444	
89.00	-47.612	-24.031	
90.00	-46.973	-0.299	
91.00	-46.748	21.698	
92.00	-46.672	46.964	
93.00	-46.522	68.278	
94.00	-46.490	92.290	
95.00	-46.660	115.931	
96.00	-47.008	140.687	
97.00	-46.931	165.427	
98.00	-46.648	-171.874	
99.00	-47.018	-146.029	
100.00	-46.794	-121.475	
101.00	-46.947	-91.861	
102.00	-47.102	-65.730	
103.00	-47.323	-43.285	
104.00	-47.816	-21.097	
105.00	-48.550	4.175	
106.00	-48.872	28.199	
107.00	-49.629	52.084	
108.00	-50.092	76.098	
109.00	-50.985	103.081	
110.00	-51.819	126.823	
111.00	-52.733	155.404	
112.00	-53.899	-178.359	
113.00	-54.820	-148.609	
114.00	-55.924	-116.890	
115.00	-56.740	-79.743	
116.00	-56.668	-46.244	
117.00	-56.263	-10.719	
118.00	-54.887	15.537	
119.00	-53.990	37.242	
120.00	-53.420	55.409	
121.00	-53.152	67.583	
122.00	-53.638	77.546	
123.00	-54.322	81.589	
124.00	-55.692	82.886	
125.00	-57.102	77.349	
126.00	-58.472	64.472	
127.00	-58.529	52.830	
128.00	-59.561	43.345	
129.00	-61.024	35.493	
130.00	-62.735	20.799	
131.00	-62.136	1.127	
132.00	-60.736	-17.088	
133.00	-58.426	-16.718	
134.00	-56.277	-11.466	
135.00	-54.730	-0.480	
136.00	-53.281	10.569	
137.00	-52.368	23.300	
138.00	-52.413	35.101	
139.00	-53.016	44.282	
140.00	-54.767	54.960	
141.00	-58.822	66.140	
142.00	-68.855	73.349	
143.00	-67.869	-97.363	
144.00	-59.435	-91.796	
145.00	-56.230	-82.821	
146.00	-55.051	-77.760	
147.00	-55.067	-77.564	
148.00	-56.540	-86.209	
149.00	-58.866	-117.147	
150.00	-55.938	-152.354	
151.00	-52.510	-168.151	
152.00	-50.103	-171.961	
153.00	-48.804	-174.927	
154.00	-48.189	-174.937	
155.00	-48.230	-177.409	
156.00	-48.409	177.949	
157.00	-48.620	169.028	
158.00	-48.649	158.609	
159.00	-48.304	147.540	
160.00	-48.015	139.204	
161.00	-48.118	133.163	
162.00	-48.962	129.394	
163.00	-50.815	127.808	
164.00	-54.145	130.869	
165.00	-58.942	142.579	
166.00	-61.533	-174.917	
167.00	-58.388	-150.436	
168.00	-54.763	-154.366	
169.00	-51.224	-164.864	
170.00	-48.097	-175.112	
171.00	-45.536	177.813	
172.00	-43.777	172.074	
173.00	-42.974	166.932	
174.00	-43.253	161.394	
175.00	-44.878	154.568	
176.00	-48.898	142.963	
177.00	-57.023	83.850	
178.00	-49.697	2.450	
179.00	-44.034	-16.040	
180.00	-41.074	-27.171	
181.00	-39.826	-40.061	
182.00	-39.583	-58.295	
183.00	-39.163	-86.236	
184.00	-37.252	-117.550	
185.00	-34.239	-141.415	
186.00	-31.408	-156.539	
187.00	-29.180	-166.645	
188.00	-27.628	-173.950	
189.00	-26.665	-179.595	
190.00	-26.255	175.901	
191.00	-26.354	172.213	
192.00	-27.032	169.415	
193.00	-28.183	167.635	
194.00	-29.982	167.322	
195.00	-32.389	170.040	
196.00	-35.299	177.557	
197.00	-38.276	-166.773	
198.00	-40.226	-146.702	
199.00	-40.974	-128.692	
200.00	-41.725	-118.494	
201.00	-43.245	-112.662	
202.00	-46.177	-108.465	
203.00	-50.507	-98.271	
204.00	-55.889	-64.628	
205.00	-55.373	-17.646	
206.00	-53.194	-5.512	
207.00	-52.916	-9.430	
208.00	-54.544	-20.658	
209.00	-59.400	-50.304	
210.00	-60.862	-128.887	
211.00	-56.187	-175.650	
212.00	-52.538	163.600	
213.00	-50.913	145.342	
214.00	-50.905	133.190	
215.00	-52.499	118.452	
216.00	-56.707	102.291	
217.00	-66.687	58.093	
218.00	-61.105	-76.427	
219.00	-53.720	-96.427	
220.00	-50.598	-108.897	
221.00	-49.246	-119.405	
222.00	-49.214	-129.113	
223.00	-50.546	-137.071	
224.00	-53.382	-140.090	
225.00	-57.540	-127.940	
226.00	-60.647	-84.428	
227.00	-56.172	-51.654	
228.00	-53.102	-50.334	
229.00	-51.401	-58.712	
230.00	-50.882	-71.542	
231.00	-51.163	-85.560	
232.00	-51.866	-101.989	
233.00	-53.028	-121.197	
234.00	-54.543	-135.928	
235.00	-56.730	-153.842	
236.00	-59.865	-175.068	
237.00	-65.533	169.972	
238.00	-73.339	127.356	
239.00	-74.352	-25.664	
240.00	-66.856	-53.838	
241.00	-63.832	-62.342	
242.00	-63.057	-74.023	
243.00	-64.161	-88.539	
244.00	-65.224	-90.321	
245.00	-66.244	-87.939	
246.00	-67.819	-72.273	
247.00	-66.156	-46.818	
248.00	-63.386	-46.676	
249.00	-61.111	-44.037	
250.00	-60.608	-56.116	
251.00	-59.622	-70.622	
252.00	-59.669	-82.172	
253.00	-60.234	-96.247	
254.00	-61.169	-113.761	
255.00	-62.644	-133.702	
256.00	-64.172	-155.777	
257.00	-65.810	-178.787	
258.00	-67.023	149.678	
259.00	-69.090	114.616	
260.00	-68.947	78.769	
261.00	-68.113	47.549	
262.00	-67.277	23.028	
263.00	-65.294	1.106	
264.00	-64.028	-24.920	
265.00	-62.820	-32.848	
266.00	-61.828	-49.797	
267.00	-62.080	-64.514	
268.00	-61.488	-75.857	
269.00	-61.397	-89.771	
270.00	-61.553	-94.681	
271.00	-61.534	-107.622	
272.00	-61.521	-115.084	
273.00	-61.979	-124.009	
274.00	-63.023	-135.274	
275.00	-64.013	-144.585	
276.00	-65.371	-153.720	
277.00	-66.371	-166.755	
278.00	-67.840	179.297	
279.00	-69.079	163.322	
280.00	-69.541	150.637	
281.00	-71.189	133.798	
282.00	-71.567	124.970	
283.00	-74.571	104.910	
284.00	-76.427	90.266	
285.00	-77.981	60.410	
286.00	-74.236	13.314	
287.00	-71.225	-25.561	
288.00	-69.821	-40.432	
289.00	-68.625	-59.410	
290.00	-68.402	-72.420	
291.00	-69.152	-87.952	
292.00	-68.407	-104.957	
293.00	-70.771	-116.078	
294.00	-72.551	-123.094	
295.00	-75.599	-136.601	
296.00	-82.920	-131.944	
297.00	-78.010	-51.302	
298.00	-74.225	-30.138	
299.00	-71.341	-33.874	
300.00	-68.177	-50.488	
301.00	-68.105	-62.579	
302.00	-70.517	-89.484	
303.00	-71.533	-116.700	
304.00	-73.356	-155.765	
305.00	-71.639	149.382	
306.00	-67.327	108.375	
307.00	-65.228	89.919	
308.00	-64.056	78.004	
309.00	-62.812	62.673	
310.00	-61.376	53.088	
311.00	-60.899	43.996	
312.00	-60.163	39.312	
313.00	-60.398	40.171	
314.00	-60.350	36.788	
315.00	-60.438	38.896	
316.00	-60.486	41.873	
317.00	-60.706	38.379	
318.00	-60.973	38.884	
319.00	-62.474	32.762	
320.00	-64.462	30.730	
321.00	-67.159	12.574	
322.00	-71.622	-24.894	
323.00	-76.827	-68.386	
324.00	-73.030	-112.758	
325.00	-72.326	-149.271	
326.00	-70.187	167.442	
327.00	-67.686	134.008	
328.00	-64.463	106.337	
329.00	-62.600	91.829	
330.00	-60.969	77.219	
331.00	-60.364	65.630	
332.00	-59.950	58.931	
333.00	-60.963	48.047	
334.00	-61.630	41.775	
335.00	-62.572	42.939	
336.00	-62.724	48.680	
337.00	-64.019	51.064	
338.00	-64.127	51.891	
339.00	-66.318	61.794	
340.00	-70.501	61.302	
341.00	-74.110	67.485	
342.00	-84.602	-7.406	
343.00	-74.136	-76.161	
344.00	-73.748	-111.175	
345.00	-70.554	-113.716	
346.00	-69.231	-135.917	
347.00	-69.772	-142.848	
348.00	-69.572	-153.771	
349.00	-70.625	176.324	
350.00	-70.658	147.598	
351.00	-69.349	127.550	
352.00	-66.748	110.936	
353.00	-67.929	103.991	
354.00	-69.703	99.219	
355.00	-72.447	101.986	
356.00	-75.856	95.413	
357.00	-79.746	71.413	
358.00	-91.281	134.635	
359.00	-87.881	134.349	
Frequency	2496.00	MHz	
Channel	test		
Scan Axis name	Azimuth  [deg]		
Scan Axis	Amplitude	Phase	
			
0.00	-66.246	-50.366	
1.00	-64.351	-59.431	
2.00	-63.834	-70.616	
3.00	-64.820	-86.640	
4.00	-66.235	-113.113	
5.00	-67.593	-138.395	
6.00	-67.219	-160.865	
7.00	-66.140	172.587	
8.00	-67.766	166.373	
9.00	-68.399	169.565	
10.00	-66.899	168.523	
11.00	-65.423	176.069	
12.00	-63.252	-176.954	
13.00	-62.056	-174.848	
14.00	-61.862	-168.108	
15.00	-62.082	-160.264	
16.00	-62.876	-153.971	
17.00	-63.459	-142.365	
18.00	-65.241	-121.432	
19.00	-65.826	-90.140	
20.00	-64.429	-51.540	
21.00	-62.401	-19.396	
22.00	-60.887	3.323	
23.00	-60.688	20.156	
24.00	-62.486	34.723	
25.00	-64.742	46.953	
26.00	-70.570	51.247	
27.00	-75.344	-29.460	
28.00	-68.412	-65.620	
29.00	-65.036	-76.589	
30.00	-62.266	-74.201	
31.00	-60.123	-67.144	
32.00	-59.487	-53.741	
33.00	-60.204	-39.600	
34.00	-62.249	-18.267	
35.00	-66.569	1.270	
36.00	-77.591	76.413	
37.00	-68.127	-176.564	
38.00	-62.670	-147.965	
39.00	-59.789	-127.429	
40.00	-60.095	-108.585	
41.00	-60.573	-76.469	
42.00	-62.032	-55.577	
43.00	-65.172	-31.320	
44.00	-70.765	-12.123	
45.00	-80.041	-38.543	
46.00	-78.966	-88.787	
47.00	-73.437	-80.943	
48.00	-69.749	-66.900	
49.00	-70.986	-42.232	
50.00	-74.228	-44.149	
51.00	-78.963	10.924	
52.00	-78.055	-25.162	
53.00	-75.987	-23.406	
54.00	-73.191	-2.164	
55.00	-69.493	38.245	
56.00	-65.952	67.261	
57.00	-63.488	95.637	
58.00	-61.565	127.833	
59.00	-59.755	154.512	
60.00	-59.250	-179.583	
61.00	-59.991	-149.535	
62.00	-61.824	-115.702	
63.00	-63.783	-71.502	
64.00	-62.816	-7.283	
65.00	-60.873	35.653	
66.00	-58.443	69.140	
67.00	-57.918	106.342	
68.00	-57.155	139.643	
69.00	-56.390	-178.914	
70.00	-55.200	-144.335	
71.00	-53.333	-109.991	
72.00	-51.942	-80.456	
73.00	-50.898	-54.137	
74.00	-50.257	-27.546	
75.00	-49.974	-0.487	
76.00	-49.916	26.557	
77.00	-50.020	55.197	
78.00	-50.115	85.456	
79.00	-49.981	116.197	
80.00	-49.567	145.051	
81.00	-49.150	173.791	
82.00	-48.793	-156.496	
83.00	-48.415	-130.779	
84.00	-48.184	-104.941	
85.00	-48.002	-78.179	
86.00	-47.753	-51.884	
87.00	-47.910	-25.698	
88.00	-47.926	0.252	
89.00	-47.736	27.114	
90.00	-47.597	56.208	
91.00	-47.605	82.824	
92.00	-47.025	109.146	
93.00	-46.706	135.617	
94.00	-46.469	159.117	
95.00	-45.996	-176.442	
96.00	-45.476	-154.470	
97.00	-45.373	-131.606	
98.00	-45.280	-109.006	
99.00	-45.206	-85.154	
100.00	-45.273	-62.219	
101.00	-45.276	-29.694	
102.00	-45.347	-3.658	
103.00	-45.439	20.877	
104.00	-45.636	42.508	
105.00	-45.752	67.440	
106.00	-45.992	88.399	
107.00	-46.229	114.116	
108.00	-46.515	134.358	
109.00	-46.818	160.645	
110.00	-47.057	-178.008	
111.00	-47.340	-153.843	
112.00	-47.677	-133.576	
113.00	-48.278	-113.239	
114.00	-49.462	-94.719	
115.00	-50.999	-77.152	
116.00	-53.577	-57.743	
117.00	-57.716	-33.930	
118.00	-63.091	17.058	
119.00	-61.087	84.865	
120.00	-56.770	115.030	
121.00	-54.550	125.132	
122.00	-53.538	133.873	
123.00	-54.016	136.501	
124.00	-54.842	133.570	
125.00	-55.990	131.971	
126.00	-57.731	128.500	
127.00	-60.858	125.378	
128.00	-65.753	133.094	
129.00	-72.882	-151.010	
130.00	-65.889	-92.079	
131.00	-60.602	-81.077	
132.00	-58.670	-70.230	
133.00	-58.856	-63.746	
134.00	-60.768	-58.570	
135.00	-67.796	-48.142	
136.00	-70.676	90.403	
137.00	-61.516	131.176	
138.00	-56.920	149.070	
139.00	-54.798	165.041	
140.00	-53.784	-178.146	
141.00	-53.237	-161.952	
142.00	-53.551	-142.167	
143.00	-54.345	-114.561	
144.00	-54.579	-82.964	
145.00	-54.333	-50.234	
146.00	-52.762	-25.418	
147.00	-51.695	-6.795	
148.00	-51.961	5.414	
149.00	-53.950	16.833	
150.00	-58.579	28.413	
151.00	-74.674	79.697	
152.00	-59.737	-151.732	
153.00	-54.475	-140.094	
154.00	-50.947	-127.623	
155.00	-49.513	-118.823	
156.00	-48.494	-111.275	
157.00	-48.059	-106.650	
158.00	-47.924	-103.775	
159.00	-48.751	-102.934	
160.00	-50.193	-104.098	
161.00	-52.088	-108.228	
162.00	-55.109	-107.451	
163.00	-60.293	-101.072	
164.00	-67.670	-62.776	
165.00	-64.345	18.297	
166.00	-60.678	28.000	
167.00	-60.803	37.106	
168.00	-64.492	27.747	
169.00	-68.705	-98.192	
170.00	-55.817	-121.457	
171.00	-50.167	-126.913	
172.00	-46.807	-128.523	
173.00	-45.005	-130.243	
174.00	-44.274	-132.672	
175.00	-44.800	-136.014	
176.00	-46.650	-139.991	
177.00	-51.124	-151.980	
178.00	-59.016	142.978	
179.00	-51.034	68.639	
180.00	-45.708	51.478	
181.00	-43.241	40.628	
182.00	-42.631	27.258	
183.00	-43.090	6.494	
184.00	-42.787	-27.666	
185.00	-40.477	-61.710	
186.00	-37.234	-83.377	
187.00	-34.629	-96.886	
188.00	-32.805	-105.584	
189.00	-31.674	-112.290	
190.00	-31.157	-117.529	
191.00	-31.281	-122.044	
192.00	-32.083	-125.918	
193.00	-33.498	-128.823	
194.00	-35.748	-129.849	
195.00	-38.753	-127.653	
196.00	-42.824	-119.323	
197.00	-46.730	-95.809	
198.00	-48.358	-66.251	
199.00	-48.743	-47.147	
200.00	-49.769	-39.846	
201.00	-53.066	-38.891	
202.00	-60.860	-24.734	
203.00	-65.787	99.017	
204.00	-56.663	108.370	
205.00	-53.954	105.078	
206.00	-53.736	93.449	
207.00	-54.750	72.460	
208.00	-56.414	38.609	
209.00	-55.860	-4.815	
210.00	-54.545	-35.286	
211.00	-53.329	-55.179	
212.00	-53.726	-68.884	
213.00	-55.339	-75.550	
214.00	-59.625	-76.141	
215.00	-65.005	-38.189	
216.00	-60.963	6.255	
217.00	-57.129	3.551	
218.00	-54.901	-8.545	
219.00	-53.985	-23.943	
220.00	-53.663	-40.446	
221.00	-54.321	-55.282	
222.00	-56.548	-66.911	
223.00	-60.689	-75.176	
224.00	-69.356	-41.369	
225.00	-64.212	34.535	
226.00	-58.319	28.543	
227.00	-55.397	16.464	
228.00	-54.189	-2.376	
229.00	-53.363	-20.560	
230.00	-52.604	-42.173	
231.00	-52.509	-62.359	
232.00	-52.782	-83.410	
233.00	-53.626	-103.797	
234.00	-55.440	-128.256	
235.00	-57.001	-159.243	
236.00	-57.829	164.325	
237.00	-57.190	129.340	
238.00	-56.659	107.213	
239.00	-56.580	89.420	
240.00	-57.323	78.209	
241.00	-58.614	69.795	
242.00	-61.228	72.900	
243.00	-62.340	76.581	
244.00	-61.579	84.141	
245.00	-61.086	84.621	
246.00	-59.472	74.355	
247.00	-57.824	60.764	
248.00	-56.586	47.858	
249.00	-56.057	29.041	
250.00	-56.083	11.339	
251.00	-56.627	-1.849	
252.00	-57.666	-26.084	
253.00	-58.585	-49.531	
254.00	-59.145	-76.442	
255.00	-59.484	-105.411	
256.00	-59.303	-129.843	
257.00	-59.417	-154.803	
258.00	-60.163	-171.555	
259.00	-61.092	169.123	
260.00	-62.404	150.342	
261.00	-65.300	145.837	
262.00	-68.548	113.247	
263.00	-74.882	82.586	
264.00	-76.362	13.300	
265.00	-73.378	-38.137	
266.00	-75.966	-63.143	
267.00	-74.864	-94.988	
268.00	-75.427	-128.961	
269.00	-74.472	-179.833	
270.00	-73.174	151.477	
271.00	-70.769	135.911	
272.00	-70.604	115.924	
273.00	-72.742	103.885	
274.00	-74.412	64.324	
275.00	-77.354	19.744	
276.00	-74.804	-22.079	
277.00	-71.870	-51.785	
278.00	-69.951	-75.296	
279.00	-67.730	-90.603	
280.00	-68.155	-113.564	
281.00	-68.910	-130.173	
282.00	-69.471	-158.238	
283.00	-68.870	167.697	
284.00	-67.158	136.247	
285.00	-65.535	111.872	
286.00	-63.172	88.967	
287.00	-62.257	66.207	
288.00	-61.762	57.257	
289.00	-61.623	34.959	
290.00	-61.573	22.533	
291.00	-61.783	0.721	
292.00	-62.397	-17.743	
293.00	-62.081	-38.406	
294.00	-62.537	-55.428	
295.00	-63.350	-70.042	
296.00	-63.756	-83.508	
297.00	-65.368	-102.534	
298.00	-67.511	-107.055	
299.00	-72.217	-118.013	
300.00	-70.264	-139.308	
301.00	-72.261	-169.393	
302.00	-73.407	-160.554	
303.00	-76.279	-168.343	
304.00	-74.798	-159.378	
305.00	-70.413	-164.763	
306.00	-69.337	-173.427	
307.00	-68.131	171.367	
308.00	-66.642	152.213	
309.00	-65.240	143.311	
310.00	-64.183	124.911	
311.00	-63.335	108.267	
312.00	-62.164	95.524	
313.00	-62.288	85.690	
314.00	-61.852	83.055	
315.00	-62.391	79.750	
316.00	-62.469	81.652	
317.00	-63.503	81.220	
318.00	-65.404	80.619	
319.00	-67.194	81.882	
320.00	-66.950	83.521	
321.00	-70.050	70.054	
322.00	-73.215	53.537	
323.00	-73.716	6.474	
324.00	-71.523	-25.640	
325.00	-67.776	-44.622	
326.00	-65.285	-51.468	
327.00	-65.299	-60.959	
328.00	-65.286	-58.083	
329.00	-66.815	-74.270	
330.00	-71.916	-70.506	
331.00	-76.687	-60.432	
332.00	-80.532	-16.228	
333.00	-74.672	16.366	
334.00	-69.625	7.332	
335.00	-66.387	-0.777	
336.00	-64.393	-6.761	
337.00	-64.151	-12.378	
338.00	-64.639	-16.073	
339.00	-64.591	-16.574	
340.00	-65.399	-13.546	
341.00	-65.652	-6.656	
342.00	-65.180	-3.421	
343.00	-63.763	6.609	
344.00	-62.595	16.402	
345.00	-61.267	25.885	
346.00	-60.273	26.185	
347.00	-60.330	27.595	
348.00	-62.082	29.169	
349.00	-65.079	33.142	
350.00	-68.002	52.347	
351.00	-67.611	100.337	
352.00	-64.647	121.298	
353.00	-62.851	128.061	
354.00	-62.236	126.178	
355.00	-63.049	119.760	
356.00	-64.937	118.466	
357.00	-70.777	106.493	
358.00	-81.148	33.650	
359.00	-75.401	-18.820	
Frequency	2550.00	MHz	
Channel	test		
Scan Axis name	Azimuth  [deg]		
Scan Axis	Amplitude	Phase	
			
0.00	-65.497	-103.976	
1.00	-71.323	-94.479	
2.00	-72.245	-105.654	
3.00	-78.117	-85.710	
4.00	-75.791	-62.413	
5.00	-83.776	-94.101	
6.00	-75.773	55.086	
7.00	-71.509	8.268	
8.00	-67.029	0.806	
9.00	-66.274	5.533	
10.00	-65.287	5.949	
11.00	-65.268	4.498	
12.00	-65.024	2.894	
13.00	-65.994	4.765	
14.00	-65.145	2.669	
15.00	-66.473	-2.725	
16.00	-68.173	-9.583	
17.00	-71.651	-11.428	
18.00	-71.355	-39.079	
19.00	-70.378	-50.095	
20.00	-69.906	-43.572	
21.00	-66.396	-10.895	
22.00	-66.568	20.442	
23.00	-66.405	51.580	
24.00	-64.678	64.393	
25.00	-65.710	72.129	
26.00	-67.763	69.973	
27.00	-69.102	55.999	
28.00	-68.143	26.167	
29.00	-64.623	9.641	
30.00	-62.799	8.811	
31.00	-60.540	14.029	
32.00	-60.067	19.317	
33.00	-59.272	23.429	
34.00	-59.147	39.559	
35.00	-60.425	58.801	
36.00	-63.005	85.884	
37.00	-66.791	139.427	
38.00	-66.542	-147.992	
39.00	-64.576	-97.596	
40.00	-62.645	-62.573	
41.00	-61.663	-24.232	
42.00	-60.940	11.835	
43.00	-59.184	43.527	
44.00	-59.302	70.641	
45.00	-58.648	95.941	
46.00	-59.108	116.575	
47.00	-60.014	135.087	
48.00	-63.047	155.717	
49.00	-66.687	178.079	
50.00	-68.365	-150.783	
51.00	-67.850	-114.904	
52.00	-66.103	-82.473	
53.00	-65.276	-63.919	
54.00	-63.528	-42.995	
55.00	-66.171	-25.474	
56.00	-70.721	-0.757	
57.00	-87.465	48.612	
58.00	-66.547	-166.362	
59.00	-62.863	-144.314	
60.00	-61.375	-120.488	
61.00	-60.967	-91.382	
62.00	-61.188	-58.668	
63.00	-61.099	-16.311	
64.00	-60.618	26.476	
65.00	-59.855	64.722	
66.00	-59.097	97.023	
67.00	-58.605	139.589	
68.00	-58.306	177.695	
69.00	-57.425	-140.266	
70.00	-55.870	-102.980	
71.00	-54.202	-69.036	
72.00	-52.689	-38.951	
73.00	-51.933	-11.439	
74.00	-51.409	16.193	
75.00	-51.268	43.197	
76.00	-51.303	72.821	
77.00	-51.449	103.971	
78.00	-51.568	135.441	
79.00	-51.204	170.025	
80.00	-50.687	-159.255	
81.00	-49.786	-130.171	
82.00	-49.344	-102.201	
83.00	-48.668	-75.340	
84.00	-48.443	-49.032	
85.00	-48.056	-24.226	
86.00	-47.978	2.684	
87.00	-47.780	28.843	
88.00	-47.750	54.665	
89.00	-47.746	82.030	
90.00	-47.471	105.180	
91.00	-47.736	134.880	
92.00	-47.499	159.845	
93.00	-47.068	-173.510	
94.00	-47.119	-144.470	
95.00	-46.519	-120.747	
96.00	-46.477	-94.745	
97.00	-46.108	-72.121	
98.00	-45.612	-47.389	
99.00	-45.314	-21.594	
100.00	-45.210	2.529	
101.00	-45.249	36.943	
102.00	-44.914	63.764	
103.00	-44.613	86.797	
104.00	-44.453	110.137	
105.00	-44.183	135.435	
106.00	-44.022	156.910	
107.00	-43.946	-178.098	
108.00	-43.898	-157.354	
109.00	-43.769	-132.756	
110.00	-43.841	-112.725	
111.00	-43.797	-89.437	
112.00	-44.179	-69.879	
113.00	-44.627	-49.170	
114.00	-45.349	-28.928	
115.00	-46.485	-8.659	
116.00	-48.058	14.692	
117.00	-49.578	41.626	
118.00	-50.921	73.315	
119.00	-51.228	105.710	
120.00	-50.727	133.990	
121.00	-50.213	153.302	
122.00	-50.359	169.643	
123.00	-51.433	178.950	
124.00	-53.553	-172.828	
125.00	-56.737	-164.841	
126.00	-62.843	-160.782	
127.00	-77.625	-145.921	
128.00	-69.712	19.651	
129.00	-62.988	12.094	
130.00	-60.644	9.309	
131.00	-59.563	7.583	
132.00	-59.591	16.250	
133.00	-60.076	27.941	
134.00	-61.605	56.416	
135.00	-61.311	94.162	
136.00	-58.013	130.150	
137.00	-56.061	153.575	
138.00	-53.913	174.576	
139.00	-52.556	-167.206	
140.00	-51.301	-152.274	
141.00	-51.641	-135.867	
142.00	-52.453	-116.560	
143.00	-53.826	-100.125	
144.00	-57.219	-71.553	
145.00	-60.753	-20.837	
146.00	-58.922	30.018	
147.00	-55.373	67.721	
148.00	-53.702	89.497	
149.00	-52.738	113.143	
150.00	-52.237	134.384	
151.00	-52.048	158.960	
152.00	-51.152	-177.874	
153.00	-51.070	-158.103	
154.00	-51.128	-138.519	
155.00	-51.435	-118.553	
156.00	-51.854	-98.886	
157.00	-52.498	-84.231	
158.00	-52.751	-72.015	
159.00	-53.739	-61.540	
160.00	-54.693	-48.809	
161.00	-56.320	-33.445	
162.00	-57.880	-7.114	
163.00	-57.708	25.225	
164.00	-55.325	56.242	
165.00	-52.869	73.135	
166.00	-51.210	86.278	
167.00	-50.569	95.363	
168.00	-51.131	107.652	
169.00	-53.419	126.797	
170.00	-56.397	168.809	
171.00	-54.196	-133.363	
172.00	-49.566	-107.772	
173.00	-46.621	-95.371	
174.00	-45.199	-87.355	
175.00	-45.207	-82.560	
176.00	-46.564	-78.350	
177.00	-50.803	-76.417	
178.00	-65.739	-57.314	
179.00	-52.491	97.195	
180.00	-46.000	94.423	
181.00	-43.620	90.377	
182.00	-42.967	81.161	
183.00	-43.928	61.120	
184.00	-44.173	23.298	
185.00	-41.042	-14.643	
186.00	-37.091	-34.748	
187.00	-34.130	-45.625	
188.00	-32.053	-52.807	
189.00	-30.791	-58.332	
190.00	-30.179	-62.660	
191.00	-30.275	-66.833	
192.00	-30.813	-70.209	
193.00	-32.011	-73.080	
194.00	-33.798	-75.049	
195.00	-36.198	-74.852	
196.00	-39.049	-71.495	
197.00	-42.289	-62.756	
198.00	-45.029	-48.162	
199.00	-46.707	-33.529	
200.00	-47.776	-27.793	
201.00	-49.515	-30.298	
202.00	-52.255	-42.806	
203.00	-55.837	-69.613	
204.00	-57.562	-112.408	
205.00	-59.158	-148.835	
206.00	-60.815	-179.936	
207.00	-66.907	113.985	
208.00	-62.212	29.106	
209.00	-55.016	-3.061	
210.00	-51.322	-22.064	
211.00	-49.155	-35.093	
212.00	-48.391	-48.632	
213.00	-48.655	-62.134	
214.00	-50.409	-75.612	
215.00	-53.233	-92.245	
216.00	-57.906	-116.929	
217.00	-62.903	-171.265	
218.00	-61.561	119.400	
219.00	-58.972	89.788	
220.00	-57.140	68.756	
221.00	-56.337	51.716	
222.00	-56.078	37.897	
223.00	-56.511	32.374	
224.00	-57.063	30.693	
225.00	-57.621	34.304	
226.00	-57.514	38.482	
227.00	-58.127	40.685	
228.00	-58.081	36.984	
229.00	-58.928	28.646	
230.00	-59.579	17.344	
231.00	-61.528	-3.778	
232.00	-62.460	-33.224	
233.00	-63.726	-63.176	
234.00	-63.930	-98.015	
235.00	-63.925	-122.311	
236.00	-63.239	-134.462	
237.00	-64.836	-150.828	
238.00	-63.122	-167.254	
239.00	-63.315	-170.401	
240.00	-62.164	-176.958	
241.00	-61.229	175.629	
242.00	-59.463	174.898	
243.00	-58.476	164.988	
244.00	-57.428	152.690	
245.00	-57.506	138.640	
246.00	-57.754	123.396	
247.00	-58.237	103.835	
248.00	-59.386	78.041	
249.00	-59.700	45.469	
250.00	-60.281	20.341	
251.00	-59.695	-5.664	
252.00	-59.092	-31.143	
253.00	-59.058	-52.473	
254.00	-59.394	-79.303	
255.00	-58.979	-101.890	
256.00	-59.285	-124.006	
257.00	-59.685	-145.539	
258.00	-59.592	-163.888	
259.00	-60.119	173.585	
260.00	-60.946	159.670	
261.00	-61.793	144.077	
262.00	-64.207	125.461	
263.00	-65.778	107.038	
264.00	-66.619	91.138	
265.00	-69.998	82.796	
266.00	-72.046	65.235	
267.00	-77.409	85.023	
268.00	-82.515	129.798	
269.00	-80.888	-171.758	
270.00	-73.928	-175.382	
271.00	-72.750	-165.214	
272.00	-73.282	-154.339	
273.00	-72.457	-163.590	
274.00	-71.148	-151.184	
275.00	-71.789	-151.997	
276.00	-70.387	-153.603	
277.00	-70.129	-163.253	
278.00	-69.587	-166.377	
279.00	-69.584	178.152	
280.00	-69.105	169.076	
281.00	-70.200	157.487	
282.00	-69.953	148.736	
283.00	-71.495	147.559	
284.00	-71.898	161.450	
285.00	-71.406	148.170	
286.00	-70.645	161.883	
287.00	-70.117	153.134	
288.00	-69.865	155.228	
289.00	-68.153	128.291	
290.00	-69.462	135.005	
291.00	-65.971	130.029	
292.00	-64.864	121.808	
293.00	-64.823	109.294	
294.00	-65.667	98.683	
295.00	-65.512	93.510	
296.00	-67.697	87.220	
297.00	-72.430	69.978	
298.00	-75.772	62.610	
299.00	-82.382	98.046	
300.00	-82.661	-115.198	
301.00	-75.806	-140.168	
302.00	-70.088	-148.433	
303.00	-68.267	-172.763	
304.00	-68.114	-164.758	
305.00	-66.836	-168.550	
306.00	-66.919	-161.518	
307.00	-67.241	-172.586	
308.00	-68.526	-165.928	
309.00	-71.253	-140.850	
310.00	-70.083	-123.683	
311.00	-69.420	-116.767	
312.00	-67.424	-105.918	
313.00	-67.995	-105.487	
314.00	-66.474	-121.952	
315.00	-65.644	-133.397	
316.00	-64.945	-154.863	
317.00	-64.807	-164.531	
318.00	-64.967	-172.568	
319.00	-65.508	-177.578	
320.00	-66.451	178.629	
321.00	-67.919	-177.926	
322.00	-68.132	-167.306	
323.00	-67.285	-171.092	
324.00	-67.912	-178.807	
325.00	-67.045	168.358	
326.00	-67.276	153.779	
327.00	-67.366	138.007	
328.00	-68.674	127.792	
329.00	-70.341	116.456	
330.00	-71.023	107.587	
331.00	-71.981	115.010	
332.00	-71.706	133.697	
333.00	-69.493	141.419	
334.00	-68.324	153.825	
335.00	-71.048	157.803	
336.00	-73.335	148.592	
337.00	-74.491	106.722	
338.00	-81.254	46.658	
339.00	-76.954	26.979	
340.00	-78.859	11.536	
341.00	-90.082	133.376	
342.00	-77.507	-150.442	
343.00	-70.989	-168.415	
344.00	-69.762	179.848	
345.00	-72.936	157.658	
346.00	-69.251	131.621	
347.00	-68.484	123.447	
348.00	-67.734	111.022	
349.00	-68.578	120.519	
350.00	-70.483	145.637	
351.00	-76.070	136.104	
352.00	-72.973	-170.963	
353.00	-71.711	-148.068	
354.00	-71.478	-138.685	
355.00	-70.735	-140.648	
356.00	-67.011	-129.905	
357.00	-66.324	-127.201	
358.00	-66.566	-121.479	
359.00	-65.285	-118.079	
Frequency	2600.00	MHz	
Channel	test		
Scan Axis name	Azimuth  [deg]		
Scan Axis	Amplitude	Phase	
			
0.00	-66.182	-111.511	
1.00	-65.350	-106.209	
2.00	-65.515	-110.405	
3.00	-67.321	-110.041	
4.00	-69.709	-109.522	
5.00	-76.774	-117.147	
6.00	-87.615	-14.289	
7.00	-72.608	46.413	
8.00	-67.747	46.976	
9.00	-65.615	51.759	
10.00	-63.815	53.328	
11.00	-64.330	59.154	
12.00	-67.132	66.253	
13.00	-69.620	86.737	
14.00	-88.892	172.846	
15.00	-75.237	-126.597	
16.00	-69.425	-115.829	
17.00	-67.995	-114.860	
18.00	-67.616	-101.568	
19.00	-69.532	-85.559	
20.00	-70.920	-48.617	
21.00	-69.938	-2.912	
22.00	-69.723	24.847	
23.00	-68.255	69.687	
24.00	-67.805	96.118	
25.00	-69.016	122.653	
26.00	-73.093	144.259	
27.00	-79.690	-133.530	
28.00	-75.011	-53.937	
29.00	-69.620	-23.277	
30.00	-67.133	1.475	
31.00	-65.213	27.219	
32.00	-64.446	39.854	
33.00	-63.398	57.225	
34.00	-64.153	84.627	
35.00	-65.355	115.709	
36.00	-63.767	163.026	
37.00	-63.639	-158.569	
38.00	-62.666	-126.286	
39.00	-61.961	-90.205	
40.00	-62.947	-64.642	
41.00	-66.812	-15.130	
42.00	-66.803	59.206	
43.00	-62.881	110.429	
44.00	-60.584	143.968	
45.00	-59.269	166.515	
46.00	-58.547	-166.119	
47.00	-58.870	-143.341	
48.00	-60.494	-120.299	
49.00	-61.939	-99.154	
50.00	-65.445	-85.130	
51.00	-67.595	-74.365	
52.00	-70.487	-65.843	
53.00	-71.446	-71.515	
54.00	-74.112	-69.403	
55.00	-78.268	-86.312	
56.00	-72.989	-117.948	
57.00	-69.738	-119.557	
58.00	-66.920	-109.470	
59.00	-65.302	-80.653	
60.00	-63.307	-48.228	
61.00	-63.494	-9.785	
62.00	-61.519	28.619	
63.00	-59.274	60.578	
64.00	-58.329	93.507	
65.00	-58.061	127.780	
66.00	-57.558	163.628	
67.00	-56.636	-157.077	
68.00	-55.029	-125.191	
69.00	-54.319	-92.398	
70.00	-53.501	-63.050	
71.00	-53.080	-33.925	
72.00	-53.513	-3.523	
73.00	-54.058	31.279	
74.00	-54.270	68.199	
75.00	-54.092	104.374	
76.00	-53.110	139.648	
77.00	-52.305	173.650	
78.00	-51.416	-156.824	
79.00	-50.831	-129.695	
80.00	-50.365	-101.580	
81.00	-50.375	-72.967	
82.00	-50.488	-44.323	
83.00	-50.541	-15.818	
84.00	-50.451	16.440	
85.00	-49.900	45.601	
86.00	-49.543	75.676	
87.00	-48.836	103.168	
88.00	-48.264	131.478	
89.00	-47.686	157.877	
90.00	-47.072	-176.158	
91.00	-46.542	-151.992	
92.00	-46.208	-127.499	
93.00	-45.676	-104.594	
94.00	-45.617	-80.918	
95.00	-45.395	-56.526	
96.00	-45.252	-31.807	
97.00	-44.994	-5.656	
98.00	-44.698	19.327	
99.00	-44.345	43.928	
100.00	-44.018	68.021	
101.00	-43.789	101.651	
102.00	-43.542	128.115	
103.00	-43.373	153.341	
104.00	-42.945	176.646	
105.00	-42.730	-157.799	
106.00	-42.308	-135.328	
107.00	-41.895	-110.001	
108.00	-41.499	-89.912	
109.00	-41.179	-65.413	
110.00	-40.978	-47.225	
111.00	-41.051	-25.205	
112.00	-41.382	-5.724	
113.00	-41.835	15.171	
114.00	-42.556	36.676	
115.00	-43.432	58.828	
116.00	-44.467	83.281	
117.00	-45.518	107.165	
118.00	-46.515	132.906	
119.00	-47.311	157.984	
120.00	-48.479	-176.873	
121.00	-49.591	-154.174	
122.00	-51.314	-130.343	
123.00	-53.631	-107.550	
124.00	-56.604	-79.613	
125.00	-60.274	-41.556	
126.00	-61.892	8.558	
127.00	-60.228	54.097	
128.00	-58.615	74.406	
129.00	-57.152	87.982	
130.00	-56.460	95.763	
131.00	-56.044	105.374	
132.00	-56.243	114.900	
133.00	-55.988	125.924	
134.00	-55.747	146.955	
135.00	-55.850	172.951	
136.00	-54.353	-155.058	
137.00	-52.337	-128.912	
138.00	-50.280	-104.926	
139.00	-48.728	-88.164	
140.00	-47.480	-72.398	
141.00	-47.111	-58.787	
142.00	-47.627	-45.553	
143.00	-48.952	-32.617	
144.00	-51.642	-18.739	
145.00	-56.584	2.458	
146.00	-65.354	68.167	
147.00	-58.691	156.001	
148.00	-53.581	-178.470	
149.00	-51.029	-159.562	
150.00	-49.421	-144.710	
151.00	-48.690	-131.220	
152.00	-48.740	-118.883	
153.00	-49.372	-106.071	
154.00	-50.832	-90.494	
155.00	-52.831	-69.465	
156.00	-54.559	-39.771	
157.00	-54.237	-2.763	
158.00	-52.486	22.749	
159.00	-50.468	40.569	
160.00	-49.250	54.378	
161.00	-48.395	64.826	
162.00	-48.095	77.093	
163.00	-47.964	91.196	
164.00	-47.820	107.834	
165.00	-47.839	123.921	
166.00	-48.071	141.228	
167.00	-48.533	155.862	
168.00	-49.943	171.420	
169.00	-53.285	-166.593	
170.00	-58.674	-117.200	
171.00	-54.453	-38.773	
172.00	-48.492	-12.489	
173.00	-45.136	-1.708	
174.00	-43.262	5.429	
175.00	-42.672	9.818	
176.00	-43.450	12.670	
177.00	-46.254	14.161	
178.00	-52.882	14.352	
179.00	-60.930	-177.258	
180.00	-48.977	-172.917	
181.00	-45.563	-178.102	
182.00	-45.052	169.705	
183.00	-46.142	140.085	
184.00	-43.896	91.181	
185.00	-38.735	63.226	
186.00	-34.609	50.698	
187.00	-31.603	43.686	
188.00	-29.568	39.147	
189.00	-28.318	35.649	
190.00	-27.715	32.837	
191.00	-27.713	30.306	
192.00	-28.298	28.521	
193.00	-29.403	27.198	
194.00	-31.121	27.028	
195.00	-33.385	28.464	
196.00	-36.229	32.826	
197.00	-39.450	42.497	
198.00	-42.434	56.937	
199.00	-44.626	73.954	
200.00	-46.256	85.253	
201.00	-48.456	88.987	
202.00	-51.710	87.659	
203.00	-57.089	76.766	
204.00	-66.238	46.781	
205.00	-69.167	-2.306	
206.00	-67.731	11.733	
207.00	-60.871	48.130	
208.00	-53.848	55.708	
209.00	-49.798	51.655	
210.00	-47.191	44.752	
211.00	-46.131	36.455	
212.00	-45.913	28.999	
213.00	-46.589	18.573	
214.00	-48.601	8.410	
215.00	-51.919	-3.235	
216.00	-58.905	-23.599	
217.00	-67.865	-132.297	
218.00	-57.284	169.718	
219.00	-53.348	151.304	
220.00	-51.493	138.663	
221.00	-50.804	125.526	
222.00	-51.097	114.570	
223.00	-51.990	102.072	
224.00	-53.174	89.978	
225.00	-54.802	81.507	
226.00	-56.484	72.682	
227.00	-58.252	72.179	
228.00	-59.238	75.606	
229.00	-59.383	77.958	
230.00	-59.734	76.971	
231.00	-61.219	75.211	
232.00	-62.129	70.073	
233.00	-63.229	62.468	
234.00	-65.799	54.470	
235.00	-68.133	35.205	
236.00	-68.736	6.922	
237.00	-68.140	-11.497	
238.00	-66.238	-34.372	
239.00	-65.701	-44.649	
240.00	-65.136	-63.798	
241.00	-62.801	-78.192	
242.00	-62.981	-100.744	
243.00	-62.310	-130.011	
244.00	-61.092	-149.066	
245.00	-60.237	-167.692	
246.00	-59.952	172.750	
247.00	-59.385	154.071	
248.00	-59.402	136.720	
249.00	-59.948	115.560	
250.00	-60.153	99.290	
251.00	-60.250	75.835	
252.00	-60.175	53.443	
253.00	-59.932	40.236	
254.00	-60.460	26.454	
255.00	-60.995	11.380	
256.00	-62.112	7.363	
257.00	-64.189	-6.391	
258.00	-67.920	-13.692	
259.00	-71.523	-33.594	
260.00	-77.015	-66.020	
261.00	-75.946	-111.126	
262.00	-73.873	-130.612	
263.00	-72.159	-144.511	
264.00	-75.986	-131.000	
265.00	-76.275	-151.704	
266.00	-86.304	-168.585	
267.00	-79.279	102.543	
268.00	-73.348	70.109	
269.00	-68.139	60.166	
270.00	-67.405	66.797	
271.00	-66.121	56.460	
272.00	-65.439	53.277	
273.00	-67.309	48.731	
274.00	-70.121	43.490	
275.00	-74.864	19.487	
276.00	-79.285	-57.020	
277.00	-72.002	-109.836	
278.00	-67.996	-119.310	
279.00	-66.421	-145.896	
280.00	-66.209	-157.503	
281.00	-65.383	-168.755	
282.00	-65.785	175.908	
283.00	-65.806	156.748	
284.00	-67.296	146.299	
285.00	-66.691	117.070	
286.00	-66.811	101.744	
287.00	-66.262	84.398	
288.00	-67.293	75.067	
289.00	-68.527	71.827	
290.00	-70.569	59.461	
291.00	-72.645	50.905	
292.00	-74.665	68.939	
293.00	-79.973	62.219	
294.00	-87.991	63.896	
295.00	-91.854	41.851	
296.00	-85.578	2.142	
297.00	-75.494	6.376	
298.00	-72.010	14.445	
299.00	-69.819	16.102	
300.00	-67.768	6.824	
301.00	-66.261	3.197	
302.00	-66.453	-5.893	
303.00	-66.842	-17.764	
304.00	-68.007	-33.761	
305.00	-70.758	-52.013	
306.00	-77.773	-72.103	
307.00	-77.630	-111.680	
308.00	-76.835	-177.120	
309.00	-77.280	120.690	
310.00	-80.031	97.890	
311.00	-78.854	20.394	
312.00	-72.765	-30.329	
313.00	-69.172	-52.179	
314.00	-66.810	-68.447	
315.00	-65.225	-87.961	
316.00	-65.534	-108.007	
317.00	-66.716	-124.655	
318.00	-68.196	-139.928	
319.00	-71.213	-162.529	
320.00	-76.979	118.967	
321.00	-74.924	60.360	
322.00	-71.369	25.799	
323.00	-67.898	-2.018	
324.00	-68.558	-18.650	
325.00	-69.141	-41.835	
326.00	-71.708	-81.440	
327.00	-77.785	-118.533	
328.00	-76.100	158.111	
329.00	-71.506	104.061	
330.00	-67.069	74.570	
331.00	-63.185	64.541	
332.00	-61.284	46.788	
333.00	-60.338	35.595	
334.00	-59.753	25.579	
335.00	-60.433	16.103	
336.00	-60.325	1.553	
337.00	-61.164	-6.445	
338.00	-62.698	-8.083	
339.00	-64.182	-4.465	
340.00	-66.782	-3.398	
341.00	-69.449	-7.747	
342.00	-74.731	1.606	
343.00	-78.968	-25.112	
344.00	-72.903	-69.148	
345.00	-70.474	-75.253	
346.00	-73.913	-112.547	
347.00	-74.427	-157.991	
348.00	-70.649	165.224	
349.00	-67.680	152.825	
350.00	-65.475	140.241	
351.00	-66.267	131.049	
352.00	-65.662	115.190	
353.00	-64.420	102.608	
354.00	-64.597	94.256	
355.00	-65.777	100.276	
356.00	-67.797	109.711	
357.00	-71.588	147.380	
358.00	-75.490	-152.649	
359.00	-69.854	-122.326	
Frequency	2650.00	MHz	
Channel	test		
Scan Axis name	Azimuth  [deg]		
Scan Axis	Amplitude	Phase	
			
0.00	-67.589	58.399	
1.00	-66.706	40.162	
2.00	-66.558	16.203	
3.00	-69.182	13.092	
4.00	-71.724	-46.546	
5.00	-70.838	-77.326	
6.00	-71.155	-69.398	
7.00	-74.249	-65.251	
8.00	-67.536	-99.749	
9.00	-96.046	-119.229	
10.00	-101.300	84.161	
11.00	-66.121	70.095	
12.00	-62.256	106.939	
13.00	-62.298	106.569	
14.00	-62.149	127.384	
15.00	-62.345	135.487	
16.00	-67.360	146.703	
17.00	-68.913	161.841	
18.00	-73.360	-174.386	
19.00	-68.640	-71.093	
20.00	-65.436	-64.483	
21.00	-62.554	-31.919	
22.00	-62.319	-1.436	
23.00	-63.097	25.937	
24.00	-62.158	50.793	
25.00	-62.960	81.353	
26.00	-67.613	125.321	
27.00	-74.659	147.081	
28.00	-69.873	-135.103	
29.00	-68.762	-89.063	
30.00	-65.398	-89.545	
31.00	-64.655	-80.720	
32.00	-64.387	-66.554	
33.00	-67.341	-79.683	
34.00	-70.309	-71.412	
35.00	-73.566	-125.496	
36.00	-65.105	-149.626	
37.00	-62.240	-134.392	
38.00	-61.617	-114.167	
39.00	-62.047	-89.974	
40.00	-62.452	-65.605	
41.00	-62.212	-37.899	
42.00	-63.425	-2.250	
43.00	-68.057	53.336	
44.00	-72.227	59.855	
45.00	-80.923	33.795	
46.00	-74.506	-43.026	
47.00	-65.534	-22.766	
48.00	-63.816	-13.785	
49.00	-61.605	24.792	
50.00	-62.540	28.349	
51.00	-62.622	47.145	
52.00	-62.516	71.239	
53.00	-62.520	86.337	
54.00	-64.338	108.149	
55.00	-66.804	125.691	
56.00	-66.078	157.960	
57.00	-68.075	-168.559	
58.00	-68.715	-137.553	
59.00	-67.884	-97.978	
60.00	-68.501	-89.187	
61.00	-74.897	-47.087	
62.00	-75.268	139.214	
63.00	-67.344	149.160	
64.00	-61.817	-177.684	
65.00	-59.808	-157.290	
66.00	-59.022	-133.476	
67.00	-58.844	-103.407	
68.00	-58.632	-72.967	
69.00	-59.680	-30.819	
70.00	-58.505	10.650	
71.00	-57.745	46.677	
72.00	-56.296	85.563	
73.00	-54.858	117.562	
74.00	-54.238	148.259	
75.00	-53.594	177.441	
76.00	-53.003	-152.489	
77.00	-52.414	-124.588	
78.00	-51.796	-96.083	
79.00	-52.021	-66.960	
80.00	-52.405	-38.660	
81.00	-52.491	-7.035	
82.00	-52.164	24.887	
83.00	-51.788	55.581	
84.00	-51.209	83.327	
85.00	-50.504	108.900	
86.00	-50.660	136.050	
87.00	-50.265	163.054	
88.00	-50.075	-171.048	
89.00	-50.145	-143.968	
90.00	-49.801	-117.898	
91.00	-49.528	-90.749	
92.00	-49.222	-62.152	
93.00	-48.930	-35.088	
94.00	-48.646	-9.690	
95.00	-47.834	17.507	
96.00	-47.137	44.906	
97.00	-46.568	67.132	
98.00	-45.810	91.093	
99.00	-45.264	112.994	
100.00	-45.050	135.059	
101.00	-45.016	168.246	
102.00	-44.793	-164.173	
103.00	-43.752	-145.300	
104.00	-43.555	-121.444	
105.00	-42.285	-99.704	
106.00	-42.810	-77.621	
107.00	-42.398	-51.617	
108.00	-42.314	-33.096	
109.00	-41.571	-7.436	
110.00	-41.404	9.572	
111.00	-41.279	31.917	
112.00	-41.151	51.820	
113.00	-41.328	72.704	
114.00	-41.577	92.540	
115.00	-42.105	112.759	
116.00	-42.809	134.362	
117.00	-43.706	156.398	
118.00	-44.728	-178.898	
119.00	-45.603	-155.587	
120.00	-46.402	-128.977	
121.00	-47.381	-108.515	
122.00	-48.655	-84.735	
123.00	-50.812	-65.480	
124.00	-53.505	-45.192	
125.00	-57.986	-21.778	
126.00	-65.988	30.556	
127.00	-64.080	100.332	
128.00	-61.121	133.678	
129.00	-60.789	144.135	
130.00	-61.987	143.911	
131.00	-67.953	114.582	
132.00	-66.767	82.033	
133.00	-64.113	62.666	
134.00	-63.152	56.573	
135.00	-62.573	48.537	
136.00	-62.364	33.475	
137.00	-60.041	7.751	
138.00	-56.455	2.112	
139.00	-53.559	6.286	
140.00	-51.263	13.365	
141.00	-49.846	20.142	
142.00	-49.501	30.769	
143.00	-49.858	40.440	
144.00	-51.609	52.942	
145.00	-54.541	64.623	
146.00	-64.315	70.234	
147.00	-67.339	-102.765	
148.00	-55.650	-84.694	
149.00	-51.924	-82.050	
150.00	-49.800	-72.845	
151.00	-49.037	-64.241	
152.00	-49.222	-58.566	
153.00	-50.613	-51.856	
154.00	-53.540	-46.304	
155.00	-59.581	-33.317	
156.00	-68.881	89.136	
157.00	-56.429	130.112	
158.00	-51.055	133.622	
159.00	-48.514	136.112	
160.00	-47.093	137.420	
161.00	-46.092	141.763	
162.00	-45.749	146.449	
163.00	-46.197	155.145	
164.00	-47.039	168.229	
165.00	-48.027	-173.640	
166.00	-48.506	-153.443	
167.00	-48.878	-133.687	
168.00	-49.051	-118.564	
169.00	-50.095	-110.124	
170.00	-53.398	-109.448	
171.00	-60.853	-131.647	
172.00	-57.373	129.588	
173.00	-50.382	114.815	
174.00	-47.177	111.064	
175.00	-45.976	108.358	
176.00	-46.695	104.755	
177.00	-49.141	101.727	
178.00	-56.986	89.450	
179.00	-59.070	-69.698	
180.00	-49.371	-85.237	
181.00	-45.931	-95.071	
182.00	-44.266	-110.651	
183.00	-43.389	-132.778	
184.00	-41.491	-161.577	
185.00	-38.751	173.527	
186.00	-35.802	156.983	
187.00	-33.434	146.259	
188.00	-31.791	138.707	
189.00	-30.860	133.127	
190.00	-30.548	128.649	
191.00	-30.759	124.983	
192.00	-31.683	122.724	
193.00	-33.115	121.414	
194.00	-35.244	122.245	
195.00	-38.054	126.586	
196.00	-40.997	134.625	
197.00	-44.211	150.064	
198.00	-45.784	168.037	
199.00	-47.755	-179.987	
200.00	-50.014	-175.669	
201.00	-54.025	-177.923	
202.00	-63.832	160.407	
203.00	-62.635	56.500	
204.00	-58.756	36.707	
205.00	-57.770	28.635	
206.00	-59.916	55.092	
207.00	-57.805	95.446	
208.00	-53.865	111.949	
209.00	-50.122	117.817	
210.00	-48.682	113.275	
211.00	-47.886	104.336	
212.00	-48.736	101.307	
213.00	-49.739	95.171	
214.00	-52.053	91.666	
215.00	-56.838	90.959	
216.00	-61.593	114.873	
217.00	-60.171	167.666	
218.00	-55.668	174.666	
219.00	-53.729	163.708	
220.00	-53.870	150.858	
221.00	-53.516	140.738	
222.00	-54.280	126.193	
223.00	-56.448	114.255	
224.00	-58.285	101.906	
225.00	-60.723	92.164	
226.00	-66.062	118.481	
227.00	-68.570	175.020	
228.00	-65.017	173.837	
229.00	-63.006	169.897	
230.00	-62.263	155.862	
231.00	-65.160	138.738	
232.00	-64.831	95.491	
233.00	-63.903	77.417	
234.00	-63.410	61.045	
235.00	-63.007	58.607	
236.00	-61.974	37.718	
237.00	-60.646	32.586	
238.00	-61.711	34.598	
239.00	-60.621	29.744	
240.00	-61.198	10.861	
241.00	-62.036	-14.403	
242.00	-63.096	-35.341	
243.00	-61.234	-66.122	
244.00	-60.084	-88.910	
245.00	-58.857	-101.074	
246.00	-58.333	-121.275	
247.00	-58.461	-138.769	
248.00	-59.500	-152.375	
249.00	-59.098	-173.190	
250.00	-59.030	167.667	
251.00	-61.360	135.658	
252.00	-62.776	115.987	
253.00	-62.377	108.282	
254.00	-62.714	83.192	
255.00	-66.453	95.295	
256.00	-70.808	96.357	
257.00	-69.581	97.981	
258.00	-76.256	87.228	
259.00	-78.164	140.783	
260.00	-76.057	135.418	
261.00	-72.927	128.784	
262.00	-87.591	-178.711	
263.00	-76.435	34.654	
264.00	-73.720	-14.075	
265.00	-74.930	-23.624	
266.00	-72.567	-14.962	
267.00	-85.237	-31.811	
268.00	-73.263	129.645	
269.00	-68.564	119.571	
270.00	-65.256	122.053	
271.00	-62.769	118.944	
272.00	-60.399	101.253	
273.00	-61.867	96.100	
274.00	-61.760	79.140	
275.00	-62.821	66.539	
276.00	-63.400	41.107	
277.00	-62.540	12.044	
278.00	-64.036	-1.786	
279.00	-63.571	-24.288	
280.00	-64.526	-34.991	
281.00	-64.720	-65.529	
282.00	-65.612	-73.899	
283.00	-68.711	-95.408	
284.00	-69.691	-130.520	
285.00	-68.851	-136.587	
286.00	-73.449	-160.535	
287.00	-79.116	-71.496	
288.00	-79.835	-63.484	
289.00	-70.658	-96.268	
290.00	-68.218	-92.644	
291.00	-66.013	-87.905	
292.00	-68.315	-110.261	
293.00	-71.241	-116.548	
294.00	-77.001	-123.502	
295.00	-76.311	-147.922	
296.00	-82.009	159.924	
297.00	-97.120	169.282	
298.00	-75.867	102.068	
299.00	-74.357	114.852	
300.00	-75.253	34.410	
301.00	-68.696	37.115	
302.00	-68.185	32.832	
303.00	-66.889	32.035	
304.00	-67.428	8.675	
305.00	-65.976	51.145	
306.00	-68.530	16.865	
307.00	-66.996	21.554	
308.00	-72.513	37.168	
309.00	-68.750	88.574	
310.00	-69.328	71.029	
311.00	-73.290	78.375	
312.00	-68.300	52.453	
313.00	-69.495	94.897	
314.00	-85.538	-46.968	
315.00	-78.714	166.099	
316.00	-72.286	172.695	
317.00	-70.913	160.211	
318.00	-68.488	179.083	
319.00	-66.155	166.126	
320.00	-64.972	161.635	
321.00	-64.168	149.842	
322.00	-65.548	151.787	
323.00	-68.968	151.865	
324.00	-71.036	150.275	
325.00	-70.979	-113.577	
326.00	-73.135	-93.341	
327.00	-69.561	-75.958	
328.00	-75.885	-65.355	
329.00	-71.225	-72.878	
330.00	-86.087	1.966	
331.00	-72.911	-15.042	
332.00	-76.408	56.146	
333.00	-71.890	-3.227	
334.00	-70.321	62.127	
335.00	-71.344	83.709	
336.00	-74.235	83.692	
337.00	-76.685	99.128	
338.00	-70.991	74.119	
339.00	-73.976	91.827	
340.00	-68.873	46.754	
341.00	-73.532	37.909	
342.00	-75.863	31.442	
343.00	-72.298	-56.732	
344.00	-66.867	-51.670	
345.00	-72.062	-62.809	
346.00	-64.142	-65.720	
347.00	-74.673	-72.128	
348.00	-75.445	-109.471	
349.00	-70.421	-136.627	
350.00	-72.646	147.230	
351.00	-67.470	167.729	
352.00	-67.506	178.873	
353.00	-71.061	162.953	
354.00	-67.922	148.360	
355.00	-64.633	118.282	
356.00	-62.253	129.668	
357.00	-63.420	115.305	
358.00	-71.349	102.275	
359.00	-65.981	87.119	
Frequency	2700.00	MHz	
Channel	test		
Scan Axis name	Azimuth  [deg]		
Scan Axis	Amplitude	Phase	
			
0.00	-64.106	143.152	
1.00	-63.072	126.546	
2.00	-63.304	109.260	
3.00	-64.971	133.703	
4.00	-64.254	146.222	
5.00	-65.788	153.759	
6.00	-72.853	-174.479	
7.00	-75.509	-132.697	
8.00	-69.954	-43.087	
9.00	-70.831	0.458	
10.00	-68.965	22.850	
11.00	-71.974	50.262	
12.00	-67.865	87.220	
13.00	-68.703	112.341	
14.00	-67.710	147.892	
15.00	-67.343	157.987	
16.00	-67.163	174.922	
17.00	-70.395	-147.918	
18.00	-70.390	-145.773	
19.00	-84.470	-155.788	
20.00	-72.399	27.464	
21.00	-64.040	57.223	
22.00	-62.526	69.606	
23.00	-63.426	73.462	
24.00	-62.614	90.918	
25.00	-62.747	130.604	
26.00	-69.672	163.828	
27.00	-72.065	-161.975	
28.00	-68.735	-87.053	
29.00	-68.834	-84.220	
30.00	-68.754	-39.151	
31.00	-70.881	-12.040	
32.00	-68.601	17.122	
33.00	-71.657	68.290	
34.00	-76.343	74.165	
35.00	-70.903	111.450	
36.00	-68.786	-174.205	
37.00	-68.093	-168.557	
38.00	-69.147	-84.583	
39.00	-82.603	37.903	
40.00	-66.967	26.173	
41.00	-69.799	36.831	
42.00	-64.865	92.000	
43.00	-69.360	128.013	
44.00	-65.964	152.905	
45.00	-62.731	177.586	
46.00	-67.223	-149.341	
47.00	-67.302	-161.396	
48.00	-74.871	-156.252	
49.00	-69.343	169.996	
50.00	-67.605	140.477	
51.00	-67.733	156.239	
52.00	-65.060	166.995	
53.00	-65.840	-172.567	
54.00	-69.144	-160.779	
55.00	-70.274	-136.478	
56.00	-75.614	-61.976	
57.00	-73.285	-18.637	
58.00	-68.779	-14.173	
59.00	-70.898	9.192	
60.00	-67.730	84.453	
61.00	-69.763	113.270	
62.00	-67.932	136.712	
63.00	-66.077	-170.890	
64.00	-64.896	-153.566	
65.00	-65.173	-117.391	
66.00	-63.407	-74.231	
67.00	-63.307	-50.514	
68.00	-62.609	-17.099	
69.00	-63.614	25.587	
70.00	-63.429	59.754	
71.00	-62.102	102.350	
72.00	-61.783	129.941	
73.00	-61.014	158.114	
74.00	-61.864	-167.079	
75.00	-62.739	-126.574	
76.00	-63.634	-87.825	
77.00	-63.586	-41.898	
78.00	-60.964	-5.940	
79.00	-59.804	29.595	
80.00	-58.615	58.223	
81.00	-58.031	85.602	
82.00	-57.943	111.833	
83.00	-56.906	144.164	
84.00	-56.408	173.145	
85.00	-55.520	-152.512	
86.00	-54.669	-128.787	
87.00	-54.569	-100.973	
88.00	-54.441	-74.839	
89.00	-52.978	-43.945	
90.00	-52.865	-18.064	
91.00	-53.320	12.445	
92.00	-51.629	34.405	
93.00	-50.824	57.654	
94.00	-50.042	79.100	
95.00	-48.960	103.684	
96.00	-48.449	124.824	
97.00	-47.881	147.066	
98.00	-46.951	172.394	
99.00	-46.744	-167.987	
100.00	-46.178	-145.847	
101.00	-45.986	-115.204	
102.00	-45.766	-90.096	
103.00	-45.308	-66.319	
104.00	-44.834	-45.908	
105.00	-44.264	-21.402	
106.00	-43.806	-0.504	
107.00	-43.276	24.254	
108.00	-42.593	45.229	
109.00	-42.050	67.653	
110.00	-41.398	85.625	
111.00	-40.999	108.512	
112.00	-40.787	128.190	
113.00	-40.670	148.868	
114.00	-40.519	168.747	
115.00	-40.676	-171.350	
116.00	-40.963	-148.994	
117.00	-41.510	-128.777	
118.00	-42.047	-103.397	
119.00	-42.443	-83.322	
120.00	-43.064	-58.165	
121.00	-43.810	-38.184	
122.00	-44.764	-16.359	
123.00	-45.968	3.777	
124.00	-48.020	24.881	
125.00	-50.615	46.725	
126.00	-53.963	76.613	
127.00	-57.681	114.830	
128.00	-57.584	161.445	
129.00	-56.571	-165.581	
130.00	-56.750	-149.303	
131.00	-57.004	-132.291	
132.00	-57.647	-128.849	
133.00	-60.495	-125.173	
134.00	-60.508	-113.579	
135.00	-63.290	-100.726	
136.00	-63.569	-95.758	
137.00	-61.548	-58.002	
138.00	-60.272	-5.014	
139.00	-58.796	35.585	
140.00	-54.246	66.845	
141.00	-53.074	83.156	
142.00	-51.012	100.232	
143.00	-49.204	112.391	
144.00	-49.317	130.509	
145.00	-49.584	147.220	
146.00	-51.148	164.145	
147.00	-54.471	-178.388	
148.00	-59.127	-154.290	
149.00	-64.581	-59.590	
150.00	-58.337	-14.735	
151.00	-53.639	5.327	
152.00	-51.838	16.985	
153.00	-51.757	26.596	
154.00	-52.754	28.795	
155.00	-54.945	32.097	
156.00	-61.155	24.188	
157.00	-72.771	-77.540	
158.00	-62.073	-124.484	
159.00	-55.213	-132.500	
160.00	-52.939	-134.572	
161.00	-51.377	-139.378	
162.00	-50.444	-140.240	
163.00	-50.435	-138.041	
164.00	-51.080	-128.459	
165.00	-52.384	-116.448	
166.00	-55.118	-90.323	
167.00	-56.428	-62.860	
168.00	-55.355	-26.323	
169.00	-54.174	0.206	
170.00	-54.262	11.429	
171.00	-56.768	37.921	
172.00	-60.416	76.870	
173.00	-56.985	143.901	
174.00	-51.892	167.031	
175.00	-49.501	174.104	
176.00	-49.504	177.690	
177.00	-49.927	174.956	
178.00	-52.527	170.652	
179.00	-60.406	151.171	
180.00	-63.348	53.352	
181.00	-55.418	3.537	
182.00	-54.315	-10.701	
183.00	-52.673	-35.183	
184.00	-49.917	-78.560	
185.00	-46.022	-109.704	
186.00	-42.145	-125.437	
187.00	-38.857	-133.547	
188.00	-36.966	-140.720	
189.00	-35.884	-145.276	
190.00	-35.413	-148.692	
191.00	-35.863	-151.036	
192.00	-36.582	-153.742	
193.00	-38.174	-155.255	
194.00	-40.597	-155.820	
195.00	-43.268	-152.258	
196.00	-46.595	-143.654	
197.00	-50.025	-125.555	
198.00	-51.414	-115.813	
199.00	-52.535	-113.057	
200.00	-54.822	-121.598	
201.00	-55.746	-139.371	
202.00	-57.845	-160.263	
203.00	-59.287	-172.780	
204.00	-60.195	169.945	
205.00	-58.935	-178.030	
206.00	-57.386	-145.075	
207.00	-52.452	-134.595	
208.00	-50.411	-138.573	
209.00	-49.009	-143.385	
210.00	-48.114	-147.006	
211.00	-48.408	-149.744	
212.00	-49.269	-153.446	
213.00	-50.985	-153.390	
214.00	-53.996	-147.087	
215.00	-55.603	-138.235	
216.00	-56.250	-123.417	
217.00	-56.135	-115.745	
218.00	-55.982	-120.397	
219.00	-56.819	-142.085	
220.00	-59.049	-168.087	
221.00	-59.489	164.413	
222.00	-61.080	125.415	
223.00	-59.982	84.946	
224.00	-58.572	51.867	
225.00	-59.588	12.685	
226.00	-57.041	-17.524	
227.00	-56.882	-48.953	
228.00	-58.980	-81.549	
229.00	-56.692	-120.316	
230.00	-58.289	-154.226	
231.00	-56.114	-169.568	
232.00	-56.108	159.651	
233.00	-54.041	143.750	
234.00	-54.735	125.545	
235.00	-55.053	110.886	
236.00	-58.061	105.920	
237.00	-60.865	96.059	
238.00	-58.812	101.479	
239.00	-65.784	118.011	
240.00	-66.868	117.685	
241.00	-66.270	119.126	
242.00	-64.747	64.701	
243.00	-66.187	73.461	
244.00	-63.912	22.617	
245.00	-61.237	12.088	
246.00	-62.015	5.348	
247.00	-60.758	-19.456	
248.00	-62.047	-41.651	
249.00	-63.593	-54.521	
250.00	-66.588	-84.885	
251.00	-64.912	-114.208	
252.00	-63.991	-140.113	
253.00	-63.380	-147.492	
254.00	-63.180	-165.469	
255.00	-63.097	-172.058	
256.00	-63.832	-170.620	
257.00	-66.702	179.354	
258.00	-66.232	178.796	
259.00	-65.601	152.614	
260.00	-67.716	142.134	
261.00	-66.899	136.860	
262.00	-69.852	108.977	
263.00	-68.282	90.306	
264.00	-67.694	83.298	
265.00	-72.522	91.245	
266.00	-70.618	47.366	
267.00	-75.422	72.714	
268.00	-79.530	24.552	
269.00	-81.229	135.928	
270.00	-78.159	-168.633	
271.00	-73.370	-172.790	
272.00	-76.092	168.634	
273.00	-79.068	177.480	
274.00	-80.979	160.244	
275.00	-77.139	82.907	
276.00	-78.773	17.685	
277.00	-71.777	2.466	
278.00	-70.655	19.072	
279.00	-69.308	5.929	
280.00	-73.731	-12.792	
281.00	-70.595	-10.935	
282.00	-80.326	-58.607	
283.00	-74.369	-5.500	
284.00	-79.473	70.992	
285.00	-73.622	-28.942	
286.00	-75.264	-63.237	
287.00	-72.536	82.498	
288.00	-78.677	151.065	
289.00	-76.939	128.112	
290.00	-65.183	0.437	
291.00	-75.389	57.095	
292.00	-74.849	101.211	
293.00	-67.537	24.005	
294.00	-78.680	-29.658	
295.00	-78.784	33.227	
296.00	-72.861	2.320	
297.00	-71.975	-30.997	
298.00	-67.027	-21.331	
299.00	-65.850	-39.291	
300.00	-68.252	-64.932	
301.00	-65.603	-71.948	
302.00	-66.311	-93.816	
303.00	-64.233	-87.060	
304.00	-66.683	-118.926	
305.00	-66.197	-106.031	
306.00	-77.140	-131.388	
307.00	-74.490	-69.897	
308.00	-82.295	-61.835	
309.00	-74.737	-15.533	
310.00	-73.843	2.510	
311.00	-79.362	-12.737	
312.00	-78.976	-18.041	
313.00	-78.003	-32.730	
314.00	-87.040	-48.788	
315.00	-101.258	-80.533	
316.00	-98.072	168.066	
317.00	-88.496	177.297	
318.00	-79.434	98.348	
319.00	-86.349	35.324	
320.00	-80.915	-169.227	
321.00	-87.978	-93.634	
322.00	-77.399	-120.725	
323.00	-74.088	-161.185	
324.00	-72.240	-157.365	
325.00	-75.170	142.690	
326.00	-69.890	113.244	
327.00	-67.620	76.250	
328.00	-67.630	68.566	
329.00	-70.028	54.229	
330.00	-70.395	39.140	
331.00	-81.320	31.319	
332.00	-72.986	-102.251	
333.00	-68.896	-166.997	
334.00	-65.540	-161.009	
335.00	-64.527	-176.236	
336.00	-63.828	167.901	
337.00	-64.940	150.449	
338.00	-65.598	128.426	
339.00	-66.920	116.579	
340.00	-70.256	130.812	
341.00	-71.741	77.888	
342.00	-77.480	66.663	
343.00	-70.713	83.134	
344.00	-77.086	81.249	
345.00	-77.262	119.366	
346.00	-74.957	105.445	
347.00	-73.667	50.705	
348.00	-72.696	53.235	
349.00	-73.171	73.994	
350.00	-79.700	-10.212	
351.00	-76.896	-88.602	
352.00	-68.534	-104.711	
353.00	-67.022	-112.549	
354.00	-67.480	-119.182	
355.00	-67.161	-128.640	
356.00	-64.099	-149.544	
357.00	-67.093	-173.915	
358.00	-62.855	169.910	
359.00	-62.677	153.200	
