Test Title:	Alpha Wireless Indoor Range						
Date:	02/11/2017						
Time:	17:21						
Operator Name:	FL						
Comment:	Version 2 Run 2
Cable length changed						
Caib. File Name:	C:\Program Files\Midas 2.01d\Calibration Files\test sigma 180900.cal						
							
[Scan Axis] Name: 	Azimuth  [deg]Start: 	0.000000	Stop	359.000000	Increment	1.000000[Step Axis] Name: 	Start: 	0.000000	Stop	0.000000	Increment	0.000000[Tert] Name: 	None [Forth] Name: 	None  [ Freq.]  (List) 	MHz.	1694.000000	1710.000000	1800.000000	1850.000000	1950.000000	2050.000000	2170.000000	2300.000000	2350.000000	2400.000000	2450.000000	2496.000000	2550.000000	2600.000000	2650.000000	2700.000000
 [Switch]  	None [Channel]  	test			 [ Beam] 	None			
Database:			
First Question			
2nd			
3rd			
4th			
			
Frequency	1694.00	MHz	
Channel	test		
Scan Axis name	Azimuth  [deg]		
Scan Axis	Amplitude	Phase	
			
0.00	-54.961	136.712	
1.00	-58.883	151.993	
2.00	-62.038	159.075	
3.00	-65.355	-152.064	
4.00	-62.430	-98.510	
5.00	-58.431	-101.346	
6.00	-56.873	-87.526	
7.00	-56.132	-95.675	
8.00	-55.598	-95.059	
9.00	-56.807	-95.560	
10.00	-59.484	-106.820	
11.00	-61.627	-102.471	
12.00	-66.256	-112.982	
13.00	-65.590	-161.173	
14.00	-67.179	-172.026	
15.00	-66.026	165.399	
16.00	-66.831	177.506	
17.00	-68.678	-141.076	
18.00	-65.519	-125.039	
19.00	-61.618	-91.313	
20.00	-58.393	-81.577	
21.00	-56.512	-77.626	
22.00	-55.013	-72.525	
23.00	-54.348	-68.587	
24.00	-53.904	-61.550	
25.00	-54.252	-55.419	
26.00	-54.636	-49.623	
27.00	-55.731	-43.673	
28.00	-56.782	-34.869	
29.00	-58.194	-26.604	
30.00	-60.000	-16.312	
31.00	-61.128	-7.853	
32.00	-64.060	-9.842	
33.00	-65.412	-9.729	
34.00	-67.011	-3.443	
35.00	-65.601	0.605	
36.00	-67.055	-0.585	
37.00	-65.324	0.101	
38.00	-65.396	19.251	
39.00	-63.755	40.006	
40.00	-61.912	52.442	
41.00	-60.302	64.210	
42.00	-58.731	78.274	
43.00	-57.432	92.593	
44.00	-56.695	102.944	
45.00	-55.763	111.819	
46.00	-55.815	121.009	
47.00	-55.691	127.236	
48.00	-55.998	134.077	
49.00	-56.665	137.644	
50.00	-57.542	146.770	
51.00	-60.947	142.989	
52.00	-62.891	136.241	
53.00	-68.152	110.565	
54.00	-65.829	64.434	
55.00	-62.319	42.403	
56.00	-59.045	35.617	
57.00	-57.063	39.640	
58.00	-56.019	41.518	
59.00	-55.149	43.491	
60.00	-54.923	49.092	
61.00	-55.024	54.307	
62.00	-55.259	65.975	
63.00	-55.828	70.444	
64.00	-57.118	87.264	
65.00	-58.321	93.741	
66.00	-59.750	113.664	
67.00	-60.635	133.098	
68.00	-61.791	155.910	
69.00	-62.207	178.128	
70.00	-61.966	-161.897	
71.00	-61.804	-139.693	
72.00	-62.240	-127.096	
73.00	-62.586	-113.107	
74.00	-64.147	-91.927	
75.00	-65.574	-65.440	
76.00	-66.324	-37.353	
77.00	-65.078	8.004	
78.00	-62.059	28.511	
79.00	-59.584	47.263	
80.00	-58.793	60.313	
81.00	-57.149	68.477	
82.00	-56.598	79.179	
83.00	-56.905	88.589	
84.00	-56.652	101.098	
85.00	-57.002	110.027	
86.00	-57.121	129.021	
87.00	-57.713	147.945	
88.00	-58.292	160.935	
89.00	-56.727	-179.185	
90.00	-56.399	-155.605	
91.00	-55.966	-145.887	
92.00	-56.094	-135.474	
93.00	-55.223	-127.106	
94.00	-55.098	-123.768	
95.00	-54.400	-101.333	
96.00	-56.345	-96.449	
97.00	-56.936	-85.681	
98.00	-58.438	-73.906	
99.00	-59.351	-65.371	
100.00	-60.062	-47.221	
101.00	-61.069	-28.410	
102.00	-62.341	-0.116	
103.00	-62.860	17.223	
104.00	-62.767	32.277	
105.00	-62.966	46.555	
106.00	-62.808	58.572	
107.00	-63.180	74.561	
108.00	-63.521	78.218	
109.00	-61.670	86.036	
110.00	-60.991	87.906	
111.00	-60.095	87.683	
112.00	-58.818	92.096	
113.00	-56.982	89.624	
114.00	-55.888	89.575	
115.00	-54.160	92.459	
116.00	-53.040	95.747	
117.00	-51.781	100.339	
118.00	-50.890	102.215	
119.00	-49.920	109.231	
120.00	-49.371	114.043	
121.00	-48.715	119.787	
122.00	-48.416	126.436	
123.00	-48.406	131.583	
124.00	-48.027	138.388	
125.00	-48.516	144.783	
126.00	-48.808	151.895	
127.00	-49.322	159.356	
128.00	-50.656	164.643	
129.00	-52.014	172.143	
130.00	-54.056	179.559	
131.00	-57.872	-174.480	
132.00	-66.889	-168.487	
133.00	-68.738	27.724	
134.00	-57.250	32.367	
135.00	-52.184	38.112	
136.00	-48.955	45.729	
137.00	-46.511	53.161	
138.00	-44.639	59.704	
139.00	-43.086	67.190	
140.00	-41.781	74.866	
141.00	-40.902	82.036	
142.00	-40.252	88.841	
143.00	-39.865	95.355	
144.00	-39.810	102.438	
145.00	-40.069	108.704	
146.00	-40.515	115.658	
147.00	-41.637	121.429	
148.00	-43.113	126.990	
149.00	-45.266	132.869	
150.00	-48.375	138.595	
151.00	-54.069	146.033	
152.00	-70.161	-171.030	
153.00	-58.290	-48.952	
154.00	-51.938	-38.411	
155.00	-49.503	-37.068	
156.00	-48.441	-40.060	
157.00	-48.172	-42.938	
158.00	-48.196	-52.231	
159.00	-48.249	-66.442	
160.00	-47.454	-81.432	
161.00	-46.298	-95.435	
162.00	-44.857	-102.491	
163.00	-43.851	-106.939	
164.00	-43.473	-108.391	
165.00	-43.493	-107.106	
166.00	-44.770	-103.087	
167.00	-47.180	-96.178	
168.00	-51.993	-63.430	
169.00	-51.670	8.237	
170.00	-45.376	40.581	
171.00	-40.665	51.047	
172.00	-37.809	56.152	
173.00	-35.843	59.152	
174.00	-34.563	61.969	
175.00	-33.924	63.833	
176.00	-33.887	65.891	
177.00	-34.713	67.552	
178.00	-36.559	70.093	
179.00	-40.561	76.705	
180.00	-50.621	112.523	
181.00	-43.242	-137.397	
182.00	-35.765	-126.869	
183.00	-31.643	-123.813	
184.00	-28.835	-123.255	
185.00	-26.874	-123.828	
186.00	-25.472	-125.031	
187.00	-24.503	-126.710	
188.00	-23.914	-128.728	
189.00	-23.664	-131.182	
190.00	-23.677	-133.862	
191.00	-24.053	-137.221	
192.00	-24.704	-140.955	
193.00	-25.724	-144.726	
194.00	-27.088	-149.931	
195.00	-28.906	-155.718	
196.00	-31.244	-162.075	
197.00	-34.357	-171.133	
198.00	-39.251	177.789	
199.00	-45.117	136.001	
200.00	-46.004	62.171	
201.00	-41.224	30.662	
202.00	-38.747	16.129	
203.00	-37.629	6.342	
204.00	-37.342	-2.733	
205.00	-37.848	-10.192	
206.00	-38.733	-16.270	
207.00	-40.734	-24.658	
208.00	-43.467	-33.326	
209.00	-48.102	-47.301	
210.00	-56.465	-89.345	
211.00	-54.744	179.288	
212.00	-49.316	149.645	
213.00	-46.574	136.977	
214.00	-45.205	128.578	
215.00	-44.746	120.577	
216.00	-44.996	114.223	
217.00	-45.767	112.157	
218.00	-46.517	107.697	
219.00	-48.277	112.895	
220.00	-49.321	110.105	
221.00	-49.913	118.348	
222.00	-53.625	155.884	
223.00	-51.466	142.797	
224.00	-49.509	150.015	
225.00	-48.886	142.339	
226.00	-47.688	134.649	
227.00	-48.158	133.154	
228.00	-48.453	123.288	
229.00	-48.545	118.033	
230.00	-48.845	112.245	
231.00	-49.784	105.912	
232.00	-51.281	99.785	
233.00	-53.109	97.451	
234.00	-55.393	98.730	
235.00	-57.176	102.904	
236.00	-59.617	116.410	
237.00	-59.992	138.854	
238.00	-59.273	156.697	
239.00	-57.597	157.218	
240.00	-56.114	164.712	
241.00	-55.865	165.251	
242.00	-55.058	167.038	
243.00	-55.760	166.317	
244.00	-55.998	166.186	
245.00	-56.045	168.154	
246.00	-56.054	167.988	
247.00	-56.919	177.403	
248.00	-56.858	-179.277	
249.00	-56.748	-172.870	
250.00	-56.202	-171.790	
251.00	-56.630	-170.391	
252.00	-56.576	-169.651	
253.00	-57.327	-168.772	
254.00	-58.184	-170.185	
255.00	-59.667	-164.772	
256.00	-61.423	-160.727	
257.00	-65.200	-149.556	
258.00	-63.871	-122.869	
259.00	-62.955	-94.212	
260.00	-58.773	-83.128	
261.00	-59.122	-80.768	
262.00	-58.189	-87.540	
263.00	-56.287	-82.401	
264.00	-56.446	-91.325	
265.00	-55.901	-99.870	
266.00	-55.678	-106.909	
267.00	-55.732	-119.899	
268.00	-55.996	-130.210	
269.00	-55.801	-147.144	
270.00	-55.757	-161.195	
271.00	-55.041	-175.577	
272.00	-54.289	171.565	
273.00	-53.781	157.147	
274.00	-53.149	146.357	
275.00	-52.633	136.040	
276.00	-52.506	126.383	
277.00	-52.486	112.947	
278.00	-53.058	105.484	
279.00	-53.015	92.519	
280.00	-53.059	78.383	
281.00	-53.815	65.876	
282.00	-54.130	53.690	
283.00	-54.649	40.645	
284.00	-54.906	24.152	
285.00	-55.613	7.548	
286.00	-55.487	-11.953	
287.00	-56.048	-39.472	
288.00	-56.323	-54.396	
289.00	-56.280	-69.924	
290.00	-56.934	-85.220	
291.00	-57.557	-105.341	
292.00	-57.282	-114.852	
293.00	-58.785	-132.118	
294.00	-59.941	-152.537	
295.00	-60.377	-174.553	
296.00	-59.635	169.299	
297.00	-60.323	141.720	
298.00	-60.755	122.914	
299.00	-59.837	100.615	
300.00	-58.698	88.398	
301.00	-57.307	69.979	
302.00	-55.938	62.116	
303.00	-55.080	48.769	
304.00	-54.701	37.381	
305.00	-53.452	31.207	
306.00	-52.821	23.224	
307.00	-52.196	13.654	
308.00	-52.325	4.807	
309.00	-51.886	-2.239	
310.00	-52.089	-12.254	
311.00	-52.207	-21.366	
312.00	-52.503	-32.948	
313.00	-53.202	-44.737	
314.00	-54.028	-59.166	
315.00	-54.729	-76.338	
316.00	-55.704	-93.856	
317.00	-56.126	-114.805	
318.00	-56.468	-132.985	
319.00	-56.518	-153.386	
320.00	-56.360	-171.815	
321.00	-56.658	174.329	
322.00	-57.203	159.165	
323.00	-57.416	144.540	
324.00	-58.513	132.669	
325.00	-60.117	118.799	
326.00	-62.598	107.555	
327.00	-65.529	86.212	
328.00	-66.366	58.878	
329.00	-69.774	9.524	
330.00	-67.894	-27.382	
331.00	-64.661	-57.165	
332.00	-61.916	-74.893	
333.00	-59.298	-85.583	
334.00	-57.878	-100.689	
335.00	-56.486	-105.569	
336.00	-56.252	-115.769	
337.00	-55.493	-121.130	
338.00	-55.932	-131.759	
339.00	-56.511	-137.724	
340.00	-57.245	-151.428	
341.00	-57.906	-156.404	
342.00	-58.824	-174.462	
343.00	-58.690	161.637	
344.00	-60.643	145.914	
345.00	-60.737	141.414	
346.00	-60.408	114.383	
347.00	-60.760	101.784	
348.00	-60.800	100.705	
349.00	-61.015	98.064	
350.00	-59.520	99.286	
351.00	-59.416	118.210	
352.00	-58.036	127.932	
353.00	-55.685	135.414	
354.00	-54.950	138.483	
355.00	-53.237	145.812	
356.00	-52.492	140.226	
357.00	-52.300	140.140	
358.00	-52.936	139.865	
359.00	-54.089	136.330	
Frequency	1710.00	MHz	
Channel	test		
Scan Axis name	Azimuth  [deg]		
Scan Axis	Amplitude	Phase	
			
0.00	-54.604	65.006	
1.00	-56.580	64.659	
2.00	-60.020	62.500	
3.00	-72.753	59.970	
4.00	-71.689	-151.804	
5.00	-65.160	-140.617	
6.00	-61.742	-119.914	
7.00	-59.458	-124.290	
8.00	-58.299	-116.109	
9.00	-57.495	-108.653	
10.00	-58.498	-104.490	
11.00	-61.483	-91.001	
12.00	-63.215	-102.870	
13.00	-60.578	-94.780	
14.00	-66.621	-69.077	
15.00	-65.289	-46.021	
16.00	-67.416	-43.613	
17.00	-67.265	-27.464	
18.00	-67.723	-53.676	
19.00	-66.006	-34.873	
20.00	-66.426	-49.321	
21.00	-66.200	-63.730	
22.00	-63.077	-72.699	
23.00	-69.793	-78.028	
24.00	-66.515	-64.572	
25.00	-67.575	-88.268	
26.00	-73.504	-77.985	
27.00	-82.107	-135.369	
28.00	-72.179	148.128	
29.00	-64.822	126.821	
30.00	-61.863	122.580	
31.00	-58.527	127.216	
32.00	-56.796	130.626	
33.00	-56.654	130.103	
34.00	-56.252	133.623	
35.00	-56.703	134.929	
36.00	-58.254	138.888	
37.00	-61.352	138.507	
38.00	-65.519	140.461	
39.00	-71.746	77.617	
40.00	-68.694	-17.868	
41.00	-62.114	-6.982	
42.00	-58.639	-5.096	
43.00	-57.134	-2.879	
44.00	-56.680	-2.844	
45.00	-56.060	-2.605	
46.00	-56.341	1.542	
47.00	-56.409	2.472	
48.00	-57.235	-0.527	
49.00	-57.110	0.137	
50.00	-57.912	3.116	
51.00	-58.237	1.653	
52.00	-57.959	-0.157	
53.00	-57.497	7.549	
54.00	-58.044	4.126	
55.00	-58.115	7.044	
56.00	-57.621	5.066	
57.00	-57.767	6.638	
58.00	-56.950	3.531	
59.00	-56.289	-1.640	
60.00	-55.577	-3.006	
61.00	-56.049	-2.988	
62.00	-55.192	-6.623	
63.00	-55.029	-7.059	
64.00	-55.390	-13.118	
65.00	-55.021	-19.091	
66.00	-55.337	-21.152	
67.00	-56.019	-29.790	
68.00	-56.437	-39.946	
69.00	-55.957	-48.597	
70.00	-54.887	-56.276	
71.00	-53.946	-68.826	
72.00	-53.134	-74.388	
73.00	-51.882	-76.122	
74.00	-51.092	-76.029	
75.00	-50.237	-74.496	
76.00	-50.012	-69.960	
77.00	-49.774	-64.299	
78.00	-49.693	-59.712	
79.00	-49.671	-54.672	
80.00	-49.880	-45.804	
81.00	-50.294	-37.466	
82.00	-50.452	-26.189	
83.00	-51.260	-17.967	
84.00	-51.275	-3.795	
85.00	-52.291	6.161	
86.00	-52.513	19.599	
87.00	-52.931	35.112	
88.00	-53.159	47.627	
89.00	-52.934	63.970	
90.00	-53.704	76.127	
91.00	-54.337	94.264	
92.00	-54.254	110.675	
93.00	-53.409	132.247	
94.00	-54.664	145.357	
95.00	-53.524	152.296	
96.00	-53.414	169.891	
97.00	-53.154	-174.164	
98.00	-53.001	-165.627	
99.00	-52.221	-148.854	
100.00	-52.142	-139.829	
101.00	-54.170	-147.878	
102.00	-55.430	-116.982	
103.00	-55.571	-106.419	
104.00	-57.650	-99.798	
105.00	-62.121	-84.376	
106.00	-66.979	-27.396	
107.00	-67.275	21.470	
108.00	-62.006	63.523	
109.00	-59.570	85.546	
110.00	-56.403	92.945	
111.00	-54.985	102.869	
112.00	-53.766	109.061	
113.00	-53.260	118.808	
114.00	-53.531	121.373	
115.00	-54.343	131.869	
116.00	-55.965	139.703	
117.00	-57.995	149.118	
118.00	-62.060	170.080	
119.00	-67.953	-149.976	
120.00	-66.890	-70.895	
121.00	-62.089	-37.483	
122.00	-59.109	-23.744	
123.00	-56.891	-5.980	
124.00	-55.548	8.922	
125.00	-54.965	23.470	
126.00	-54.496	38.853	
127.00	-54.090	56.786	
128.00	-53.680	70.329	
129.00	-53.621	87.387	
130.00	-54.066	101.744	
131.00	-55.188	117.088	
132.00	-57.237	133.691	
133.00	-61.411	166.741	
134.00	-64.117	-115.117	
135.00	-56.688	-62.477	
136.00	-51.264	-41.845	
137.00	-47.617	-28.721	
138.00	-45.097	-18.213	
139.00	-43.002	-8.363	
140.00	-41.532	1.476	
141.00	-40.463	10.083	
142.00	-39.704	19.502	
143.00	-39.313	28.665	
144.00	-39.186	38.213	
145.00	-39.280	47.433	
146.00	-39.698	57.722	
147.00	-40.503	67.858	
148.00	-41.506	77.830	
149.00	-43.180	88.069	
150.00	-45.103	100.377	
151.00	-47.979	115.666	
152.00	-51.992	137.200	
153.00	-55.889	-177.749	
154.00	-55.741	-125.824	
155.00	-52.974	-90.398	
156.00	-52.009	-75.327	
157.00	-52.502	-63.444	
158.00	-53.766	-47.775	
159.00	-58.333	-28.711	
160.00	-63.798	51.334	
161.00	-55.094	117.775	
162.00	-50.303	130.782	
163.00	-47.382	144.810	
164.00	-45.387	152.127	
165.00	-44.375	158.998	
166.00	-44.261	168.094	
167.00	-45.283	179.091	
168.00	-46.823	-163.830	
169.00	-49.197	-128.694	
170.00	-47.764	-85.212	
171.00	-43.988	-55.520	
172.00	-40.605	-40.964	
173.00	-38.253	-32.453	
174.00	-36.566	-26.420	
175.00	-35.663	-22.394	
176.00	-35.390	-18.806	
177.00	-35.831	-16.325	
178.00	-37.247	-14.013	
179.00	-40.452	-11.412	
180.00	-48.442	-9.844	
181.00	-49.337	165.596	
182.00	-38.731	169.651	
183.00	-33.842	170.371	
184.00	-30.701	170.641	
185.00	-28.530	170.426	
186.00	-26.986	169.953	
187.00	-25.896	169.092	
188.00	-25.233	168.060	
189.00	-24.898	166.717	
190.00	-24.884	165.256	
191.00	-25.190	163.626	
192.00	-25.784	161.817	
193.00	-26.706	160.044	
194.00	-27.984	158.444	
195.00	-29.685	156.831	
196.00	-31.820	156.449	
197.00	-34.684	158.427	
198.00	-38.418	164.647	
199.00	-42.745	-179.779	
200.00	-45.516	-139.805	
201.00	-44.500	-105.922	
202.00	-42.459	-93.036	
203.00	-42.136	-88.655	
204.00	-42.687	-86.554	
205.00	-44.603	-84.132	
206.00	-48.788	-77.734	
207.00	-57.029	-30.513	
208.00	-50.635	47.661	
209.00	-44.695	58.303	
210.00	-41.475	58.001	
211.00	-39.539	56.331	
212.00	-38.454	53.628	
213.00	-38.020	49.725	
214.00	-38.122	46.192	
215.00	-38.554	42.536	
216.00	-39.532	39.950	
217.00	-40.880	37.692	
218.00	-42.608	38.948	
219.00	-44.777	40.808	
220.00	-46.798	50.224	
221.00	-47.738	66.802	
222.00	-49.432	68.555	
223.00	-47.411	88.730	
224.00	-45.872	90.371	
225.00	-45.352	84.268	
226.00	-44.461	78.913	
227.00	-45.062	69.550	
228.00	-44.691	60.519	
229.00	-45.280	50.114	
230.00	-45.495	40.475	
231.00	-46.571	29.688	
232.00	-47.355	19.018	
233.00	-48.386	8.751	
234.00	-50.098	-0.389	
235.00	-52.178	-10.952	
236.00	-54.138	-17.278	
237.00	-57.643	-30.678	
238.00	-62.293	-33.004	
239.00	-68.816	-38.286	
240.00	-87.687	-15.690	
241.00	-79.430	105.321	
242.00	-71.931	101.639	
243.00	-73.447	72.202	
244.00	-76.556	16.352	
245.00	-72.551	-20.405	
246.00	-70.146	-69.972	
247.00	-66.798	-70.599	
248.00	-63.881	-83.629	
249.00	-63.524	-91.778	
250.00	-61.757	-93.556	
251.00	-62.436	-98.845	
252.00	-61.051	-105.274	
253.00	-62.057	-103.109	
254.00	-62.119	-104.486	
255.00	-62.863	-104.504	
256.00	-62.571	-89.192	
257.00	-61.422	-98.251	
258.00	-60.277	-82.614	
259.00	-59.232	-85.265	
260.00	-58.144	-84.877	
261.00	-58.516	-94.550	
262.00	-57.679	-95.630	
263.00	-56.490	-94.171	
264.00	-56.372	-102.265	
265.00	-56.394	-106.699	
266.00	-56.994	-111.356	
267.00	-57.309	-116.115	
268.00	-59.415	-118.066	
269.00	-60.076	-116.879	
270.00	-65.564	-116.029	
271.00	-68.816	-100.902	
272.00	-73.173	-69.910	
273.00	-65.965	-20.064	
274.00	-61.793	-10.009	
275.00	-59.582	-12.323	
276.00	-57.995	-16.793	
277.00	-56.493	-25.325	
278.00	-55.550	-33.863	
279.00	-54.759	-42.796	
280.00	-54.147	-51.659	
281.00	-53.716	-62.930	
282.00	-53.323	-73.896	
283.00	-53.086	-84.822	
284.00	-52.689	-94.984	
285.00	-52.575	-107.323	
286.00	-52.523	-117.337	
287.00	-52.835	-133.366	
288.00	-53.340	-145.623	
289.00	-53.946	-157.972	
290.00	-55.057	-166.375	
291.00	-56.183	-178.169	
292.00	-57.379	172.574	
293.00	-59.255	153.267	
294.00	-63.172	138.246	
295.00	-66.185	111.392	
296.00	-70.878	46.491	
297.00	-64.917	-12.219	
298.00	-62.050	-25.269	
299.00	-59.607	-41.682	
300.00	-57.226	-50.665	
301.00	-56.369	-58.750	
302.00	-55.400	-64.415	
303.00	-54.991	-72.115	
304.00	-55.112	-78.508	
305.00	-54.940	-85.567	
306.00	-54.853	-93.196	
307.00	-55.291	-100.339	
308.00	-54.508	-108.064	
309.00	-53.961	-114.133	
310.00	-53.756	-125.632	
311.00	-53.460	-131.429	
312.00	-52.702	-144.102	
313.00	-52.294	-149.566	
314.00	-52.251	-158.051	
315.00	-51.588	-165.843	
316.00	-52.106	-174.337	
317.00	-52.394	176.749	
318.00	-52.743	167.512	
319.00	-54.423	161.672	
320.00	-55.012	154.245	
321.00	-56.249	145.272	
322.00	-57.268	134.820	
323.00	-59.656	126.260	
324.00	-61.031	125.008	
325.00	-61.322	106.380	
326.00	-63.955	91.405	
327.00	-70.154	86.937	
328.00	-73.449	1.747	
329.00	-71.876	-4.552	
330.00	-64.948	-60.713	
331.00	-61.992	-74.080	
332.00	-60.066	-80.939	
333.00	-57.807	-93.908	
334.00	-56.060	-102.363	
335.00	-55.191	-113.881	
336.00	-54.816	-123.446	
337.00	-56.541	-124.039	
338.00	-57.005	-127.560	
339.00	-57.795	-128.985	
340.00	-57.808	-133.105	
341.00	-61.196	-130.951	
342.00	-61.155	-97.747	
343.00	-60.912	-89.143	
344.00	-61.855	-64.789	
345.00	-60.251	-50.631	
346.00	-60.102	-42.707	
347.00	-58.114	-62.867	
348.00	-60.055	-49.272	
349.00	-61.443	-58.292	
350.00	-62.097	-43.887	
351.00	-68.725	-3.457	
352.00	-65.474	50.756	
353.00	-61.672	74.322	
354.00	-55.938	83.030	
355.00	-53.424	78.214	
356.00	-53.795	78.072	
357.00	-54.201	73.811	
358.00	-52.444	70.389	
359.00	-54.390	69.360	
Frequency	1800.00	MHz	
Channel	test		
Scan Axis name	Azimuth  [deg]		
Scan Axis	Amplitude	Phase	
			
0.00	-58.186	-9.483	
1.00	-56.347	-10.660	
2.00	-55.079	-16.151	
3.00	-55.823	-18.177	
4.00	-56.913	-19.331	
5.00	-58.743	-21.604	
6.00	-61.341	-32.790	
7.00	-64.738	-51.292	
8.00	-71.971	-92.643	
9.00	-66.700	-128.415	
10.00	-65.414	-155.810	
11.00	-61.869	-158.118	
12.00	-64.120	-141.723	
13.00	-65.434	-138.191	
14.00	-63.821	-101.888	
15.00	-62.648	-96.336	
16.00	-61.209	-89.066	
17.00	-58.988	-79.027	
18.00	-57.506	-73.447	
19.00	-57.585	-74.201	
20.00	-57.802	-76.226	
21.00	-55.983	-80.158	
22.00	-58.594	-80.678	
23.00	-58.656	-94.663	
24.00	-58.831	-114.684	
25.00	-60.252	-134.393	
26.00	-59.264	-168.589	
27.00	-59.744	-167.194	
28.00	-58.295	168.901	
29.00	-57.858	166.742	
30.00	-55.477	150.972	
31.00	-54.333	141.194	
32.00	-52.730	139.910	
33.00	-52.828	136.986	
34.00	-52.235	137.735	
35.00	-51.632	134.980	
36.00	-52.340	141.092	
37.00	-51.969	142.907	
38.00	-53.386	148.009	
39.00	-53.605	148.608	
40.00	-54.840	158.143	
41.00	-56.134	163.204	
42.00	-57.507	173.894	
43.00	-58.992	179.550	
44.00	-60.284	-157.106	
45.00	-61.267	-141.538	
46.00	-60.838	-124.508	
47.00	-61.000	-106.178	
48.00	-61.656	-92.898	
49.00	-61.934	-84.067	
50.00	-63.632	-73.995	
51.00	-64.108	-75.045	
52.00	-67.748	-73.893	
53.00	-70.526	-101.040	
54.00	-70.626	-125.930	
55.00	-68.707	-141.060	
56.00	-66.108	-141.247	
57.00	-66.037	-138.401	
58.00	-65.457	-126.663	
59.00	-65.890	-107.334	
60.00	-67.126	-90.516	
61.00	-66.225	-48.154	
62.00	-64.668	-20.077	
63.00	-63.501	0.347	
64.00	-65.160	10.843	
65.00	-61.865	31.938	
66.00	-61.607	45.814	
67.00	-62.791	62.409	
68.00	-63.637	86.619	
69.00	-65.008	105.248	
70.00	-65.450	141.654	
71.00	-65.002	165.025	
72.00	-63.700	-172.412	
73.00	-61.649	-152.962	
74.00	-61.631	-133.861	
75.00	-61.754	-122.867	
76.00	-61.820	-102.454	
77.00	-63.139	-83.328	
78.00	-64.220	-63.722	
79.00	-64.206	-30.765	
80.00	-65.811	-14.523	
81.00	-64.599	25.924	
82.00	-65.179	44.266	
83.00	-61.838	63.458	
84.00	-63.607	92.686	
85.00	-62.797	115.368	
86.00	-62.275	129.260	
87.00	-60.897	146.998	
88.00	-60.335	165.734	
89.00	-61.333	175.576	
90.00	-59.700	-163.673	
91.00	-61.548	-139.582	
92.00	-62.113	-133.307	
93.00	-62.859	-106.290	
94.00	-62.259	-63.554	
95.00	-62.428	-37.037	
96.00	-61.967	-14.304	
97.00	-59.388	5.454	
98.00	-58.823	24.536	
99.00	-57.460	34.937	
100.00	-56.903	54.806	
101.00	-56.530	71.726	
102.00	-56.292	93.778	
103.00	-56.264	107.676	
104.00	-56.282	126.217	
105.00	-56.570	140.380	
106.00	-57.225	157.789	
107.00	-57.799	174.686	
108.00	-59.005	-161.614	
109.00	-60.394	-138.163	
110.00	-60.843	-106.966	
111.00	-60.706	-70.138	
112.00	-59.240	-36.705	
113.00	-58.023	-10.299	
114.00	-55.814	8.647	
115.00	-54.241	26.716	
116.00	-53.067	46.585	
117.00	-51.971	64.254	
118.00	-51.554	82.582	
119.00	-50.826	97.949	
120.00	-50.636	118.209	
121.00	-50.330	133.739	
122.00	-50.206	151.338	
123.00	-50.191	168.039	
124.00	-49.990	-178.675	
125.00	-50.491	-161.853	
126.00	-51.105	-150.099	
127.00	-52.685	-139.628	
128.00	-55.667	-128.092	
129.00	-61.093	-128.939	
130.00	-72.268	-168.953	
131.00	-60.082	106.158	
132.00	-54.313	110.955	
133.00	-51.271	118.736	
134.00	-49.148	131.786	
135.00	-48.108	143.063	
136.00	-47.430	157.462	
137.00	-47.325	173.381	
138.00	-47.427	-167.933	
139.00	-47.854	-145.383	
140.00	-47.852	-118.985	
141.00	-47.201	-90.986	
142.00	-45.847	-64.590	
143.00	-44.230	-42.561	
144.00	-42.605	-23.803	
145.00	-41.251	-7.716	
146.00	-40.128	6.312	
147.00	-39.209	18.730	
148.00	-38.539	29.625	
149.00	-38.204	39.730	
150.00	-38.182	49.163	
151.00	-38.511	57.823	
152.00	-39.158	65.551	
153.00	-40.386	73.009	
154.00	-42.152	79.407	
155.00	-44.679	84.979	
156.00	-48.785	89.001	
157.00	-55.803	86.176	
158.00	-65.552	-18.624	
159.00	-53.693	-54.217	
160.00	-50.032	-55.469	
161.00	-48.544	-54.212	
162.00	-48.493	-53.077	
163.00	-49.095	-53.158	
164.00	-51.326	-59.443	
165.00	-54.552	-73.488	
166.00	-56.793	-115.148	
167.00	-52.561	-146.537	
168.00	-50.450	-160.620	
169.00	-48.893	-162.629	
170.00	-48.280	-157.076	
171.00	-48.961	-152.009	
172.00	-51.079	-135.865	
173.00	-53.228	-101.567	
174.00	-52.156	-54.042	
175.00	-49.024	-26.401	
176.00	-46.283	-11.426	
177.00	-44.888	-3.436	
178.00	-44.862	3.728	
179.00	-46.420	10.439	
180.00	-51.161	26.541	
181.00	-57.218	120.998	
182.00	-45.730	168.783	
183.00	-39.859	177.645	
184.00	-35.948	-178.924	
185.00	-33.301	-177.245	
186.00	-31.323	-176.024	
187.00	-29.877	-175.659	
188.00	-28.919	-175.501	
189.00	-28.334	-175.723	
190.00	-28.137	-176.090	
191.00	-28.255	-176.866	
192.00	-28.778	-177.700	
193.00	-29.660	-178.701	
194.00	-30.968	-179.722	
195.00	-32.741	179.218	
196.00	-35.159	179.102	
197.00	-38.481	179.693	
198.00	-43.173	-172.478	
199.00	-50.866	-159.415	
200.00	-53.132	-67.874	
201.00	-47.378	-41.427	
202.00	-44.988	-36.353	
203.00	-44.259	-34.207	
204.00	-44.711	-33.265	
205.00	-46.630	-31.365	
206.00	-49.645	-30.401	
207.00	-55.112	-14.798	
208.00	-59.966	43.516	
209.00	-55.565	97.651	
210.00	-51.717	110.246	
211.00	-50.241	109.858	
212.00	-49.569	112.530	
213.00	-50.236	119.240	
214.00	-52.205	122.484	
215.00	-54.977	136.910	
216.00	-57.025	170.200	
217.00	-55.871	-153.002	
218.00	-53.178	-135.170	
219.00	-51.149	-121.116	
220.00	-50.449	-125.302	
221.00	-49.475	-108.221	
222.00	-49.658	-117.836	
223.00	-48.528	-100.169	
224.00	-49.205	-99.904	
225.00	-49.361	-98.252	
226.00	-49.536	-88.087	
227.00	-49.296	-88.207	
228.00	-49.039	-90.186	
229.00	-48.423	-88.022	
230.00	-47.633	-90.556	
231.00	-47.861	-96.351	
232.00	-47.124	-103.521	
233.00	-46.734	-110.866	
234.00	-46.500	-119.122	
235.00	-46.449	-127.436	
236.00	-46.036	-138.024	
237.00	-45.761	-146.942	
238.00	-45.595	-155.536	
239.00	-45.473	-166.269	
240.00	-45.355	-176.277	
241.00	-45.267	177.534	
242.00	-45.251	168.424	
243.00	-45.323	160.505	
244.00	-45.134	151.058	
245.00	-45.360	143.183	
246.00	-45.655	136.578	
247.00	-46.006	125.085	
248.00	-46.398	117.549	
249.00	-47.104	108.611	
250.00	-47.757	101.438	
251.00	-48.373	92.157	
252.00	-49.026	83.588	
253.00	-49.702	75.934	
254.00	-50.689	68.503	
255.00	-51.556	60.220	
256.00	-52.623	53.756	
257.00	-53.646	44.923	
258.00	-54.650	36.992	
259.00	-55.787	30.071	
260.00	-57.301	19.130	
261.00	-57.819	11.976	
262.00	-59.687	-1.331	
263.00	-60.512	-15.034	
264.00	-61.660	-38.781	
265.00	-60.698	-61.414	
266.00	-61.003	-76.455	
267.00	-59.668	-100.719	
268.00	-58.939	-122.696	
269.00	-57.653	-138.382	
270.00	-56.504	-151.735	
271.00	-56.028	-162.990	
272.00	-55.058	-173.697	
273.00	-54.931	168.807	
274.00	-54.263	156.156	
275.00	-54.724	141.764	
276.00	-54.490	123.108	
277.00	-54.548	112.021	
278.00	-54.948	95.177	
279.00	-55.069	86.079	
280.00	-56.018	63.215	
281.00	-56.076	50.616	
282.00	-56.994	31.947	
283.00	-58.936	17.017	
284.00	-60.984	-3.717	
285.00	-65.381	-26.022	
286.00	-65.849	-93.139	
287.00	-60.984	-150.533	
288.00	-59.130	-163.036	
289.00	-57.450	-177.641	
290.00	-56.773	164.765	
291.00	-56.231	154.035	
292.00	-56.247	138.060	
293.00	-56.585	122.740	
294.00	-58.157	103.181	
295.00	-60.044	85.915	
296.00	-61.185	53.319	
297.00	-62.809	33.222	
298.00	-65.705	-15.107	
299.00	-64.348	-53.028	
300.00	-64.276	-98.592	
301.00	-60.244	-122.956	
302.00	-57.900	-151.372	
303.00	-55.998	-166.524	
304.00	-54.819	173.342	
305.00	-53.480	161.757	
306.00	-52.804	146.729	
307.00	-52.239	135.184	
308.00	-51.800	120.081	
309.00	-51.658	107.868	
310.00	-51.680	94.928	
311.00	-51.601	84.167	
312.00	-51.940	71.399	
313.00	-52.471	58.289	
314.00	-53.342	44.473	
315.00	-54.113	32.145	
316.00	-55.274	19.788	
317.00	-56.630	1.423	
318.00	-58.360	-15.408	
319.00	-59.056	-33.284	
320.00	-60.336	-49.357	
321.00	-63.650	-75.899	
322.00	-63.880	-94.269	
323.00	-68.941	-130.619	
324.00	-68.822	173.698	
325.00	-65.971	124.792	
326.00	-63.374	104.414	
327.00	-59.805	88.774	
328.00	-57.827	69.656	
329.00	-57.231	63.328	
330.00	-56.363	53.473	
331.00	-57.173	49.233	
332.00	-55.614	32.818	
333.00	-55.583	23.755	
334.00	-56.401	0.217	
335.00	-56.386	-12.631	
336.00	-55.795	-33.733	
337.00	-55.503	-50.135	
338.00	-55.040	-70.415	
339.00	-55.300	-88.791	
340.00	-54.291	-108.627	
341.00	-54.227	-129.538	
342.00	-53.854	-151.642	
343.00	-54.303	-167.516	
344.00	-54.583	176.652	
345.00	-54.432	158.912	
346.00	-54.520	149.479	
347.00	-54.896	137.462	
348.00	-55.990	127.916	
349.00	-56.296	118.214	
350.00	-57.510	110.948	
351.00	-59.364	110.812	
352.00	-60.494	104.244	
353.00	-64.062	82.725	
354.00	-64.267	68.411	
355.00	-65.023	27.322	
356.00	-63.126	15.519	
357.00	-60.460	11.253	
358.00	-60.258	-5.673	
359.00	-59.046	-4.536	
Frequency	1850.00	MHz	
Channel	test		
Scan Axis name	Azimuth  [deg]		
Scan Axis	Amplitude	Phase	
			
0.00	-76.017	72.887	
1.00	-67.502	50.162	
2.00	-73.319	-73.567	
3.00	-74.993	-91.458	
4.00	-67.822	-107.473	
5.00	-64.366	-117.199	
6.00	-63.039	-112.140	
7.00	-62.652	-117.123	
8.00	-63.471	-97.169	
9.00	-59.015	-91.595	
10.00	-62.960	-74.359	
11.00	-64.175	-59.631	
12.00	-62.386	-37.007	
13.00	-61.808	-18.837	
14.00	-62.271	1.957	
15.00	-61.511	-16.605	
16.00	-61.201	27.665	
17.00	-60.905	23.137	
18.00	-61.081	23.642	
19.00	-62.297	18.427	
20.00	-60.986	16.760	
21.00	-68.522	-6.065	
22.00	-69.728	-61.269	
23.00	-65.481	-103.978	
24.00	-62.383	-121.597	
25.00	-59.128	-130.139	
26.00	-57.721	-138.420	
27.00	-56.762	-142.289	
28.00	-56.418	-146.247	
29.00	-56.564	-153.013	
30.00	-56.471	-161.739	
31.00	-54.989	-165.930	
32.00	-55.632	-177.545	
33.00	-54.934	-178.159	
34.00	-54.753	-175.486	
35.00	-54.926	-169.851	
36.00	-55.180	-158.327	
37.00	-56.168	-145.046	
38.00	-57.151	-123.343	
39.00	-57.835	-106.499	
40.00	-58.134	-75.890	
41.00	-58.295	-60.855	
42.00	-58.193	-40.587	
43.00	-57.552	-25.531	
44.00	-57.300	-10.088	
45.00	-56.819	-1.866	
46.00	-56.539	11.650	
47.00	-55.677	19.275	
48.00	-55.221	27.224	
49.00	-55.186	37.742	
50.00	-54.783	47.576	
51.00	-55.580	64.094	
52.00	-56.318	81.922	
53.00	-57.504	102.290	
54.00	-57.669	131.395	
55.00	-58.041	163.327	
56.00	-56.642	-169.685	
57.00	-55.135	-146.288	
58.00	-54.099	-128.545	
59.00	-53.805	-113.484	
60.00	-53.065	-95.412	
61.00	-54.300	-87.370	
62.00	-55.757	-74.591	
63.00	-58.595	-68.460	
64.00	-61.768	-49.805	
65.00	-65.138	-33.578	
66.00	-75.697	8.211	
67.00	-71.850	153.042	
68.00	-64.771	174.779	
69.00	-60.226	-163.432	
70.00	-59.024	-144.730	
71.00	-57.347	-127.316	
72.00	-56.353	-111.492	
73.00	-55.618	-96.460	
74.00	-55.368	-81.048	
75.00	-55.530	-64.695	
76.00	-55.936	-49.415	
77.00	-56.542	-31.525	
78.00	-57.245	-11.294	
79.00	-57.896	11.714	
80.00	-60.659	41.248	
81.00	-58.333	61.787	
82.00	-57.978	83.331	
83.00	-57.988	103.923	
84.00	-57.803	125.125	
85.00	-57.994	132.204	
86.00	-57.285	167.724	
87.00	-57.174	-168.507	
88.00	-56.228	-150.190	
89.00	-55.297	-131.741	
90.00	-54.580	-118.171	
91.00	-53.917	-101.178	
92.00	-53.532	-90.282	
93.00	-53.681	-74.439	
94.00	-54.612	-60.153	
95.00	-55.724	-46.782	
96.00	-55.998	-29.179	
97.00	-57.470	-8.184	
98.00	-58.080	18.528	
99.00	-57.852	42.891	
100.00	-57.468	64.607	
101.00	-56.918	90.354	
102.00	-56.751	113.555	
103.00	-56.930	127.968	
104.00	-57.288	146.733	
105.00	-58.329	165.708	
106.00	-59.641	-172.081	
107.00	-60.618	-142.513	
108.00	-61.175	-109.240	
109.00	-59.469	-74.136	
110.00	-58.670	-48.707	
111.00	-57.215	-26.170	
112.00	-55.889	-5.300	
113.00	-55.319	14.540	
114.00	-54.824	31.255	
115.00	-55.045	50.877	
116.00	-55.442	73.599	
117.00	-55.775	101.435	
118.00	-55.615	136.271	
119.00	-54.231	168.838	
120.00	-52.023	-164.221	
121.00	-49.883	-142.204	
122.00	-47.929	-121.881	
123.00	-46.493	-105.183	
124.00	-45.298	-88.255	
125.00	-44.268	-72.342	
126.00	-43.435	-56.379	
127.00	-42.740	-39.568	
128.00	-42.086	-24.618	
129.00	-41.695	-7.429	
130.00	-41.403	8.275	
131.00	-41.199	24.767	
132.00	-41.126	40.807	
133.00	-41.271	57.743	
134.00	-41.482	73.993	
135.00	-41.928	90.914	
136.00	-42.596	107.334	
137.00	-43.646	125.149	
138.00	-45.287	144.330	
139.00	-47.475	168.558	
140.00	-50.102	-155.284	
141.00	-50.073	-100.310	
142.00	-46.792	-58.664	
143.00	-43.225	-34.504	
144.00	-40.843	-18.253	
145.00	-39.107	-4.076	
146.00	-37.823	8.550	
147.00	-36.911	21.210	
148.00	-36.480	33.202	
149.00	-36.281	45.071	
150.00	-36.419	56.960	
151.00	-36.836	68.855	
152.00	-37.698	81.179	
153.00	-38.969	94.274	
154.00	-40.839	107.637	
155.00	-43.445	124.950	
156.00	-46.746	149.806	
157.00	-49.965	-166.675	
158.00	-49.097	-115.696	
159.00	-46.276	-84.471	
160.00	-44.499	-66.887	
161.00	-43.293	-53.427	
162.00	-43.079	-43.105	
163.00	-43.711	-34.725	
164.00	-45.224	-27.056	
165.00	-48.186	-22.058	
166.00	-54.410	-20.579	
167.00	-68.540	-119.052	
168.00	-53.970	-170.995	
169.00	-48.897	-172.126	
170.00	-46.918	-168.603	
171.00	-46.401	-164.169	
172.00	-47.282	-156.475	
173.00	-49.525	-147.248	
174.00	-53.703	-122.590	
175.00	-54.952	-74.808	
176.00	-51.071	-42.525	
177.00	-47.708	-35.973	
178.00	-45.527	-41.649	
179.00	-43.482	-55.267	
180.00	-40.891	-70.417	
181.00	-38.101	-84.119	
182.00	-35.301	-95.141	
183.00	-32.888	-102.178	
184.00	-30.703	-107.555	
185.00	-29.004	-112.478	
186.00	-27.642	-116.285	
187.00	-26.687	-119.640	
188.00	-26.046	-122.887	
189.00	-25.748	-125.982	
190.00	-25.786	-129.249	
191.00	-26.158	-132.834	
192.00	-26.860	-136.929	
193.00	-27.954	-140.998	
194.00	-29.537	-146.813	
195.00	-31.545	-153.658	
196.00	-34.124	-162.372	
197.00	-37.620	-177.373	
198.00	-41.523	162.224	
199.00	-43.908	121.534	
200.00	-42.814	81.462	
201.00	-41.139	61.522	
202.00	-40.561	49.377	
203.00	-40.429	42.474	
204.00	-41.024	38.270	
205.00	-41.831	36.159	
206.00	-43.038	38.248	
207.00	-44.025	42.351	
208.00	-44.297	47.592	
209.00	-44.149	50.298	
210.00	-43.714	49.162	
211.00	-43.229	45.048	
212.00	-42.819	35.452	
213.00	-42.425	23.543	
214.00	-42.301	9.501	
215.00	-42.260	-2.861	
216.00	-41.920	-23.319	
217.00	-41.854	-40.533	
218.00	-41.885	-58.142	
219.00	-42.129	-75.844	
220.00	-42.399	-90.767	
221.00	-43.002	-107.859	
222.00	-43.479	-130.098	
223.00	-43.770	-149.855	
224.00	-45.007	-174.522	
225.00	-45.475	157.850	
226.00	-45.519	129.443	
227.00	-44.634	98.811	
228.00	-43.254	76.164	
229.00	-42.291	55.595	
230.00	-41.044	36.178	
231.00	-39.826	20.684	
232.00	-38.907	6.179	
233.00	-38.223	-7.588	
234.00	-37.753	-20.655	
235.00	-37.432	-32.991	
236.00	-37.319	-45.001	
237.00	-37.332	-57.269	
238.00	-37.502	-69.030	
239.00	-37.695	-81.280	
240.00	-38.068	-93.234	
241.00	-38.450	-105.137	
242.00	-38.997	-117.755	
243.00	-39.587	-129.666	
244.00	-40.290	-141.892	
245.00	-41.026	-154.195	
246.00	-42.009	-166.137	
247.00	-42.698	-177.744	
248.00	-43.597	169.937	
249.00	-44.630	158.522	
250.00	-45.717	146.747	
251.00	-46.921	135.641	
252.00	-47.925	124.764	
253.00	-49.157	114.687	
254.00	-50.501	104.960	
255.00	-52.013	95.274	
256.00	-53.327	87.230	
257.00	-54.771	79.881	
258.00	-55.854	71.564	
259.00	-56.718	56.808	
260.00	-56.020	35.346	
261.00	-57.581	25.388	
262.00	-56.853	16.709	
263.00	-57.080	5.214	
264.00	-56.573	-8.450	
265.00	-55.802	-22.213	
266.00	-55.648	-36.278	
267.00	-55.289	-47.949	
268.00	-55.405	-56.259	
269.00	-54.856	-77.742	
270.00	-54.631	-92.581	
271.00	-54.906	-105.283	
272.00	-55.406	-119.500	
273.00	-55.765	-136.308	
274.00	-56.365	-152.104	
275.00	-57.262	-170.194	
276.00	-58.152	170.907	
277.00	-59.279	150.375	
278.00	-60.708	126.496	
279.00	-61.650	104.343	
280.00	-63.264	74.732	
281.00	-64.338	43.961	
282.00	-63.730	3.076	
283.00	-62.450	-32.540	
284.00	-60.687	-54.772	
285.00	-59.556	-75.209	
286.00	-58.999	-98.507	
287.00	-58.490	-130.144	
288.00	-58.339	-153.508	
289.00	-58.026	-177.085	
290.00	-57.718	159.867	
291.00	-56.821	136.856	
292.00	-56.726	117.508	
293.00	-55.936	95.291	
294.00	-55.823	75.235	
295.00	-56.455	60.422	
296.00	-56.868	42.792	
297.00	-57.990	22.166	
298.00	-58.413	1.337	
299.00	-59.793	-19.774	
300.00	-60.668	-39.373	
301.00	-63.219	-58.113	
302.00	-66.590	-77.107	
303.00	-73.553	-102.454	
304.00	-82.148	137.776	
305.00	-70.872	94.201	
306.00	-67.771	65.490	
307.00	-66.405	56.440	
308.00	-68.316	38.521	
309.00	-73.368	1.313	
310.00	-70.482	-98.533	
311.00	-66.715	-162.331	
312.00	-60.623	-155.764	
313.00	-57.612	-170.650	
314.00	-55.598	176.727	
315.00	-54.644	163.566	
316.00	-54.192	152.134	
317.00	-54.270	137.558	
318.00	-54.434	122.861	
319.00	-55.531	108.936	
320.00	-56.665	91.913	
321.00	-59.989	70.609	
322.00	-60.144	50.062	
323.00	-61.710	20.658	
324.00	-62.166	-14.135	
325.00	-62.276	-39.217	
326.00	-58.932	-69.634	
327.00	-57.544	-89.568	
328.00	-59.105	-104.878	
329.00	-55.667	-124.432	
330.00	-54.187	-147.763	
331.00	-55.562	-160.607	
332.00	-55.861	179.224	
333.00	-56.270	160.297	
334.00	-56.966	134.959	
335.00	-56.820	109.716	
336.00	-57.151	89.208	
337.00	-56.953	58.762	
338.00	-57.025	40.233	
339.00	-57.961	26.076	
340.00	-59.800	11.157	
341.00	-62.180	-3.637	
342.00	-65.669	-16.888	
343.00	-71.145	-59.692	
344.00	-70.578	-110.829	
345.00	-68.166	-139.761	
346.00	-66.694	-139.789	
347.00	-64.909	-142.486	
348.00	-65.306	-132.564	
349.00	-62.804	-131.259	
350.00	-63.502	-127.853	
351.00	-64.440	-132.972	
352.00	-64.639	-134.547	
353.00	-65.810	-135.860	
354.00	-68.574	-140.174	
355.00	-75.296	178.589	
356.00	-104.708	138.179	
357.00	-70.029	98.642	
358.00	-70.298	81.963	
359.00	-69.826	72.760	
Frequency	1950.00	MHz	
Channel	test		
Scan Axis name	Azimuth  [deg]		
Scan Axis	Amplitude	Phase	
			
0.00	-61.846	-33.569	
1.00	-61.427	-18.051	
2.00	-65.197	-61.362	
3.00	-66.845	-43.473	
4.00	-61.083	-45.174	
5.00	-60.078	-79.490	
6.00	-73.446	-84.354	
7.00	-60.386	-38.800	
8.00	-59.328	-37.498	
9.00	-62.887	-57.491	
10.00	-62.220	-41.918	
11.00	-62.135	-23.910	
12.00	-60.173	-28.680	
13.00	-61.717	-45.730	
14.00	-69.020	-30.638	
15.00	-68.843	12.153	
16.00	-78.436	-34.340	
17.00	-73.495	-18.610	
18.00	-72.329	65.785	
19.00	-67.154	138.872	
20.00	-78.578	136.133	
21.00	-74.727	62.480	
22.00	-77.321	27.569	
23.00	-72.637	2.752	
24.00	-65.721	22.134	
25.00	-63.627	2.469	
26.00	-64.282	0.215	
27.00	-62.855	-17.019	
28.00	-60.012	-28.549	
29.00	-58.837	-20.220	
30.00	-57.380	-20.690	
31.00	-56.081	-19.289	
32.00	-55.728	-15.302	
33.00	-57.442	-17.173	
34.00	-55.908	-8.629	
35.00	-57.576	-1.033	
36.00	-58.578	12.960	
37.00	-61.644	21.889	
38.00	-59.977	39.830	
39.00	-61.298	66.471	
40.00	-62.666	71.204	
41.00	-62.728	97.379	
42.00	-64.607	111.713	
43.00	-66.634	138.958	
44.00	-68.444	104.804	
45.00	-77.183	-9.503	
46.00	-73.865	25.973	
47.00	-62.317	0.584	
48.00	-61.426	21.964	
49.00	-60.792	35.652	
50.00	-59.214	59.711	
51.00	-60.417	80.319	
52.00	-60.979	101.284	
53.00	-62.520	114.920	
54.00	-59.449	153.257	
55.00	-59.379	159.113	
56.00	-58.216	-175.881	
57.00	-57.427	-170.077	
58.00	-58.965	-148.644	
59.00	-59.899	-138.169	
60.00	-62.999	-131.394	
61.00	-68.064	-125.965	
62.00	-83.488	6.434	
63.00	-72.720	163.392	
64.00	-67.163	104.866	
65.00	-64.691	106.007	
66.00	-63.658	111.806	
67.00	-65.135	114.696	
68.00	-67.298	118.186	
69.00	-70.516	114.357	
70.00	-76.023	64.209	
71.00	-74.665	-24.230	
72.00	-68.160	-28.406	
73.00	-64.653	-16.468	
74.00	-63.583	-8.121	
75.00	-63.705	-8.300	
76.00	-65.054	-2.075	
77.00	-66.388	1.208	
78.00	-69.431	36.216	
79.00	-73.761	106.084	
80.00	-70.025	131.527	
81.00	-65.883	172.075	
82.00	-64.631	-178.018	
83.00	-64.512	-165.106	
84.00	-63.139	-136.057	
85.00	-62.387	-125.732	
86.00	-63.540	-104.354	
87.00	-63.369	-77.839	
88.00	-62.567	-48.572	
89.00	-59.255	-30.451	
90.00	-58.660	-14.226	
91.00	-56.466	-0.973	
92.00	-55.815	11.850	
93.00	-55.696	26.563	
94.00	-55.433	38.095	
95.00	-55.193	55.370	
96.00	-55.359	68.856	
97.00	-56.233	89.442	
98.00	-56.118	112.206	
99.00	-56.132	133.600	
100.00	-55.576	157.452	
101.00	-54.726	-171.927	
102.00	-53.607	-143.379	
103.00	-52.842	-129.699	
104.00	-51.770	-110.916	
105.00	-50.828	-95.420	
106.00	-50.378	-78.949	
107.00	-49.852	-65.103	
108.00	-49.629	-51.082	
109.00	-49.225	-33.863	
110.00	-49.209	-21.541	
111.00	-49.181	-3.540	
112.00	-49.205	10.417	
113.00	-49.417	28.065	
114.00	-49.492	44.448	
115.00	-49.387	59.850	
116.00	-49.874	75.295	
117.00	-50.415	87.693	
118.00	-50.913	103.389	
119.00	-51.628	115.632	
120.00	-52.545	125.137	
121.00	-53.621	125.789	
122.00	-55.401	123.204	
123.00	-55.721	106.026	
124.00	-54.158	90.819	
125.00	-50.971	81.911	
126.00	-48.591	81.808	
127.00	-45.882	85.732	
128.00	-44.054	90.619	
129.00	-42.606	98.906	
130.00	-41.578	106.163	
131.00	-40.781	114.768	
132.00	-40.314	123.637	
133.00	-40.128	132.651	
134.00	-40.055	142.305	
135.00	-40.282	150.871	
136.00	-40.589	159.709	
137.00	-41.298	168.078	
138.00	-42.170	174.978	
139.00	-43.545	179.795	
140.00	-45.254	-177.278	
141.00	-47.595	179.424	
142.00	-50.399	164.042	
143.00	-51.239	134.079	
144.00	-49.285	110.952	
145.00	-46.503	99.821	
146.00	-44.237	97.829	
147.00	-42.498	98.434	
148.00	-41.172	101.387	
149.00	-40.141	104.775	
150.00	-39.320	109.140	
151.00	-38.824	114.125	
152.00	-38.223	118.874	
153.00	-37.937	125.153	
154.00	-37.752	131.214	
155.00	-37.924	136.954	
156.00	-37.937	143.652	
157.00	-38.281	149.587	
158.00	-39.103	154.991	
159.00	-39.810	162.722	
160.00	-41.003	169.796	
161.00	-42.602	174.836	
162.00	-45.020	179.279	
163.00	-48.328	176.770	
164.00	-54.414	164.156	
165.00	-57.065	94.692	
166.00	-49.677	60.265	
167.00	-46.760	50.995	
168.00	-43.786	49.592	
169.00	-42.234	48.467	
170.00	-41.095	48.346	
171.00	-40.705	45.321	
172.00	-40.537	43.195	
173.00	-40.708	39.005	
174.00	-41.229	32.569	
175.00	-41.964	26.688	
176.00	-42.410	19.479	
177.00	-43.108	14.922	
178.00	-43.649	15.048	
179.00	-44.069	22.644	
180.00	-43.412	35.439	
181.00	-41.544	50.985	
182.00	-38.755	61.086	
183.00	-35.878	67.010	
184.00	-33.368	69.340	
185.00	-31.180	69.861	
186.00	-29.456	68.966	
187.00	-28.034	67.573	
188.00	-26.981	65.547	
189.00	-26.244	63.234	
190.00	-25.819	60.613	
191.00	-25.689	58.002	
192.00	-25.870	55.086	
193.00	-26.393	52.471	
194.00	-27.238	49.689	
195.00	-28.475	47.482	
196.00	-30.053	46.111	
197.00	-32.144	45.956	
198.00	-34.549	48.956	
199.00	-37.364	57.255	
200.00	-40.444	72.642	
201.00	-41.388	93.997	
202.00	-40.924	112.381	
203.00	-39.843	118.770	
204.00	-39.554	118.251	
205.00	-39.335	115.563	
206.00	-39.613	109.746	
207.00	-40.154	101.280	
208.00	-41.147	95.997	
209.00	-42.012	88.998	
210.00	-43.159	83.438	
211.00	-43.983	78.621	
212.00	-44.389	78.197	
213.00	-44.589	78.037	
214.00	-44.382	76.072	
215.00	-43.711	76.804	
216.00	-43.038	72.541	
217.00	-42.921	67.540	
218.00	-42.856	62.238	
219.00	-43.490	54.883	
220.00	-44.249	46.524	
221.00	-45.732	43.232	
222.00	-48.721	44.599	
223.00	-53.800	41.798	
224.00	-56.354	100.614	
225.00	-51.351	141.669	
226.00	-46.888	139.579	
227.00	-44.219	133.932	
228.00	-42.600	126.148	
229.00	-41.272	114.748	
230.00	-40.441	102.849	
231.00	-39.731	90.842	
232.00	-39.371	77.526	
233.00	-39.109	64.300	
234.00	-39.029	51.504	
235.00	-39.141	39.078	
236.00	-39.580	26.793	
237.00	-40.211	14.736	
238.00	-40.724	4.855	
239.00	-41.658	-6.059	
240.00	-43.105	-15.553	
241.00	-44.201	-26.321	
242.00	-46.192	-35.057	
243.00	-47.637	-39.509	
244.00	-49.567	-40.849	
245.00	-51.800	-39.795	
246.00	-52.615	-37.905	
247.00	-53.361	-27.960	
248.00	-53.344	-33.989	
249.00	-52.987	-32.228	
250.00	-52.270	-38.163	
251.00	-52.257	-51.255	
252.00	-52.282	-64.552	
253.00	-52.439	-78.170	
254.00	-52.369	-93.813	
255.00	-52.502	-111.725	
256.00	-53.037	-126.184	
257.00	-52.810	-146.313	
258.00	-53.427	-162.663	
259.00	-53.229	-176.838	
260.00	-53.536	156.811	
261.00	-54.281	138.558	
262.00	-54.783	118.515	
263.00	-55.017	98.774	
264.00	-54.773	76.699	
265.00	-54.612	56.820	
266.00	-54.330	36.996	
267.00	-54.444	18.466	
268.00	-54.782	1.150	
269.00	-54.507	-13.348	
270.00	-55.351	-32.052	
271.00	-55.786	-50.486	
272.00	-57.357	-70.040	
273.00	-57.436	-89.008	
274.00	-57.347	-111.517	
275.00	-57.446	-127.944	
276.00	-57.613	-146.158	
277.00	-57.597	-167.182	
278.00	-59.345	-174.907	
279.00	-60.491	165.746	
280.00	-61.970	151.975	
281.00	-63.308	132.870	
282.00	-65.007	116.977	
283.00	-66.046	89.216	
284.00	-67.293	78.666	
285.00	-65.355	47.197	
286.00	-67.537	19.102	
287.00	-72.261	13.869	
288.00	-81.151	43.778	
289.00	-78.789	6.954	
290.00	-69.488	76.067	
291.00	-78.621	94.441	
292.00	-74.700	69.392	
293.00	-74.464	64.644	
294.00	-71.234	42.585	
295.00	-70.119	43.083	
296.00	-69.869	23.177	
297.00	-70.197	9.357	
298.00	-69.716	-2.164	
299.00	-72.124	-1.217	
300.00	-72.105	-17.842	
301.00	-74.794	33.038	
302.00	-77.063	49.501	
303.00	-74.215	66.047	
304.00	-68.973	103.209	
305.00	-67.172	102.091	
306.00	-63.341	97.472	
307.00	-63.570	114.429	
308.00	-63.300	117.060	
309.00	-62.685	129.511	
310.00	-60.880	132.032	
311.00	-59.931	133.227	
312.00	-57.838	133.038	
313.00	-58.044	130.401	
314.00	-57.297	124.157	
315.00	-57.363	116.424	
316.00	-57.199	108.487	
317.00	-58.209	86.168	
318.00	-58.436	82.226	
319.00	-59.695	74.301	
320.00	-60.290	60.961	
321.00	-61.741	43.266	
322.00	-64.945	23.615	
323.00	-67.098	-1.887	
324.00	-69.984	-31.939	
325.00	-72.488	-50.369	
326.00	-68.749	-101.576	
327.00	-65.437	-119.866	
328.00	-64.214	-153.808	
329.00	-61.622	-164.925	
330.00	-62.697	171.646	
331.00	-60.774	161.034	
332.00	-58.553	135.736	
333.00	-59.003	126.630	
334.00	-60.285	102.305	
335.00	-60.825	93.250	
336.00	-59.187	88.258	
337.00	-61.773	60.301	
338.00	-61.919	47.255	
339.00	-62.684	26.405	
340.00	-68.862	-0.696	
341.00	-66.971	-2.874	
342.00	-66.238	-34.600	
343.00	-71.938	-102.982	
344.00	-64.837	-98.214	
345.00	-64.493	-141.334	
346.00	-63.275	-143.746	
347.00	-63.701	-178.128	
348.00	-61.414	172.220	
349.00	-60.894	176.394	
350.00	-62.779	157.533	
351.00	-62.061	161.450	
352.00	-64.904	150.664	
353.00	-64.115	123.238	
354.00	-67.825	59.582	
355.00	-65.365	83.676	
356.00	-65.252	8.828	
357.00	-63.121	6.958	
358.00	-66.515	-30.832	
359.00	-63.088	-20.267	
Frequency	2050.00	MHz	
Channel	test		
Scan Axis name	Azimuth  [deg]		
Scan Axis	Amplitude	Phase	
			
0.00	-62.287	-149.090	
1.00	-61.475	-156.124	
2.00	-60.034	-156.787	
3.00	-62.751	-162.919	
4.00	-64.057	-179.635	
5.00	-66.549	-171.245	
6.00	-74.829	168.195	
7.00	-75.016	-6.362	
8.00	-67.838	31.281	
9.00	-62.905	36.143	
10.00	-61.662	41.961	
11.00	-60.369	42.417	
12.00	-60.058	54.044	
13.00	-59.284	56.312	
14.00	-60.104	64.284	
15.00	-59.114	60.109	
16.00	-61.693	53.225	
17.00	-67.492	47.434	
18.00	-67.540	17.969	
19.00	-62.973	-9.820	
20.00	-61.004	-20.409	
21.00	-58.204	-14.880	
22.00	-57.571	-21.403	
23.00	-56.958	-20.758	
24.00	-57.346	-9.615	
25.00	-58.200	-9.270	
26.00	-60.038	-5.824	
27.00	-63.269	-7.906	
28.00	-67.877	-10.758	
29.00	-89.199	5.350	
30.00	-71.789	-163.706	
31.00	-66.647	-150.407	
32.00	-64.644	-152.881	
33.00	-63.329	-152.797	
34.00	-63.372	-151.758	
35.00	-65.329	-153.429	
36.00	-65.530	-153.015	
37.00	-67.108	-163.456	
38.00	-68.414	-167.734	
39.00	-67.880	-168.877	
40.00	-67.427	-152.726	
41.00	-68.101	-152.967	
42.00	-69.448	-144.133	
43.00	-67.490	-156.649	
44.00	-70.455	-144.425	
45.00	-70.449	-154.990	
46.00	-75.442	-147.837	
47.00	-75.731	-168.655	
48.00	-86.447	150.340	
49.00	-70.462	166.786	
50.00	-88.817	-111.943	
51.00	-71.254	-175.804	
52.00	-69.687	159.816	
53.00	-79.789	113.679	
54.00	-78.373	-151.448	
55.00	-74.386	-92.206	
56.00	-70.535	-15.385	
57.00	-65.160	-24.822	
58.00	-62.773	-24.703	
59.00	-60.029	-25.178	
60.00	-57.941	-23.106	
61.00	-56.557	-14.595	
62.00	-56.178	-7.996	
63.00	-56.071	-5.234	
64.00	-57.118	5.213	
65.00	-57.657	22.914	
66.00	-58.124	38.334	
67.00	-58.501	56.454	
68.00	-59.225	71.606	
69.00	-59.741	85.112	
70.00	-60.389	94.383	
71.00	-62.031	99.821	
72.00	-63.966	102.607	
73.00	-67.557	90.603	
74.00	-69.930	64.610	
75.00	-66.550	43.950	
76.00	-64.177	23.842	
77.00	-63.958	22.027	
78.00	-62.704	28.135	
79.00	-64.972	37.149	
80.00	-65.570	40.180	
81.00	-69.599	72.773	
82.00	-76.034	123.104	
83.00	-67.484	177.594	
84.00	-64.790	-162.732	
85.00	-62.225	-145.358	
86.00	-58.951	-125.479	
87.00	-59.760	-119.205	
88.00	-58.884	-102.752	
89.00	-60.677	-78.463	
90.00	-59.399	-77.778	
91.00	-60.511	-68.318	
92.00	-59.577	-42.110	
93.00	-67.040	-41.410	
94.00	-62.900	3.440	
95.00	-60.024	39.888	
96.00	-57.734	40.697	
97.00	-59.317	61.777	
98.00	-59.654	72.125	
99.00	-58.271	88.424	
100.00	-60.118	102.673	
101.00	-60.384	124.795	
102.00	-60.882	149.865	
103.00	-62.605	174.877	
104.00	-61.324	-167.027	
105.00	-63.508	-144.475	
106.00	-63.027	-128.395	
107.00	-64.247	-106.192	
108.00	-68.008	-90.481	
109.00	-72.515	-31.976	
110.00	-70.677	39.943	
111.00	-64.954	69.023	
112.00	-61.996	89.067	
113.00	-59.638	109.334	
114.00	-57.576	123.468	
115.00	-56.416	146.126	
116.00	-56.179	169.667	
117.00	-54.950	-171.356	
118.00	-53.892	-150.905	
119.00	-52.436	-130.915	
120.00	-51.378	-112.403	
121.00	-50.587	-96.963	
122.00	-50.047	-80.994	
123.00	-49.945	-67.010	
124.00	-50.605	-52.514	
125.00	-52.060	-36.708	
126.00	-54.408	-23.611	
127.00	-60.707	13.118	
128.00	-61.967	102.349	
129.00	-54.402	149.296	
130.00	-49.835	169.550	
131.00	-46.759	-176.625	
132.00	-44.601	-164.783	
133.00	-43.294	-153.483	
134.00	-42.483	-144.117	
135.00	-42.081	-133.827	
136.00	-42.145	-123.621	
137.00	-42.622	-114.473	
138.00	-43.610	-105.957	
139.00	-44.833	-96.965	
140.00	-46.555	-90.668	
141.00	-48.922	-88.309	
142.00	-51.748	-95.237	
143.00	-53.600	-114.954	
144.00	-53.189	-142.526	
145.00	-51.479	-157.691	
146.00	-49.324	-165.709	
147.00	-48.014	-170.990	
148.00	-47.241	-174.243	
149.00	-46.853	178.713	
150.00	-45.948	169.855	
151.00	-45.011	164.224	
152.00	-43.915	160.187	
153.00	-42.920	157.802	
154.00	-41.864	158.724	
155.00	-41.438	161.582	
156.00	-41.154	165.824	
157.00	-41.197	173.391	
158.00	-41.763	-179.016	
159.00	-42.715	-169.795	
160.00	-43.548	-156.996	
161.00	-44.229	-141.467	
162.00	-46.033	-129.937	
163.00	-46.990	-117.942	
164.00	-48.436	-109.291	
165.00	-50.851	-111.273	
166.00	-53.113	-129.429	
167.00	-51.865	-161.033	
168.00	-48.765	-179.517	
169.00	-45.651	173.113	
170.00	-43.570	171.609	
171.00	-42.481	170.648	
172.00	-42.032	169.322	
173.00	-42.479	166.374	
174.00	-43.729	162.077	
175.00	-45.993	155.369	
176.00	-49.675	139.192	
177.00	-54.823	97.287	
178.00	-55.018	39.718	
179.00	-52.682	1.777	
180.00	-51.388	-41.385	
181.00	-47.519	-84.153	
182.00	-42.565	-112.046	
183.00	-38.277	-126.564	
184.00	-34.792	-137.086	
185.00	-32.079	-144.063	
186.00	-30.004	-150.241	
187.00	-28.407	-155.887	
188.00	-27.311	-161.323	
189.00	-26.577	-167.055	
190.00	-26.244	-172.637	
191.00	-26.253	-178.680	
192.00	-26.600	175.205	
193.00	-27.313	168.510	
194.00	-28.429	161.218	
195.00	-29.860	152.960	
196.00	-31.725	144.186	
197.00	-34.229	132.506	
198.00	-37.427	122.100	
199.00	-41.062	107.127	
200.00	-45.762	83.798	
201.00	-51.750	58.122	
202.00	-59.465	20.905	
203.00	-59.885	-105.142	
204.00	-52.488	-157.925	
205.00	-48.473	177.419	
206.00	-45.797	161.334	
207.00	-44.076	146.676	
208.00	-43.064	135.195	
209.00	-42.787	124.953	
210.00	-42.925	114.617	
211.00	-43.552	107.196	
212.00	-44.788	99.002	
213.00	-46.241	92.624	
214.00	-47.745	86.409	
215.00	-49.301	78.122	
216.00	-49.902	71.600	
217.00	-50.251	57.844	
218.00	-48.829	37.796	
219.00	-48.019	20.481	
220.00	-47.036	4.041	
221.00	-45.283	-16.385	
222.00	-43.763	-32.873	
223.00	-42.595	-48.119	
224.00	-41.704	-65.951	
225.00	-41.042	-83.102	
226.00	-40.817	-99.507	
227.00	-40.634	-117.467	
228.00	-40.630	-137.144	
229.00	-40.789	-157.456	
230.00	-41.018	-177.077	
231.00	-41.176	161.218	
232.00	-41.394	139.644	
233.00	-41.652	118.599	
234.00	-42.031	97.188	
235.00	-42.572	76.481	
236.00	-43.310	55.155	
237.00	-44.116	32.812	
238.00	-45.239	9.320	
239.00	-46.200	-17.429	
240.00	-46.952	-45.540	
241.00	-47.290	-75.026	
242.00	-47.278	-102.312	
243.00	-47.060	-128.201	
244.00	-46.825	-153.005	
245.00	-46.797	-174.327	
246.00	-46.951	164.499	
247.00	-47.087	142.633	
248.00	-47.523	122.045	
249.00	-47.922	100.416	
250.00	-48.451	79.088	
251.00	-48.899	57.589	
252.00	-49.460	37.611	
253.00	-50.233	15.837	
254.00	-50.948	-6.741	
255.00	-51.692	-27.381	
256.00	-52.655	-48.907	
257.00	-53.390	-72.721	
258.00	-54.578	-94.913	
259.00	-55.176	-117.359	
260.00	-56.131	-141.847	
261.00	-56.711	-168.544	
262.00	-57.500	168.454	
263.00	-58.248	145.948	
264.00	-59.073	117.308	
265.00	-59.697	91.517	
266.00	-59.756	63.263	
267.00	-59.853	33.456	
268.00	-59.441	12.754	
269.00	-58.755	-10.796	
270.00	-58.220	-33.406	
271.00	-58.454	-55.883	
272.00	-57.668	-73.877	
273.00	-57.345	-93.584	
274.00	-57.468	-108.383	
275.00	-57.280	-127.502	
276.00	-57.742	-143.012	
277.00	-57.672	-156.910	
278.00	-58.373	-172.217	
279.00	-59.563	175.648	
280.00	-61.004	160.765	
281.00	-63.361	145.876	
282.00	-65.573	124.663	
283.00	-68.023	96.807	
284.00	-68.781	65.614	
285.00	-70.276	38.183	
286.00	-69.780	8.513	
287.00	-69.414	-20.341	
288.00	-73.449	-46.840	
289.00	-73.954	-46.293	
290.00	-78.792	-64.641	
291.00	-81.384	-121.829	
292.00	-78.558	163.131	
293.00	-75.754	125.284	
294.00	-71.475	86.584	
295.00	-68.876	65.256	
296.00	-66.120	53.013	
297.00	-65.521	43.878	
298.00	-63.365	18.656	
299.00	-62.904	-1.465	
300.00	-62.094	-19.031	
301.00	-59.630	-36.221	
302.00	-58.512	-54.928	
303.00	-57.618	-66.428	
304.00	-56.781	-82.415	
305.00	-55.667	-95.937	
306.00	-55.501	-109.831	
307.00	-55.637	-124.252	
308.00	-55.582	-144.812	
309.00	-56.355	-156.337	
310.00	-56.079	-175.402	
311.00	-57.063	159.850	
312.00	-58.567	134.480	
313.00	-58.199	114.553	
314.00	-58.645	93.769	
315.00	-59.240	68.653	
316.00	-59.283	45.173	
317.00	-59.703	26.432	
318.00	-60.635	4.472	
319.00	-62.218	-13.655	
320.00	-63.263	-45.788	
321.00	-64.450	-77.272	
322.00	-64.820	-115.605	
323.00	-63.324	-157.140	
324.00	-61.132	179.405	
325.00	-59.837	159.420	
326.00	-59.323	138.272	
327.00	-58.940	122.982	
328.00	-59.744	105.533	
329.00	-59.806	74.478	
330.00	-63.759	68.548	
331.00	-64.273	32.855	
332.00	-68.886	-7.823	
333.00	-66.151	-65.330	
334.00	-63.237	-105.755	
335.00	-60.611	-127.896	
336.00	-58.902	-142.806	
337.00	-57.898	-159.678	
338.00	-57.539	-170.109	
339.00	-57.017	-178.537	
340.00	-57.653	164.355	
341.00	-58.017	158.823	
342.00	-60.380	158.873	
343.00	-61.993	151.858	
344.00	-63.815	150.795	
345.00	-68.905	155.737	
346.00	-65.169	-165.524	
347.00	-68.825	-147.836	
348.00	-66.812	-111.466	
349.00	-65.225	-90.751	
350.00	-63.708	-101.380	
351.00	-64.104	-88.540	
352.00	-65.690	-69.666	
353.00	-64.513	-77.311	
354.00	-63.455	-45.097	
355.00	-66.601	-45.578	
356.00	-65.978	-47.582	
357.00	-65.405	-112.407	
358.00	-66.601	-122.375	
359.00	-67.411	-133.828	
Frequency	2170.00	MHz	
Channel	test		
Scan Axis name	Azimuth  [deg]		
Scan Axis	Amplitude	Phase	
			
0.00	-61.813	134.695	
1.00	-60.368	129.021	
2.00	-61.721	117.127	
3.00	-60.182	113.852	
4.00	-64.577	90.153	
5.00	-65.288	80.724	
6.00	-66.746	73.854	
7.00	-65.009	26.561	
8.00	-64.533	-15.411	
9.00	-63.255	-19.527	
10.00	-64.552	-29.122	
11.00	-64.244	-63.323	
12.00	-64.389	-78.933	
13.00	-65.977	-70.970	
14.00	-66.190	-96.649	
15.00	-64.712	-101.210	
16.00	-69.102	-97.511	
17.00	-68.327	-120.979	
18.00	-78.236	-112.229	
19.00	-74.941	-148.781	
20.00	-76.079	150.401	
21.00	-68.776	147.036	
22.00	-65.990	141.201	
23.00	-63.594	146.107	
24.00	-62.594	146.747	
25.00	-62.609	151.370	
26.00	-61.585	155.158	
27.00	-62.662	155.234	
28.00	-63.690	160.597	
29.00	-65.469	160.410	
30.00	-69.134	167.497	
31.00	-74.650	174.629	
32.00	-76.443	103.597	
33.00	-71.882	63.399	
34.00	-66.573	68.559	
35.00	-63.132	69.833	
36.00	-60.762	78.971	
37.00	-58.922	89.285	
38.00	-58.510	95.315	
39.00	-58.702	99.073	
40.00	-58.768	106.022	
41.00	-59.502	110.579	
42.00	-59.924	104.404	
43.00	-60.738	104.359	
44.00	-60.819	100.472	
45.00	-61.520	100.381	
46.00	-61.205	103.912	
47.00	-61.379	108.712	
48.00	-60.370	102.118	
49.00	-60.013	103.237	
50.00	-59.843	108.138	
51.00	-59.469	119.529	
52.00	-58.193	127.571	
53.00	-57.935	128.559	
54.00	-57.304	141.975	
55.00	-57.661	154.309	
56.00	-58.044	166.256	
57.00	-58.703	-177.258	
58.00	-58.710	-167.318	
59.00	-60.038	-152.785	
60.00	-62.327	-151.306	
61.00	-63.254	-150.792	
62.00	-62.742	-162.908	
63.00	-61.540	-168.967	
64.00	-61.403	-170.500	
65.00	-60.207	-167.330	
66.00	-59.394	-157.336	
67.00	-58.554	-149.078	
68.00	-58.263	-131.999	
69.00	-57.542	-110.554	
70.00	-59.042	-94.320	
71.00	-59.745	-70.133	
72.00	-60.653	-47.636	
73.00	-62.319	-18.185	
74.00	-62.328	14.365	
75.00	-62.323	48.769	
76.00	-60.698	80.174	
77.00	-59.171	103.283	
78.00	-58.432	124.710	
79.00	-58.401	140.335	
80.00	-58.259	148.752	
81.00	-58.958	163.258	
82.00	-60.300	170.897	
83.00	-62.754	-174.180	
84.00	-68.276	-165.774	
85.00	-82.389	-32.029	
86.00	-69.580	41.531	
87.00	-64.996	42.129	
88.00	-60.730	62.624	
89.00	-59.381	72.165	
90.00	-58.500	90.511	
91.00	-57.112	107.846	
92.00	-56.073	120.876	
93.00	-56.567	142.446	
94.00	-55.670	151.369	
95.00	-55.997	166.733	
96.00	-56.140	-179.969	
97.00	-56.961	-156.323	
98.00	-57.646	-153.676	
99.00	-60.712	-132.632	
100.00	-60.848	-105.487	
101.00	-64.944	-67.165	
102.00	-61.363	-47.894	
103.00	-62.443	-25.847	
104.00	-61.700	-15.114	
105.00	-64.440	17.894	
106.00	-64.975	22.106	
107.00	-64.822	42.052	
108.00	-64.457	45.000	
109.00	-63.020	75.040	
110.00	-63.091	96.600	
111.00	-61.883	111.230	
112.00	-62.042	126.813	
113.00	-60.489	153.818	
114.00	-58.858	174.635	
115.00	-57.907	-163.130	
116.00	-56.709	-144.195	
117.00	-55.351	-123.248	
118.00	-54.549	-103.522	
119.00	-53.826	-82.905	
120.00	-52.974	-57.369	
121.00	-52.271	-34.836	
122.00	-51.103	-8.660	
123.00	-49.775	15.441	
124.00	-48.478	36.934	
125.00	-47.223	56.760	
126.00	-46.449	73.029	
127.00	-45.849	89.636	
128.00	-45.623	107.643	
129.00	-45.917	125.640	
130.00	-46.495	143.363	
131.00	-47.057	164.883	
132.00	-47.894	-172.569	
133.00	-48.272	-148.487	
134.00	-48.725	-127.182	
135.00	-49.105	-107.785	
136.00	-49.785	-91.855	
137.00	-50.717	-79.918	
138.00	-52.304	-72.179	
139.00	-53.942	-69.398	
140.00	-54.824	-75.152	
141.00	-53.484	-83.314	
142.00	-51.101	-83.947	
143.00	-48.905	-79.627	
144.00	-47.214	-70.422	
145.00	-45.978	-63.294	
146.00	-45.496	-53.045	
147.00	-45.743	-43.299	
148.00	-46.943	-34.074	
149.00	-49.877	-23.751	
150.00	-56.202	-14.841	
151.00	-67.712	155.018	
152.00	-52.342	176.142	
153.00	-46.652	-173.866	
154.00	-43.822	-163.217	
155.00	-42.310	-157.067	
156.00	-41.898	-151.124	
157.00	-41.977	-144.619	
158.00	-43.307	-139.488	
159.00	-45.701	-136.177	
160.00	-49.987	-140.093	
161.00	-58.291	-173.198	
162.00	-53.865	108.628	
163.00	-48.554	98.864	
164.00	-45.964	99.680	
165.00	-44.879	104.965	
166.00	-45.231	112.125	
167.00	-46.623	124.179	
168.00	-49.314	148.283	
169.00	-51.021	-168.451	
170.00	-47.808	-128.190	
171.00	-44.792	-111.058	
172.00	-42.863	-103.425	
173.00	-42.188	-101.499	
174.00	-42.428	-102.284	
175.00	-43.363	-107.059	
176.00	-44.970	-114.562	
177.00	-46.924	-126.603	
178.00	-49.874	-131.273	
179.00	-54.466	-114.912	
180.00	-50.964	-48.841	
181.00	-43.036	-32.567	
182.00	-37.471	-30.881	
183.00	-33.447	-31.892	
184.00	-30.295	-33.625	
185.00	-27.922	-35.410	
186.00	-26.125	-37.243	
187.00	-24.813	-39.375	
188.00	-23.975	-41.390	
189.00	-23.543	-43.578	
190.00	-23.543	-45.871	
191.00	-23.949	-48.296	
192.00	-24.814	-50.569	
193.00	-26.138	-52.856	
194.00	-28.088	-54.956	
195.00	-30.784	-56.658	
196.00	-34.446	-57.086	
197.00	-40.052	-51.296	
198.00	-49.641	-21.667	
199.00	-47.892	74.209	
200.00	-43.434	88.324	
201.00	-41.955	93.931	
202.00	-42.695	97.785	
203.00	-44.330	106.200	
204.00	-46.746	123.826	
205.00	-48.280	154.628	
206.00	-46.916	-179.346	
207.00	-45.543	-167.452	
208.00	-44.993	-161.920	
209.00	-45.496	-159.844	
210.00	-47.255	-158.269	
211.00	-50.753	-151.315	
212.00	-54.744	-118.981	
213.00	-53.922	-69.622	
214.00	-50.095	-50.946	
215.00	-47.690	-47.733	
216.00	-46.445	-50.064	
217.00	-46.188	-53.783	
218.00	-46.560	-59.270	
219.00	-47.581	-61.039	
220.00	-48.720	-69.924	
221.00	-50.557	-63.909	
222.00	-53.799	-75.042	
223.00	-54.098	-81.997	
224.00	-54.597	-88.302	
225.00	-54.258	-100.781	
226.00	-53.150	-117.617	
227.00	-52.107	-130.967	
228.00	-50.878	-149.190	
229.00	-50.185	-164.983	
230.00	-49.312	179.150	
231.00	-48.574	157.997	
232.00	-48.050	140.720	
233.00	-47.790	121.694	
234.00	-47.499	104.079	
235.00	-47.396	86.913	
236.00	-47.486	70.180	
237.00	-47.709	54.835	
238.00	-48.355	40.042	
239.00	-49.299	25.571	
240.00	-50.644	11.825	
241.00	-52.301	-0.203	
242.00	-54.531	-10.269	
243.00	-56.670	-15.587	
244.00	-59.273	-14.314	
245.00	-61.284	-7.580	
246.00	-60.555	1.970	
247.00	-58.870	3.823	
248.00	-56.755	-1.133	
249.00	-55.773	-17.154	
250.00	-55.074	-30.499	
251.00	-54.184	-43.954	
252.00	-53.667	-62.796	
253.00	-53.101	-80.321	
254.00	-52.630	-97.854	
255.00	-52.566	-113.940	
256.00	-52.528	-132.290	
257.00	-52.854	-147.868	
258.00	-52.618	-164.608	
259.00	-53.194	178.424	
260.00	-54.201	161.001	
261.00	-55.184	143.741	
262.00	-55.032	126.486	
263.00	-57.450	103.986	
264.00	-57.497	84.132	
265.00	-58.451	63.193	
266.00	-59.117	41.007	
267.00	-59.976	26.775	
268.00	-60.765	9.888	
269.00	-62.059	-21.359	
270.00	-64.316	-35.161	
271.00	-65.369	-60.244	
272.00	-67.378	-80.830	
273.00	-68.869	-114.249	
274.00	-70.407	-167.268	
275.00	-67.735	163.468	
276.00	-63.986	138.717	
277.00	-62.887	117.398	
278.00	-60.854	109.952	
279.00	-59.798	97.233	
280.00	-59.826	85.369	
281.00	-59.990	72.567	
282.00	-60.971	60.108	
283.00	-62.862	48.282	
284.00	-65.623	21.915	
285.00	-69.753	-0.892	
286.00	-73.457	-81.947	
287.00	-65.599	-156.599	
288.00	-61.397	-176.151	
289.00	-58.635	171.597	
290.00	-56.929	157.157	
291.00	-55.150	144.141	
292.00	-54.644	134.161	
293.00	-54.500	120.156	
294.00	-55.171	110.700	
295.00	-56.174	94.727	
296.00	-58.751	80.555	
297.00	-61.244	52.172	
298.00	-63.257	23.430	
299.00	-63.770	-22.364	
300.00	-63.315	-56.717	
301.00	-61.630	-92.667	
302.00	-60.624	-113.531	
303.00	-60.904	-132.496	
304.00	-61.655	-155.869	
305.00	-62.180	-171.444	
306.00	-63.278	159.588	
307.00	-63.404	143.623	
308.00	-63.877	129.672	
309.00	-66.656	116.777	
310.00	-66.412	96.049	
311.00	-65.471	98.086	
312.00	-63.907	85.368	
313.00	-63.598	76.448	
314.00	-63.610	59.660	
315.00	-62.539	47.352	
316.00	-63.794	46.508	
317.00	-65.137	28.159	
318.00	-66.137	4.528	
319.00	-68.983	-20.036	
320.00	-73.559	-58.149	
321.00	-74.484	-154.028	
322.00	-68.146	-178.844	
323.00	-66.851	148.751	
324.00	-65.752	130.909	
325.00	-65.133	114.444	
326.00	-64.434	82.488	
327.00	-64.066	54.582	
328.00	-64.474	29.507	
329.00	-62.460	-14.717	
330.00	-59.721	-50.215	
331.00	-58.595	-71.808	
332.00	-56.584	-96.226	
333.00	-54.775	-106.594	
334.00	-53.336	-128.173	
335.00	-53.103	-143.032	
336.00	-52.706	-153.666	
337.00	-53.723	-168.154	
338.00	-54.623	-179.007	
339.00	-57.058	165.591	
340.00	-60.638	146.762	
341.00	-65.285	138.490	
342.00	-67.933	42.985	
343.00	-67.386	-21.124	
344.00	-63.070	-27.668	
345.00	-61.786	-37.791	
346.00	-60.810	-43.422	
347.00	-63.833	-45.362	
348.00	-65.722	-73.526	
349.00	-66.213	-76.764	
350.00	-63.784	-68.762	
351.00	-77.448	-105.188	
352.00	-72.544	-97.264	
353.00	-81.501	-88.747	
354.00	-68.915	-65.560	
355.00	-73.232	-156.426	
356.00	-65.861	-172.755	
357.00	-63.744	164.822	
358.00	-64.200	165.966	
359.00	-63.351	169.601	
Frequency	2300.00	MHz	
Channel	test		
Scan Axis name	Azimuth  [deg]		
Scan Axis	Amplitude	Phase	
			
0.00	-63.657	-162.048	
1.00	-65.646	-157.199	
2.00	-64.074	-160.228	
3.00	-68.554	-132.427	
4.00	-66.509	-104.247	
5.00	-64.580	-88.976	
6.00	-64.467	-92.482	
7.00	-63.849	-88.021	
8.00	-67.148	-72.980	
9.00	-65.165	-74.541	
10.00	-67.624	-44.313	
11.00	-74.376	-6.268	
12.00	-71.527	62.171	
13.00	-67.482	75.634	
14.00	-68.536	57.065	
15.00	-73.296	72.577	
16.00	-64.940	49.765	
17.00	-67.978	31.734	
18.00	-69.629	23.635	
19.00	-67.714	41.741	
20.00	-70.711	31.776	
21.00	-76.135	32.134	
22.00	-82.117	8.532	
23.00	-78.776	20.435	
24.00	-71.717	18.591	
25.00	-70.053	29.800	
26.00	-73.082	30.533	
27.00	-72.393	5.381	
28.00	-74.308	16.553	
29.00	-69.545	-17.438	
30.00	-66.321	-10.876	
31.00	-64.019	1.139	
32.00	-63.957	9.881	
33.00	-63.316	25.858	
34.00	-62.953	37.637	
35.00	-63.548	43.968	
36.00	-68.516	40.322	
37.00	-71.560	30.923	
38.00	-74.666	-23.584	
39.00	-70.776	-44.507	
40.00	-71.950	-40.424	
41.00	-69.528	-75.501	
42.00	-70.778	-112.988	
43.00	-74.502	-147.154	
44.00	-73.106	-149.573	
45.00	-69.903	-152.421	
46.00	-67.782	-177.142	
47.00	-67.215	168.256	
48.00	-64.009	160.278	
49.00	-64.290	172.090	
50.00	-61.412	-168.992	
51.00	-63.186	-155.959	
52.00	-63.765	-124.635	
53.00	-62.142	-103.214	
54.00	-61.538	-70.628	
55.00	-62.574	-56.216	
56.00	-62.529	-40.492	
57.00	-65.498	-0.695	
58.00	-69.296	30.837	
59.00	-72.448	78.897	
60.00	-71.995	133.736	
61.00	-70.797	146.229	
62.00	-66.293	173.942	
63.00	-66.639	-177.050	
64.00	-70.439	170.059	
65.00	-75.744	160.113	
66.00	-72.788	98.912	
67.00	-72.499	79.344	
68.00	-66.786	71.644	
69.00	-68.780	47.408	
70.00	-68.610	38.618	
71.00	-66.537	42.411	
72.00	-66.699	44.251	
73.00	-65.527	47.988	
74.00	-65.321	72.041	
75.00	-63.685	105.492	
76.00	-62.448	142.882	
77.00	-60.094	152.294	
78.00	-58.332	171.200	
79.00	-57.557	-168.150	
80.00	-56.563	-161.228	
81.00	-57.330	-144.621	
82.00	-59.273	-121.273	
83.00	-61.270	-93.473	
84.00	-61.170	-55.933	
85.00	-59.660	-31.441	
86.00	-58.998	-7.830	
87.00	-57.676	20.940	
88.00	-57.753	40.734	
89.00	-58.448	66.781	
90.00	-57.875	83.918	
91.00	-58.146	117.100	
92.00	-58.798	124.850	
93.00	-60.752	138.995	
94.00	-61.582	-177.200	
95.00	-60.701	-179.034	
96.00	-61.533	-156.018	
97.00	-60.764	-127.578	
98.00	-59.683	-101.210	
99.00	-60.353	-88.129	
100.00	-59.953	-84.134	
101.00	-61.163	-60.497	
102.00	-61.928	-62.518	
103.00	-61.082	-65.909	
104.00	-60.246	-67.512	
105.00	-59.551	-61.424	
106.00	-59.857	-64.674	
107.00	-59.589	-59.887	
108.00	-60.529	-51.706	
109.00	-61.238	-40.788	
110.00	-62.104	-25.111	
111.00	-64.610	-6.628	
112.00	-66.590	6.725	
113.00	-66.032	34.758	
114.00	-67.602	41.471	
115.00	-67.085	56.969	
116.00	-65.743	52.112	
117.00	-62.518	61.416	
118.00	-61.045	62.286	
119.00	-58.607	69.707	
120.00	-56.341	79.233	
121.00	-54.486	92.042	
122.00	-53.403	102.249	
123.00	-52.610	111.772	
124.00	-52.963	124.280	
125.00	-53.703	134.125	
126.00	-55.690	146.879	
127.00	-60.595	161.798	
128.00	-69.791	-162.368	
129.00	-64.790	-36.026	
130.00	-58.594	-10.056	
131.00	-56.176	8.097	
132.00	-54.464	25.688	
133.00	-53.858	42.625	
134.00	-53.505	58.554	
135.00	-54.055	71.211	
136.00	-54.565	75.575	
137.00	-56.050	69.775	
138.00	-56.463	49.550	
139.00	-53.552	28.088	
140.00	-50.120	25.186	
141.00	-47.928	28.279	
142.00	-46.493	36.188	
143.00	-45.729	45.631	
144.00	-45.925	58.362	
145.00	-46.907	74.591	
146.00	-48.592	92.278	
147.00	-50.571	120.832	
148.00	-51.684	157.592	
149.00	-51.644	-163.565	
150.00	-50.340	-136.538	
151.00	-50.318	-116.248	
152.00	-51.714	-98.636	
153.00	-56.189	-83.738	
154.00	-69.170	-48.121	
155.00	-57.544	94.566	
156.00	-51.545	112.677	
157.00	-48.358	126.741	
158.00	-47.098	140.118	
159.00	-46.859	152.714	
160.00	-47.776	168.663	
161.00	-50.000	-165.405	
162.00	-51.762	-123.278	
163.00	-49.759	-79.812	
164.00	-46.325	-52.095	
165.00	-44.234	-39.732	
166.00	-43.031	-32.374	
167.00	-43.071	-29.897	
168.00	-43.875	-32.466	
169.00	-45.983	-38.616	
170.00	-48.991	-59.334	
171.00	-50.810	-94.329	
172.00	-48.878	-130.636	
173.00	-47.417	-150.628	
174.00	-46.811	-164.842	
175.00	-47.711	178.151	
176.00	-48.719	149.043	
177.00	-48.969	112.881	
178.00	-46.801	82.654	
179.00	-45.497	60.446	
180.00	-45.725	38.849	
181.00	-46.471	2.219	
182.00	-44.036	-49.079	
183.00	-39.010	-81.205	
184.00	-34.354	-96.268	
185.00	-31.000	-105.779	
186.00	-28.511	-112.230	
187.00	-26.636	-117.652	
188.00	-25.338	-122.400	
189.00	-24.566	-127.035	
190.00	-24.271	-131.435	
191.00	-24.414	-135.848	
192.00	-25.055	-140.451	
193.00	-26.166	-145.054	
194.00	-27.880	-149.954	
195.00	-30.287	-155.552	
196.00	-33.589	-161.764	
197.00	-38.334	-170.086	
198.00	-46.589	173.343	
199.00	-54.589	61.495	
200.00	-45.907	16.763	
201.00	-43.848	9.283	
202.00	-44.311	1.459	
203.00	-46.275	0.020	
204.00	-51.748	9.334	
205.00	-55.896	62.700	
206.00	-51.493	105.506	
207.00	-48.156	109.217	
208.00	-46.418	106.325	
209.00	-46.328	100.915	
210.00	-47.202	95.263	
211.00	-49.189	90.929	
212.00	-52.839	93.098	
213.00	-57.903	106.354	
214.00	-59.290	154.581	
215.00	-55.973	175.372	
216.00	-54.804	172.945	
217.00	-54.232	161.948	
218.00	-55.632	134.027	
219.00	-56.603	108.878	
220.00	-54.757	65.030	
221.00	-52.767	44.137	
222.00	-51.312	8.751	
223.00	-50.273	5.599	
224.00	-50.312	-12.214	
225.00	-50.480	-25.646	
226.00	-51.174	-35.989	
227.00	-52.712	-44.681	
228.00	-53.840	-44.513	
229.00	-54.920	-38.896	
230.00	-55.357	-34.024	
231.00	-53.946	-27.706	
232.00	-52.340	-27.923	
233.00	-50.999	-31.860	
234.00	-50.327	-36.213	
235.00	-49.807	-45.018	
236.00	-49.712	-52.247	
237.00	-49.942	-59.069	
238.00	-50.661	-67.458	
239.00	-51.715	-74.747	
240.00	-52.751	-79.273	
241.00	-53.846	-84.729	
242.00	-54.633	-90.556	
243.00	-56.189	-91.273	
244.00	-57.289	-96.467	
245.00	-57.752	-105.848	
246.00	-58.050	-112.021	
247.00	-58.769	-121.106	
248.00	-59.299	-142.167	
249.00	-59.218	-159.768	
250.00	-58.832	-175.969	
251.00	-58.611	164.925	
252.00	-58.884	155.755	
253.00	-59.278	144.186	
254.00	-60.394	132.796	
255.00	-61.287	118.191	
256.00	-63.047	103.297	
257.00	-63.780	88.564	
258.00	-64.250	77.449	
259.00	-64.599	63.801	
260.00	-69.214	53.521	
261.00	-69.314	52.306	
262.00	-68.625	47.204	
263.00	-67.659	48.753	
264.00	-69.977	39.805	
265.00	-72.376	28.130	
266.00	-74.492	40.052	
267.00	-73.070	-4.923	
268.00	-75.256	-50.981	
269.00	-76.040	-40.030	
270.00	-76.584	-64.593	
271.00	-73.387	-131.036	
272.00	-71.039	-166.905	
273.00	-65.742	169.705	
274.00	-63.659	159.310	
275.00	-62.765	140.830	
276.00	-61.405	128.945	
277.00	-60.567	120.886	
278.00	-60.793	106.032	
279.00	-61.117	95.746	
280.00	-61.258	78.350	
281.00	-62.025	62.853	
282.00	-62.670	44.392	
283.00	-62.877	22.691	
284.00	-63.765	6.748	
285.00	-63.652	-10.241	
286.00	-65.637	-30.181	
287.00	-67.453	-66.246	
288.00	-67.766	-83.935	
289.00	-66.157	-113.241	
290.00	-66.321	-138.174	
291.00	-64.609	-153.933	
292.00	-62.667	-169.236	
293.00	-61.019	178.583	
294.00	-60.718	165.363	
295.00	-60.861	155.395	
296.00	-60.972	139.745	
297.00	-59.869	126.387	
298.00	-58.543	110.340	
299.00	-57.359	91.451	
300.00	-57.511	74.099	
301.00	-56.217	62.791	
302.00	-55.872	46.323	
303.00	-55.640	30.179	
304.00	-56.512	12.894	
305.00	-56.747	-4.707	
306.00	-56.944	-24.725	
307.00	-57.549	-41.135	
308.00	-58.225	-59.947	
309.00	-59.352	-73.894	
310.00	-61.423	-87.312	
311.00	-65.405	-111.437	
312.00	-70.441	-136.489	
313.00	-78.633	138.915	
314.00	-69.748	69.458	
315.00	-67.302	64.106	
316.00	-64.736	36.908	
317.00	-61.934	15.072	
318.00	-60.263	4.411	
319.00	-59.600	-8.392	
320.00	-58.932	-15.512	
321.00	-57.802	-21.228	
322.00	-57.058	-31.916	
323.00	-57.491	-41.338	
324.00	-57.920	-44.970	
325.00	-58.171	-49.187	
326.00	-59.448	-55.041	
327.00	-60.430	-52.389	
328.00	-61.118	-47.946	
329.00	-61.978	-52.594	
330.00	-62.450	-53.833	
331.00	-63.463	-54.608	
332.00	-65.020	-65.954	
333.00	-65.957	-79.785	
334.00	-67.197	-103.639	
335.00	-66.216	-125.938	
336.00	-64.862	-145.331	
337.00	-64.301	-167.291	
338.00	-62.703	173.980	
339.00	-61.648	173.687	
340.00	-62.618	160.949	
341.00	-61.982	146.853	
342.00	-61.682	137.031	
343.00	-63.159	130.118	
344.00	-62.784	119.371	
345.00	-63.935	101.688	
346.00	-65.274	115.461	
347.00	-66.805	98.857	
348.00	-67.634	103.447	
349.00	-69.033	95.525	
350.00	-65.996	111.765	
351.00	-69.929	107.299	
352.00	-72.486	128.661	
353.00	-75.106	-169.082	
354.00	-73.798	-176.519	
355.00	-66.528	-157.442	
356.00	-65.805	-149.310	
357.00	-62.966	-145.792	
358.00	-61.528	-153.887	
359.00	-63.740	-166.312	
Frequency	2350.00	MHz	
Channel	test		
Scan Axis name	Azimuth  [deg]		
Scan Axis	Amplitude	Phase	
			
0.00	-62.063	-90.749	
1.00	-61.789	-103.369	
2.00	-61.632	-109.854	
3.00	-61.322	-115.574	
4.00	-61.442	-120.667	
5.00	-61.807	-120.052	
6.00	-62.488	-117.104	
7.00	-63.051	-108.897	
8.00	-64.599	-99.405	
9.00	-66.609	-86.490	
10.00	-70.936	-68.362	
11.00	-84.036	-16.555	
12.00	-72.559	96.988	
13.00	-67.762	110.972	
14.00	-65.477	113.738	
15.00	-65.234	113.258	
16.00	-65.110	114.085	
17.00	-66.214	108.573	
18.00	-66.397	110.111	
19.00	-68.776	119.301	
20.00	-71.400	124.105	
21.00	-77.688	168.330	
22.00	-78.566	-120.041	
23.00	-74.087	-85.526	
24.00	-73.094	-76.383	
25.00	-73.427	-80.324	
26.00	-74.996	-79.420	
27.00	-74.478	-64.389	
28.00	-72.771	-38.977	
29.00	-68.423	-9.596	
30.00	-64.888	13.923	
31.00	-62.604	29.345	
32.00	-61.482	40.783	
33.00	-61.641	57.105	
34.00	-62.541	70.480	
35.00	-65.355	84.999	
36.00	-68.962	102.617	
37.00	-76.370	125.248	
38.00	-76.006	178.792	
39.00	-75.007	-147.198	
40.00	-70.054	-137.498	
41.00	-67.109	-126.129	
42.00	-65.426	-110.667	
43.00	-63.541	-97.740	
44.00	-63.085	-82.938	
45.00	-62.735	-74.006	
46.00	-63.535	-70.019	
47.00	-63.964	-76.411	
48.00	-62.870	-87.152	
49.00	-60.749	-91.147	
50.00	-59.031	-84.297	
51.00	-57.488	-72.888	
52.00	-56.984	-56.785	
53.00	-57.283	-36.176	
54.00	-58.052	-12.042	
55.00	-58.201	14.998	
56.00	-58.275	41.608	
57.00	-58.292	68.902	
58.00	-58.565	88.121	
59.00	-59.120	99.550	
60.00	-59.780	106.971	
61.00	-60.279	107.133	
62.00	-60.641	101.342	
63.00	-59.750	99.831	
64.00	-59.158	104.125	
65.00	-59.031	111.751	
66.00	-59.684	123.729	
67.00	-60.809	142.180	
68.00	-63.203	160.270	
69.00	-67.255	-167.336	
70.00	-70.132	-117.727	
71.00	-69.131	-58.316	
72.00	-66.669	-19.761	
73.00	-65.254	7.617	
74.00	-66.796	25.376	
75.00	-70.031	51.791	
76.00	-77.460	134.811	
77.00	-68.031	-138.894	
78.00	-62.201	-114.863	
79.00	-58.469	-96.664	
80.00	-56.514	-79.116	
81.00	-55.324	-61.118	
82.00	-54.159	-42.087	
83.00	-53.834	-22.654	
84.00	-53.723	-0.975	
85.00	-53.958	20.536	
86.00	-54.239	43.012	
87.00	-54.781	70.176	
88.00	-55.016	96.785	
89.00	-55.072	122.217	
90.00	-55.164	156.221	
91.00	-54.257	178.099	
92.00	-53.611	-153.808	
93.00	-54.194	-137.474	
94.00	-53.581	-106.771	
95.00	-53.599	-86.939	
96.00	-54.568	-59.857	
97.00	-55.175	-33.809	
98.00	-54.940	-11.267	
99.00	-55.187	11.806	
100.00	-54.966	31.562	
101.00	-55.613	56.719	
102.00	-56.262	75.238	
103.00	-57.503	85.481	
104.00	-59.133	89.824	
105.00	-61.599	92.937	
106.00	-63.076	75.218	
107.00	-62.179	62.899	
108.00	-60.406	55.551	
109.00	-58.811	61.895	
110.00	-57.650	69.820	
111.00	-57.183	83.557	
112.00	-57.000	97.687	
113.00	-57.289	116.935	
114.00	-57.606	134.962	
115.00	-58.274	151.772	
116.00	-58.934	167.180	
117.00	-61.042	174.017	
118.00	-62.460	173.777	
119.00	-63.737	153.792	
120.00	-61.346	129.329	
121.00	-58.153	121.058	
122.00	-55.683	122.117	
123.00	-54.227	125.532	
124.00	-53.573	131.749	
125.00	-53.866	136.514	
126.00	-55.039	140.218	
127.00	-57.161	139.865	
128.00	-60.323	129.236	
129.00	-62.761	100.668	
130.00	-61.221	81.594	
131.00	-59.725	83.012	
132.00	-58.435	95.453	
133.00	-57.894	118.796	
134.00	-56.766	139.378	
135.00	-55.346	157.991	
136.00	-54.945	169.254	
137.00	-55.438	173.767	
138.00	-57.189	164.462	
139.00	-58.257	133.846	
140.00	-54.921	104.373	
141.00	-51.259	95.647	
142.00	-48.932	97.628	
143.00	-47.577	102.201	
144.00	-47.180	109.600	
145.00	-47.778	117.335	
146.00	-49.362	125.957	
147.00	-52.799	131.156	
148.00	-59.879	128.285	
149.00	-63.344	13.448	
150.00	-54.395	-2.369	
151.00	-50.784	1.674	
152.00	-49.578	7.324	
153.00	-50.071	13.696	
154.00	-52.572	18.967	
155.00	-58.907	19.861	
156.00	-67.109	-92.812	
157.00	-54.984	-117.669	
158.00	-50.599	-110.949	
159.00	-48.613	-101.386	
160.00	-48.082	-89.719	
161.00	-48.490	-75.096	
162.00	-49.936	-52.556	
163.00	-51.033	-20.058	
164.00	-49.929	15.412	
165.00	-47.974	36.764	
166.00	-46.674	47.540	
167.00	-46.513	51.088	
168.00	-47.383	47.813	
169.00	-49.292	33.701	
170.00	-50.737	3.458	
171.00	-49.397	-28.344	
172.00	-47.397	-49.455	
173.00	-46.122	-63.776	
174.00	-45.878	-77.536	
175.00	-46.520	-94.838	
176.00	-47.292	-119.858	
177.00	-47.253	-150.154	
178.00	-46.483	-177.282	
179.00	-46.071	158.238	
180.00	-46.574	129.546	
181.00	-46.554	84.693	
182.00	-42.663	39.202	
183.00	-37.830	15.083	
184.00	-33.889	1.060	
185.00	-30.954	-8.143	
186.00	-28.782	-15.380	
187.00	-27.217	-21.670	
188.00	-26.219	-27.467	
189.00	-25.711	-33.213	
190.00	-25.680	-38.773	
191.00	-26.113	-44.541	
192.00	-27.035	-50.555	
193.00	-28.477	-57.113	
194.00	-30.592	-64.568	
195.00	-33.480	-73.546	
196.00	-37.483	-85.427	
197.00	-43.592	-107.386	
198.00	-50.061	-164.521	
199.00	-46.851	128.984	
200.00	-44.611	108.151	
201.00	-44.161	96.219	
202.00	-45.422	88.403	
203.00	-48.624	81.977	
204.00	-54.511	81.696	
205.00	-66.988	121.599	
206.00	-60.237	-137.656	
207.00	-56.063	-129.778	
208.00	-55.707	-123.054	
209.00	-56.777	-104.772	
210.00	-56.422	-75.064	
211.00	-53.769	-53.419	
212.00	-51.252	-46.840	
213.00	-49.942	-47.963	
214.00	-49.737	-53.195	
215.00	-50.898	-61.138	
216.00	-53.529	-72.623	
217.00	-58.819	-95.658	
218.00	-65.677	175.403	
219.00	-58.194	103.795	
220.00	-53.349	89.320	
221.00	-51.605	79.443	
222.00	-49.110	55.713	
223.00	-49.471	42.471	
224.00	-50.795	29.462	
225.00	-52.360	17.235	
226.00	-55.121	10.627	
227.00	-60.063	-0.344	
228.00	-65.682	19.816	
229.00	-68.281	91.307	
230.00	-61.032	102.900	
231.00	-58.109	89.953	
232.00	-56.667	75.437	
233.00	-55.662	58.364	
234.00	-55.071	44.217	
235.00	-54.781	32.079	
236.00	-54.791	22.223	
237.00	-55.141	17.139	
238.00	-55.577	16.065	
239.00	-55.777	18.848	
240.00	-55.727	22.739	
241.00	-55.287	24.791	
242.00	-54.745	21.491	
243.00	-54.331	15.881	
244.00	-54.428	6.078	
245.00	-54.753	-7.645	
246.00	-55.076	-23.257	
247.00	-55.637	-42.221	
248.00	-56.124	-61.405	
249.00	-56.479	-84.147	
250.00	-56.585	-104.719	
251.00	-56.651	-123.700	
252.00	-56.940	-140.116	
253.00	-57.669	-153.887	
254.00	-58.736	-166.345	
255.00	-60.305	-177.732	
256.00	-62.600	172.776	
257.00	-65.439	164.055	
258.00	-68.405	155.119	
259.00	-72.580	145.286	
260.00	-78.545	149.513	
261.00	-82.708	123.955	
262.00	-85.451	105.280	
263.00	-81.330	34.566	
264.00	-75.495	21.826	
265.00	-70.758	15.512	
266.00	-67.261	-0.193	
267.00	-64.932	-9.024	
268.00	-62.861	-18.752	
269.00	-61.435	-31.401	
270.00	-60.818	-43.132	
271.00	-60.044	-58.151	
272.00	-59.643	-73.931	
273.00	-59.520	-91.677	
274.00	-59.302	-111.029	
275.00	-59.123	-130.540	
276.00	-59.086	-149.135	
277.00	-58.916	-167.357	
278.00	-58.869	174.007	
279.00	-59.145	154.574	
280.00	-59.777	136.255	
281.00	-60.484	117.597	
282.00	-61.986	95.382	
283.00	-63.517	69.516	
284.00	-64.867	36.652	
285.00	-64.264	8.594	
286.00	-64.417	-27.041	
287.00	-63.649	-57.584	
288.00	-63.596	-73.822	
289.00	-64.316	-88.813	
290.00	-66.584	-94.699	
291.00	-70.033	-92.538	
292.00	-73.642	-68.523	
293.00	-72.458	-28.477	
294.00	-68.556	-21.302	
295.00	-66.613	-29.839	
296.00	-65.241	-47.279	
297.00	-64.801	-68.830	
298.00	-64.109	-93.183	
299.00	-64.046	-119.350	
300.00	-63.974	-145.607	
301.00	-63.507	-172.884	
302.00	-62.570	161.636	
303.00	-62.366	136.781	
304.00	-62.031	113.664	
305.00	-62.219	89.347	
306.00	-62.862	62.142	
307.00	-63.014	36.693	
308.00	-62.282	9.679	
309.00	-61.554	-9.929	
310.00	-61.221	-26.178	
311.00	-61.214	-37.012	
312.00	-61.944	-50.780	
313.00	-62.868	-60.580	
314.00	-63.879	-73.490	
315.00	-65.414	-90.656	
316.00	-66.854	-111.176	
317.00	-67.632	-135.587	
318.00	-69.043	-165.980	
319.00	-68.814	164.722	
320.00	-67.456	132.411	
321.00	-66.285	109.435	
322.00	-64.447	89.510	
323.00	-63.508	77.205	
324.00	-63.227	69.960	
325.00	-63.742	64.711	
326.00	-64.656	62.510	
327.00	-66.053	67.562	
328.00	-67.019	81.781	
329.00	-67.073	102.947	
330.00	-65.555	110.037	
331.00	-64.769	111.408	
332.00	-64.404	108.053	
333.00	-65.285	100.772	
334.00	-67.427	91.462	
335.00	-71.157	81.352	
336.00	-82.789	104.996	
337.00	-78.164	-143.982	
338.00	-70.325	-145.680	
339.00	-68.039	-155.119	
340.00	-66.816	-164.326	
341.00	-67.355	-170.337	
342.00	-68.371	-175.923	
343.00	-70.611	178.911	
344.00	-72.881	177.351	
345.00	-74.289	-165.993	
346.00	-73.884	-150.030	
347.00	-70.398	-138.302	
348.00	-67.863	-132.505	
349.00	-66.609	-128.640	
350.00	-66.389	-129.884	
351.00	-66.647	-116.949	
352.00	-66.233	-104.767	
353.00	-65.592	-84.893	
354.00	-63.540	-75.397	
355.00	-61.918	-66.730	
356.00	-61.255	-64.923	
357.00	-60.984	-66.527	
358.00	-61.461	-71.671	
359.00	-61.606	-79.062	
Frequency	2400.00	MHz	
Channel	test		
Scan Axis name	Azimuth  [deg]		
Scan Axis	Amplitude	Phase	
			
0.00	-61.860	-160.777	
1.00	-64.666	-168.900	
2.00	-65.087	-161.059	
3.00	-65.992	-170.096	
4.00	-67.060	175.897	
5.00	-67.294	159.272	
6.00	-67.159	153.740	
7.00	-68.702	134.982	
8.00	-66.969	105.200	
9.00	-68.181	135.276	
10.00	-69.710	133.986	
11.00	-67.922	170.331	
12.00	-65.958	175.078	
13.00	-63.128	-141.991	
14.00	-62.956	-149.899	
15.00	-63.963	-143.623	
16.00	-66.703	-137.854	
17.00	-71.754	-125.215	
18.00	-76.481	-115.069	
19.00	-79.309	-71.884	
20.00	-74.955	-30.820	
21.00	-72.697	-22.790	
22.00	-70.420	-28.980	
23.00	-70.109	-29.007	
24.00	-71.687	-43.386	
25.00	-71.629	-67.333	
26.00	-67.935	-92.440	
27.00	-66.375	-96.560	
28.00	-66.352	-93.465	
29.00	-68.075	-93.498	
30.00	-72.973	-106.145	
31.00	-79.492	-164.391	
32.00	-70.080	162.880	
33.00	-68.285	163.474	
34.00	-70.371	163.457	
35.00	-74.549	138.472	
36.00	-74.034	83.448	
37.00	-67.804	63.291	
38.00	-65.533	59.949	
39.00	-66.028	55.362	
40.00	-67.915	44.758	
41.00	-67.359	16.078	
42.00	-64.346	2.355	
43.00	-62.924	4.581	
44.00	-61.615	12.053	
45.00	-62.364	23.570	
46.00	-64.458	39.843	
47.00	-67.284	51.853	
48.00	-73.863	65.259	
49.00	-82.501	43.130	
50.00	-82.117	47.742	
51.00	-74.929	56.822	
52.00	-69.792	82.199	
53.00	-65.157	107.139	
54.00	-63.221	134.577	
55.00	-62.838	147.303	
56.00	-63.916	171.884	
57.00	-66.078	-164.204	
58.00	-72.701	-121.682	
59.00	-71.452	-16.552	
60.00	-66.085	36.012	
61.00	-62.285	63.840	
62.00	-60.287	92.528	
63.00	-59.307	117.768	
64.00	-59.085	147.781	
65.00	-58.389	-179.103	
66.00	-57.550	-144.585	
67.00	-57.113	-111.735	
68.00	-56.192	-84.369	
69.00	-55.983	-55.450	
70.00	-55.900	-28.873	
71.00	-56.463	2.073	
72.00	-57.014	34.673	
73.00	-57.495	66.905	
74.00	-57.330	101.920	
75.00	-57.012	137.714	
76.00	-56.790	168.958	
77.00	-56.428	-161.798	
78.00	-56.474	-131.890	
79.00	-56.392	-101.451	
80.00	-56.527	-70.349	
81.00	-56.607	-39.283	
82.00	-56.216	-9.471	
83.00	-56.570	21.696	
84.00	-56.668	52.349	
85.00	-56.285	86.377	
86.00	-55.379	118.236	
87.00	-54.235	149.558	
88.00	-53.587	174.025	
89.00	-52.528	-158.328	
90.00	-51.923	-133.187	
91.00	-51.450	-113.596	
92.00	-50.942	-91.738	
93.00	-51.265	-70.279	
94.00	-51.591	-47.495	
95.00	-51.821	-22.196	
96.00	-52.074	1.495	
97.00	-52.599	28.138	
98.00	-52.786	52.160	
99.00	-53.342	76.968	
100.00	-53.748	105.006	
101.00	-53.952	141.308	
102.00	-53.847	174.053	
103.00	-53.750	-162.705	
104.00	-53.826	-138.846	
105.00	-54.148	-116.912	
106.00	-54.820	-98.903	
107.00	-56.394	-75.589	
108.00	-58.532	-50.980	
109.00	-61.124	-13.851	
110.00	-61.757	31.723	
111.00	-60.791	67.515	
112.00	-60.418	90.437	
113.00	-60.860	116.268	
114.00	-62.913	134.640	
115.00	-65.227	-177.905	
116.00	-65.843	-129.994	
117.00	-62.744	-94.468	
118.00	-61.255	-75.009	
119.00	-60.280	-69.285	
120.00	-62.025	-69.670	
121.00	-65.137	-90.074	
122.00	-63.921	-120.419	
123.00	-61.451	-144.822	
124.00	-59.507	-149.283	
125.00	-58.687	-150.599	
126.00	-60.424	-150.748	
127.00	-65.160	-152.355	
128.00	-70.320	151.355	
129.00	-63.420	91.904	
130.00	-59.435	88.531	
131.00	-57.912	98.034	
132.00	-57.819	112.868	
133.00	-58.809	140.273	
134.00	-58.672	178.405	
135.00	-57.133	-148.006	
136.00	-54.851	-123.467	
137.00	-54.021	-106.824	
138.00	-54.180	-94.250	
139.00	-55.682	-83.522	
140.00	-59.847	-73.001	
141.00	-69.961	-83.687	
142.00	-63.964	167.043	
143.00	-57.580	164.854	
144.00	-54.182	174.236	
145.00	-52.518	-174.366	
146.00	-51.971	-162.624	
147.00	-52.825	-149.732	
148.00	-55.146	-137.243	
149.00	-60.807	-111.270	
150.00	-64.373	-15.767	
151.00	-56.609	31.584	
152.00	-52.833	47.170	
153.00	-51.215	56.938	
154.00	-51.080	64.415	
155.00	-52.001	70.075	
156.00	-54.413	69.478	
157.00	-58.048	51.865	
158.00	-58.445	6.895	
159.00	-54.553	-18.012	
160.00	-51.986	-22.918	
161.00	-50.950	-20.372	
162.00	-51.583	-14.021	
163.00	-54.171	1.924	
164.00	-58.029	36.010	
165.00	-57.798	100.749	
166.00	-53.408	128.265	
167.00	-50.902	141.818	
168.00	-50.331	147.331	
169.00	-51.638	149.509	
170.00	-55.350	143.792	
171.00	-63.323	94.817	
172.00	-56.044	13.848	
173.00	-50.718	1.811	
174.00	-48.372	-6.165	
175.00	-47.529	-12.795	
176.00	-47.933	-24.100	
177.00	-49.110	-40.897	
178.00	-50.469	-68.492	
179.00	-50.505	-101.206	
180.00	-49.732	-130.370	
181.00	-49.425	-156.604	
182.00	-49.998	166.714	
183.00	-48.087	119.238	
184.00	-43.466	84.208	
185.00	-39.122	65.872	
186.00	-35.955	54.578	
187.00	-33.698	46.380	
188.00	-32.184	39.524	
189.00	-31.307	33.759	
190.00	-30.995	28.401	
191.00	-31.262	22.888	
192.00	-32.086	17.362	
193.00	-33.523	11.050	
194.00	-35.826	4.306	
195.00	-39.090	-4.863	
196.00	-44.058	-15.732	
197.00	-51.092	-44.196	
198.00	-55.131	-132.981	
199.00	-51.284	-169.392	
200.00	-50.206	174.627	
201.00	-51.187	164.108	
202.00	-54.475	166.623	
203.00	-60.679	175.979	
204.00	-64.901	-123.253	
205.00	-61.855	-88.939	
206.00	-61.074	-86.988	
207.00	-64.908	-93.364	
208.00	-85.679	99.179	
209.00	-61.677	79.245	
210.00	-56.025	67.716	
211.00	-53.087	57.837	
212.00	-51.486	48.402	
213.00	-51.130	39.531	
214.00	-52.336	29.640	
215.00	-54.763	22.619	
216.00	-60.372	22.444	
217.00	-69.472	103.252	
218.00	-59.403	146.909	
219.00	-54.860	136.328	
220.00	-53.157	124.229	
221.00	-52.774	110.018	
222.00	-53.149	107.792	
223.00	-56.131	83.634	
224.00	-58.030	73.602	
225.00	-65.850	57.580	
226.00	-71.410	-142.753	
227.00	-60.612	-147.811	
228.00	-55.376	-163.592	
229.00	-53.156	177.937	
230.00	-52.231	162.678	
231.00	-51.723	147.634	
232.00	-52.130	130.448	
233.00	-53.251	113.541	
234.00	-55.323	94.745	
235.00	-58.256	71.568	
236.00	-63.059	41.378	
237.00	-66.390	-31.083	
238.00	-62.906	-88.487	
239.00	-58.638	-114.696	
240.00	-57.667	-137.546	
241.00	-57.226	-154.670	
242.00	-57.831	-171.525	
243.00	-59.283	169.057	
244.00	-62.184	144.745	
245.00	-64.698	113.281	
246.00	-66.302	71.537	
247.00	-66.958	33.600	
248.00	-67.266	4.459	
249.00	-68.715	-26.415	
250.00	-71.171	-54.593	
251.00	-72.781	-121.410	
252.00	-70.727	-160.996	
253.00	-69.561	164.897	
254.00	-68.211	133.395	
255.00	-67.798	106.081	
256.00	-67.854	76.159	
257.00	-65.585	53.680	
258.00	-65.037	1.284	
259.00	-65.163	-6.832	
260.00	-66.741	-41.038	
261.00	-65.978	-55.002	
262.00	-67.485	-80.678	
263.00	-66.869	-110.478	
264.00	-66.313	-152.656	
265.00	-64.980	-165.501	
266.00	-63.134	164.625	
267.00	-63.621	147.642	
268.00	-62.877	125.504	
269.00	-62.687	106.363	
270.00	-63.054	83.589	
271.00	-62.673	60.200	
272.00	-62.634	36.575	
273.00	-62.268	17.372	
274.00	-61.868	-2.588	
275.00	-61.920	-23.273	
276.00	-62.250	-41.904	
277.00	-62.919	-61.964	
278.00	-64.006	-82.865	
279.00	-64.370	-109.506	
280.00	-65.478	-132.383	
281.00	-67.963	-153.347	
282.00	-70.782	-178.750	
283.00	-73.552	137.901	
284.00	-72.997	85.482	
285.00	-68.753	48.503	
286.00	-66.909	24.396	
287.00	-66.415	-2.760	
288.00	-66.130	-13.526	
289.00	-67.256	-28.525	
290.00	-68.600	-39.220	
291.00	-71.736	-49.478	
292.00	-74.943	-19.688	
293.00	-75.120	24.821	
294.00	-70.216	22.895	
295.00	-66.482	10.562	
296.00	-65.161	7.501	
297.00	-64.284	-10.713	
298.00	-63.552	-16.401	
299.00	-63.362	-33.171	
300.00	-64.158	-46.280	
301.00	-63.960	-68.448	
302.00	-64.814	-91.929	
303.00	-65.213	-110.330	
304.00	-65.557	-133.736	
305.00	-65.197	-150.192	
306.00	-65.071	-167.214	
307.00	-64.580	-178.006	
308.00	-63.983	169.502	
309.00	-64.397	161.845	
310.00	-64.222	145.367	
311.00	-64.357	130.937	
312.00	-64.591	117.327	
313.00	-65.114	100.486	
314.00	-65.644	85.551	
315.00	-67.566	70.895	
316.00	-69.414	54.554	
317.00	-74.495	32.381	
318.00	-82.763	-16.300	
319.00	-83.360	-129.543	
320.00	-75.630	-155.234	
321.00	-72.644	-173.824	
322.00	-72.515	161.454	
323.00	-73.915	142.022	
324.00	-75.320	126.407	
325.00	-79.736	117.100	
326.00	-88.602	-165.275	
327.00	-74.530	-118.569	
328.00	-69.510	-133.762	
329.00	-65.486	-143.304	
330.00	-63.832	-151.223	
331.00	-62.357	-162.490	
332.00	-62.424	-177.842	
333.00	-63.476	177.467	
334.00	-65.867	171.765	
335.00	-69.641	172.277	
336.00	-73.084	-175.405	
337.00	-72.401	-157.965	
338.00	-71.340	-141.927	
339.00	-69.298	-146.940	
340.00	-69.017	-165.415	
341.00	-69.099	174.129	
342.00	-71.603	148.594	
343.00	-70.911	127.449	
344.00	-71.414	80.402	
345.00	-71.114	52.660	
346.00	-69.958	28.299	
347.00	-67.915	3.102	
348.00	-66.040	-12.034	
349.00	-64.650	-25.212	
350.00	-65.140	-38.833	
351.00	-65.505	-36.961	
352.00	-66.433	-40.986	
353.00	-69.345	-57.968	
354.00	-73.454	-44.818	
355.00	-78.875	-74.678	
356.00	-75.909	-146.054	
357.00	-70.960	-160.980	
358.00	-67.101	-166.649	
359.00	-65.065	-163.613	
Frequency	2450.00	MHz	
Channel	test		
Scan Axis name	Azimuth  [deg]		
Scan Axis	Amplitude	Phase	
			
0.00	-69.014	-134.487	
1.00	-69.245	-116.599	
2.00	-71.718	-114.562	
3.00	-70.733	-122.069	
4.00	-73.341	-87.953	
5.00	-73.790	-81.249	
6.00	-74.935	-80.430	
7.00	-84.928	-54.384	
8.00	-78.895	17.128	
9.00	-74.623	16.277	
10.00	-69.781	30.786	
11.00	-69.970	24.845	
12.00	-70.117	-7.898	
13.00	-70.951	-26.432	
14.00	-72.391	-64.650	
15.00	-72.633	-61.245	
16.00	-73.815	-97.021	
17.00	-74.025	-141.108	
18.00	-69.898	-153.733	
19.00	-68.391	-159.308	
20.00	-65.976	-159.745	
21.00	-66.478	-154.554	
22.00	-66.859	-158.695	
23.00	-68.518	-174.277	
24.00	-66.680	-178.821	
25.00	-66.781	-176.251	
26.00	-66.482	-173.377	
27.00	-68.084	-165.842	
28.00	-70.424	-160.489	
29.00	-71.670	-154.449	
30.00	-73.640	-138.528	
31.00	-73.720	-139.229	
32.00	-73.569	-110.079	
33.00	-72.085	-67.589	
34.00	-71.981	-20.668	
35.00	-67.532	34.369	
36.00	-64.040	63.841	
37.00	-62.184	89.903	
38.00	-61.553	116.063	
39.00	-61.796	134.495	
40.00	-63.926	154.016	
41.00	-67.018	-179.387	
42.00	-69.153	-170.016	
43.00	-72.726	-173.233	
44.00	-71.568	169.324	
45.00	-64.508	167.925	
46.00	-62.666	173.940	
47.00	-60.251	-170.522	
48.00	-58.955	-162.042	
49.00	-59.683	-159.173	
50.00	-60.610	-165.368	
51.00	-60.235	-171.169	
52.00	-59.146	-175.945	
53.00	-58.182	-171.699	
54.00	-58.092	-157.912	
55.00	-59.222	-137.131	
56.00	-60.745	-102.070	
57.00	-61.969	-50.053	
58.00	-61.018	-1.786	
59.00	-59.752	40.332	
60.00	-58.171	67.483	
61.00	-57.776	108.643	
62.00	-58.099	146.946	
63.00	-56.397	-172.627	
64.00	-55.071	-134.819	
65.00	-53.547	-104.463	
66.00	-52.566	-77.224	
67.00	-52.240	-48.683	
68.00	-52.499	-23.588	
69.00	-53.348	6.006	
70.00	-54.313	39.272	
71.00	-55.348	83.151	
72.00	-54.826	126.283	
73.00	-53.612	163.656	
74.00	-52.334	-164.036	
75.00	-51.383	-135.278	
76.00	-50.730	-106.582	
77.00	-50.227	-78.311	
78.00	-50.088	-49.922	
79.00	-49.744	-22.266	
80.00	-49.585	4.522	
81.00	-49.591	32.212	
82.00	-49.674	59.648	
83.00	-49.800	90.131	
84.00	-49.597	120.225	
85.00	-49.501	149.580	
86.00	-49.079	177.334	
87.00	-48.873	-156.222	
88.00	-48.460	-128.872	
89.00	-48.086	-103.319	
90.00	-47.687	-77.125	
91.00	-47.761	-51.437	
92.00	-48.265	-25.166	
93.00	-47.747	-3.084	
94.00	-47.436	23.544	
95.00	-47.964	48.293	
96.00	-47.800	72.388	
97.00	-47.784	97.050	
98.00	-47.806	123.314	
99.00	-47.591	146.564	
100.00	-48.006	171.057	
101.00	-48.246	-154.966	
102.00	-48.733	-127.228	
103.00	-49.095	-102.580	
104.00	-49.512	-76.648	
105.00	-49.769	-49.915	
106.00	-49.947	-23.868	
107.00	-50.011	4.117	
108.00	-50.369	28.144	
109.00	-50.352	52.439	
110.00	-50.583	75.372	
111.00	-51.234	97.832	
112.00	-52.129	115.562	
113.00	-54.040	136.245	
114.00	-56.382	160.157	
115.00	-59.550	-167.760	
116.00	-61.875	-119.396	
117.00	-61.823	-73.492	
118.00	-59.280	-39.950	
119.00	-58.634	-19.629	
120.00	-59.170	-9.759	
121.00	-59.714	-4.847	
122.00	-61.143	-11.917	
123.00	-61.914	-30.929	
124.00	-60.007	-47.466	
125.00	-58.357	-52.903	
126.00	-57.557	-50.082	
127.00	-58.627	-49.933	
128.00	-63.739	-51.131	
129.00	-72.812	-90.157	
130.00	-63.744	-171.577	
131.00	-57.571	-175.591	
132.00	-55.241	-168.970	
133.00	-53.865	-155.870	
134.00	-54.199	-137.983	
135.00	-55.420	-116.488	
136.00	-56.382	-85.628	
137.00	-56.978	-52.190	
138.00	-57.334	-15.499	
139.00	-57.151	18.634	
140.00	-57.273	52.509	
141.00	-57.034	87.587	
142.00	-57.025	121.382	
143.00	-57.265	157.701	
144.00	-56.552	-167.244	
145.00	-55.791	-133.887	
146.00	-56.229	-102.837	
147.00	-56.407	-70.634	
148.00	-57.762	-30.255	
149.00	-56.418	20.027	
150.00	-52.785	55.066	
151.00	-50.457	76.789	
152.00	-48.880	93.994	
153.00	-48.575	106.831	
154.00	-49.353	120.740	
155.00	-51.254	132.086	
156.00	-55.023	143.699	
157.00	-64.558	136.547	
158.00	-60.863	16.451	
159.00	-52.757	13.834	
160.00	-49.203	18.987	
161.00	-47.771	24.841	
162.00	-47.760	31.461	
163.00	-49.591	39.182	
164.00	-53.820	53.261	
165.00	-63.165	111.225	
166.00	-56.364	-156.451	
167.00	-51.405	-139.090	
168.00	-49.315	-129.018	
169.00	-49.366	-120.878	
170.00	-51.663	-109.929	
171.00	-57.969	-85.292	
172.00	-58.080	17.273	
173.00	-50.930	44.439	
174.00	-47.497	50.221	
175.00	-46.074	51.723	
176.00	-46.206	49.825	
177.00	-47.645	41.882	
178.00	-49.985	27.695	
179.00	-52.552	1.887	
180.00	-55.479	-28.324	
181.00	-63.953	-74.826	
182.00	-55.444	137.182	
183.00	-44.737	121.621	
184.00	-38.738	114.286	
185.00	-34.655	109.047	
186.00	-31.714	104.179	
187.00	-29.585	100.177	
188.00	-28.199	96.573	
189.00	-27.407	93.237	
190.00	-27.149	89.930	
191.00	-27.439	86.642	
192.00	-28.272	83.383	
193.00	-29.693	80.621	
194.00	-31.847	78.069	
195.00	-34.929	77.040	
196.00	-39.096	80.797	
197.00	-44.909	96.785	
198.00	-49.075	144.760	
199.00	-47.287	178.827	
200.00	-46.464	-173.584	
201.00	-47.522	-171.447	
202.00	-51.730	-169.225	
203.00	-58.924	-166.434	
204.00	-61.480	-50.716	
205.00	-54.395	-33.561	
206.00	-52.590	-37.228	
207.00	-52.464	-45.988	
208.00	-55.232	-58.078	
209.00	-59.951	-82.484	
210.00	-67.369	-148.012	
211.00	-63.122	122.533	
212.00	-58.697	87.121	
213.00	-57.254	57.435	
214.00	-55.861	17.463	
215.00	-54.599	-16.708	
216.00	-51.288	-45.576	
217.00	-50.450	-66.415	
218.00	-49.824	-84.875	
219.00	-50.543	-100.866	
220.00	-51.564	-124.574	
221.00	-52.556	-142.338	
222.00	-55.827	-158.321	
223.00	-56.217	167.217	
224.00	-70.641	117.068	
225.00	-68.410	-25.306	
226.00	-58.462	-56.255	
227.00	-54.982	-75.067	
228.00	-51.861	-96.226	
229.00	-50.943	-113.277	
230.00	-50.402	-129.582	
231.00	-50.658	-148.958	
232.00	-51.402	-169.607	
233.00	-53.168	165.879	
234.00	-54.478	138.749	
235.00	-55.931	106.282	
236.00	-56.648	73.067	
237.00	-57.010	39.006	
238.00	-56.220	8.688	
239.00	-56.729	-15.014	
240.00	-57.334	-35.001	
241.00	-58.757	-48.646	
242.00	-60.889	-66.599	
243.00	-63.670	-75.047	
244.00	-69.710	-67.457	
245.00	-71.133	-20.429	
246.00	-69.012	-3.221	
247.00	-63.611	-20.585	
248.00	-62.065	-39.226	
249.00	-60.174	-57.646	
250.00	-59.695	-75.663	
251.00	-59.052	-94.509	
252.00	-59.415	-120.618	
253.00	-59.317	-140.083	
254.00	-59.311	-163.083	
255.00	-60.187	172.308	
256.00	-60.315	145.903	
257.00	-60.859	123.651	
258.00	-61.001	93.889	
259.00	-61.582	68.302	
260.00	-61.271	33.920	
261.00	-61.091	10.633	
262.00	-60.600	-15.290	
263.00	-60.257	-35.204	
264.00	-60.182	-58.347	
265.00	-60.853	-76.198	
266.00	-61.177	-95.499	
267.00	-62.661	-121.693	
268.00	-64.291	-145.233	
269.00	-65.366	-175.803	
270.00	-66.017	150.437	
271.00	-65.004	119.161	
272.00	-63.658	92.723	
273.00	-63.524	70.742	
274.00	-63.475	49.546	
275.00	-63.626	34.319	
276.00	-64.800	10.169	
277.00	-66.179	-9.920	
278.00	-68.877	-33.877	
279.00	-70.997	-62.763	
280.00	-73.971	-128.022	
281.00	-72.173	-179.071	
282.00	-67.772	143.134	
283.00	-64.746	116.183	
284.00	-62.541	98.968	
285.00	-61.154	75.017	
286.00	-60.059	53.772	
287.00	-59.018	27.261	
288.00	-58.412	13.555	
289.00	-57.772	-5.107	
290.00	-57.989	-22.119	
291.00	-58.815	-34.870	
292.00	-59.739	-48.386	
293.00	-61.522	-69.658	
294.00	-62.894	-86.639	
295.00	-64.107	-119.246	
296.00	-66.110	-140.204	
297.00	-67.028	-164.443	
298.00	-66.017	-175.284	
299.00	-67.640	171.929	
300.00	-68.496	158.969	
301.00	-69.994	141.184	
302.00	-70.802	121.079	
303.00	-72.877	70.012	
304.00	-69.028	21.421	
305.00	-65.723	-1.356	
306.00	-62.573	-13.886	
307.00	-60.338	-28.789	
308.00	-59.352	-46.762	
309.00	-58.568	-63.724	
310.00	-58.435	-77.568	
311.00	-58.297	-94.851	
312.00	-58.370	-107.051	
313.00	-59.767	-115.526	
314.00	-61.233	-120.095	
315.00	-64.003	-109.961	
316.00	-65.962	-99.089	
317.00	-65.927	-89.919	
318.00	-65.677	-83.327	
319.00	-66.726	-85.981	
320.00	-67.862	-104.495	
321.00	-72.539	-125.601	
322.00	-77.510	-151.470	
323.00	-76.118	146.551	
324.00	-76.944	59.600	
325.00	-69.811	14.619	
326.00	-65.174	-16.662	
327.00	-62.823	-28.388	
328.00	-60.720	-42.163	
329.00	-59.957	-54.367	
330.00	-59.088	-57.834	
331.00	-59.542	-61.392	
332.00	-61.100	-65.566	
333.00	-62.493	-56.820	
334.00	-63.199	-43.265	
335.00	-62.230	-33.017	
336.00	-61.724	-30.157	
337.00	-61.207	-33.797	
338.00	-61.642	-55.399	
339.00	-62.929	-81.040	
340.00	-62.754	-113.412	
341.00	-61.563	-143.128	
342.00	-60.753	-166.268	
343.00	-60.026	176.635	
344.00	-60.994	165.667	
345.00	-62.451	154.253	
346.00	-66.037	153.020	
347.00	-70.726	173.641	
348.00	-74.074	-101.395	
349.00	-67.932	-84.416	
350.00	-65.239	-81.201	
351.00	-64.263	-84.337	
352.00	-64.021	-85.158	
353.00	-65.445	-92.903	
354.00	-66.887	-98.380	
355.00	-70.065	-103.650	
356.00	-70.675	-115.577	
357.00	-70.559	-123.278	
358.00	-69.112	-125.277	
359.00	-68.585	-127.496	
Frequency	2496.00	MHz	
Channel	test		
Scan Axis name	Azimuth  [deg]		
Scan Axis	Amplitude	Phase	
			
0.00	-60.152	-38.699	
1.00	-61.607	-46.091	
2.00	-62.629	-51.296	
3.00	-65.734	-59.271	
4.00	-68.859	-88.229	
5.00	-69.309	-113.086	
6.00	-68.101	-124.469	
7.00	-68.195	-129.111	
8.00	-72.903	-127.261	
9.00	-80.360	-78.783	
10.00	-75.616	5.715	
11.00	-71.495	45.147	
12.00	-70.095	64.646	
13.00	-68.971	66.813	
14.00	-72.857	82.029	
15.00	-75.713	93.750	
16.00	-83.794	-177.042	
17.00	-74.650	-128.625	
18.00	-68.109	-111.684	
19.00	-65.311	-101.778	
20.00	-63.599	-85.058	
21.00	-62.781	-71.122	
22.00	-62.979	-55.977	
23.00	-64.547	-35.041	
24.00	-66.954	-20.303	
25.00	-69.940	1.164	
26.00	-71.077	1.635	
27.00	-79.067	3.987	
28.00	-82.093	-77.561	
29.00	-74.213	-102.708	
30.00	-67.629	-91.159	
31.00	-63.345	-86.117	
32.00	-62.005	-70.477	
33.00	-62.059	-53.206	
34.00	-63.299	-37.579	
35.00	-67.604	-6.955	
36.00	-69.927	102.358	
37.00	-63.028	155.567	
38.00	-58.403	170.708	
39.00	-56.596	-170.171	
40.00	-55.767	-154.580	
41.00	-56.108	-140.851	
42.00	-57.920	-130.163	
43.00	-60.109	-126.743	
44.00	-62.298	-122.376	
45.00	-63.948	-114.655	
46.00	-64.912	-113.725	
47.00	-63.983	-95.546	
48.00	-65.808	-87.683	
49.00	-69.325	-79.642	
50.00	-72.852	-79.393	
51.00	-68.893	-119.650	
52.00	-63.224	-125.574	
53.00	-61.470	-104.791	
54.00	-59.584	-68.569	
55.00	-58.100	-38.314	
56.00	-55.538	-7.227	
57.00	-53.932	23.524	
58.00	-53.016	50.016	
59.00	-53.402	74.774	
60.00	-54.053	109.011	
61.00	-54.794	149.098	
62.00	-54.270	-165.224	
63.00	-52.707	-128.646	
64.00	-51.416	-96.384	
65.00	-51.020	-68.131	
66.00	-51.454	-39.702	
67.00	-52.431	-5.136	
68.00	-53.139	33.949	
69.00	-52.591	76.641	
70.00	-51.950	116.182	
71.00	-50.884	147.346	
72.00	-50.128	179.570	
73.00	-50.069	-150.411	
74.00	-50.083	-118.789	
75.00	-49.797	-85.353	
76.00	-49.479	-53.989	
77.00	-48.868	-21.326	
78.00	-48.359	6.415	
79.00	-47.858	35.405	
80.00	-47.867	62.717	
81.00	-48.170	91.967	
82.00	-48.422	120.901	
83.00	-48.220	151.121	
84.00	-48.205	-178.050	
85.00	-47.665	-148.732	
86.00	-47.165	-119.368	
87.00	-46.734	-90.795	
88.00	-46.179	-62.605	
89.00	-45.807	-37.045	
90.00	-45.113	-12.624	
91.00	-44.904	13.008	
92.00	-44.154	35.786	
93.00	-44.207	57.365	
94.00	-43.965	81.939	
95.00	-44.174	102.427	
96.00	-43.954	125.321	
97.00	-44.014	149.963	
98.00	-44.326	171.944	
99.00	-44.351	-165.899	
100.00	-44.493	-143.570	
101.00	-44.968	-111.880	
102.00	-45.331	-82.687	
103.00	-45.900	-59.771	
104.00	-46.191	-34.764	
105.00	-46.421	-8.320	
106.00	-46.738	13.550	
107.00	-46.906	38.449	
108.00	-47.293	59.966	
109.00	-47.836	85.128	
110.00	-48.788	105.262	
111.00	-49.693	128.841	
112.00	-50.681	149.864	
113.00	-51.929	172.192	
114.00	-54.117	-164.993	
115.00	-57.226	-142.480	
116.00	-62.974	-110.356	
117.00	-68.430	-26.720	
118.00	-60.438	30.666	
119.00	-56.586	48.992	
120.00	-55.194	59.709	
121.00	-55.349	62.940	
122.00	-56.805	55.630	
123.00	-58.534	36.506	
124.00	-57.318	6.484	
125.00	-54.905	-9.981	
126.00	-53.518	-15.823	
127.00	-53.233	-16.429	
128.00	-54.131	-14.035	
129.00	-57.171	-14.017	
130.00	-64.027	-21.329	
131.00	-73.164	-128.243	
132.00	-62.509	-161.231	
133.00	-60.440	-157.017	
134.00	-61.479	-147.083	
135.00	-67.144	-135.302	
136.00	-71.743	-6.289	
137.00	-63.885	29.501	
138.00	-59.801	45.722	
139.00	-59.276	65.549	
140.00	-60.003	91.093	
141.00	-61.145	119.084	
142.00	-61.751	143.113	
143.00	-64.276	161.682	
144.00	-69.485	164.515	
145.00	-74.554	63.822	
146.00	-64.332	51.946	
147.00	-58.884	72.527	
148.00	-55.575	95.429	
149.00	-52.280	117.648	
150.00	-49.614	132.773	
151.00	-48.059	143.359	
152.00	-47.587	152.801	
153.00	-48.217	159.885	
154.00	-50.246	165.307	
155.00	-53.191	164.986	
156.00	-56.002	147.944	
157.00	-54.366	113.330	
158.00	-50.658	103.550	
159.00	-47.421	103.752	
160.00	-45.679	106.917	
161.00	-45.121	112.936	
162.00	-45.745	119.565	
163.00	-47.903	128.249	
164.00	-52.243	147.433	
165.00	-57.379	-154.792	
166.00	-52.957	-94.549	
167.00	-49.287	-74.458	
168.00	-47.604	-67.780	
169.00	-47.737	-67.030	
170.00	-49.424	-72.533	
171.00	-52.529	-96.473	
172.00	-53.751	-145.060	
173.00	-50.525	-177.425	
174.00	-48.162	168.459	
175.00	-47.645	158.827	
176.00	-48.507	148.691	
177.00	-51.302	133.440	
178.00	-55.374	95.631	
179.00	-55.540	33.298	
180.00	-53.095	-15.273	
181.00	-50.002	-63.609	
182.00	-44.728	-103.022	
183.00	-39.346	-125.650	
184.00	-35.019	-138.702	
185.00	-31.748	-146.887	
186.00	-29.282	-153.196	
187.00	-27.523	-158.143	
188.00	-26.360	-162.484	
189.00	-25.724	-166.566	
190.00	-25.606	-170.137	
191.00	-25.978	-173.522	
192.00	-26.912	-176.637	
193.00	-28.376	-179.108	
194.00	-30.598	179.437	
195.00	-33.504	-179.700	
196.00	-37.339	-174.077	
197.00	-42.221	-157.479	
198.00	-45.273	-123.166	
199.00	-45.651	-93.390	
200.00	-45.533	-78.469	
201.00	-47.229	-70.873	
202.00	-50.707	-61.083	
203.00	-57.473	-24.219	
204.00	-55.961	38.546	
205.00	-51.897	54.912	
206.00	-50.889	56.652	
207.00	-52.120	54.159	
208.00	-56.052	51.589	
209.00	-67.399	39.481	
210.00	-62.588	-144.435	
211.00	-55.298	-152.477	
212.00	-53.159	-158.121	
213.00	-53.361	-164.713	
214.00	-55.359	-168.695	
215.00	-61.075	-167.233	
216.00	-66.543	-84.901	
217.00	-58.843	-54.841	
218.00	-54.993	-55.270	
219.00	-52.394	-65.348	
220.00	-51.905	-71.022	
221.00	-52.191	-74.054	
222.00	-52.907	-80.570	
223.00	-56.042	-78.270	
224.00	-55.194	-63.828	
225.00	-54.670	-50.615	
226.00	-53.139	-45.410	
227.00	-51.594	-48.656	
228.00	-50.793	-59.144	
229.00	-50.660	-67.946	
230.00	-50.939	-79.374	
231.00	-51.728	-91.935	
232.00	-53.188	-105.590	
233.00	-55.753	-116.140	
234.00	-60.250	-126.690	
235.00	-67.772	-120.904	
236.00	-70.199	-26.269	
237.00	-62.065	-11.252	
238.00	-58.887	-23.516	
239.00	-57.932	-36.746	
240.00	-57.662	-53.573	
241.00	-58.531	-72.631	
242.00	-59.733	-91.464	
243.00	-60.822	-112.246	
244.00	-62.466	-124.694	
245.00	-65.193	-133.158	
246.00	-67.526	-113.743	
247.00	-65.788	-86.090	
248.00	-62.128	-81.597	
249.00	-59.508	-89.997	
250.00	-57.660	-100.499	
251.00	-56.452	-114.532	
252.00	-56.082	-130.816	
253.00	-55.831	-148.345	
254.00	-55.916	-167.139	
255.00	-56.230	172.116	
256.00	-56.947	148.266	
257.00	-57.173	124.759	
258.00	-57.774	95.341	
259.00	-57.318	69.417	
260.00	-57.274	44.416	
261.00	-56.955	23.961	
262.00	-57.073	-1.717	
263.00	-57.162	-21.195	
264.00	-57.425	-42.135	
265.00	-57.865	-65.014	
266.00	-58.314	-84.089	
267.00	-58.292	-105.143	
268.00	-59.357	-123.866	
269.00	-60.023	-144.803	
270.00	-60.206	-166.491	
271.00	-61.073	166.140	
272.00	-61.376	141.379	
273.00	-61.690	123.659	
274.00	-61.695	100.713	
275.00	-61.982	88.751	
276.00	-62.248	73.682	
277.00	-65.107	57.868	
278.00	-67.604	41.290	
279.00	-70.598	17.239	
280.00	-74.952	-36.674	
281.00	-72.506	-84.696	
282.00	-70.635	-121.923	
283.00	-70.879	-138.585	
284.00	-70.597	-163.437	
285.00	-70.435	-166.865	
286.00	-73.312	135.833	
287.00	-70.570	97.925	
288.00	-67.776	75.858	
289.00	-69.459	59.833	
290.00	-71.585	45.247	
291.00	-72.575	31.603	
292.00	-75.366	49.800	
293.00	-71.238	86.608	
294.00	-74.056	119.091	
295.00	-72.715	117.382	
296.00	-71.373	130.638	
297.00	-70.679	90.581	
298.00	-74.031	72.838	
299.00	-68.601	63.252	
300.00	-69.269	45.490	
301.00	-69.056	13.642	
302.00	-68.281	-13.372	
303.00	-68.207	-41.611	
304.00	-71.211	-53.465	
305.00	-69.683	-42.676	
306.00	-69.111	-43.244	
307.00	-68.701	-2.712	
308.00	-65.699	8.749	
309.00	-65.017	2.155	
310.00	-63.465	-7.523	
311.00	-62.366	-15.410	
312.00	-61.673	-22.740	
313.00	-62.233	-27.130	
314.00	-62.166	-30.107	
315.00	-62.005	-25.253	
316.00	-61.863	-17.300	
317.00	-60.676	-9.650	
318.00	-59.762	-7.488	
319.00	-60.157	-12.621	
320.00	-60.132	-16.748	
321.00	-60.430	-22.658	
322.00	-62.039	-27.058	
323.00	-62.967	-39.747	
324.00	-63.621	-57.092	
325.00	-64.757	-62.732	
326.00	-65.925	-77.180	
327.00	-65.678	-93.939	
328.00	-67.125	-119.584	
329.00	-66.730	-142.997	
330.00	-64.656	-169.807	
331.00	-62.919	177.701	
332.00	-61.892	167.403	
333.00	-61.302	152.763	
334.00	-62.230	138.233	
335.00	-63.285	119.951	
336.00	-65.110	82.515	
337.00	-66.220	45.143	
338.00	-65.518	-0.332	
339.00	-64.172	-22.426	
340.00	-61.319	-44.237	
341.00	-60.421	-60.580	
342.00	-60.031	-70.501	
343.00	-60.636	-71.766	
344.00	-62.006	-78.957	
345.00	-64.365	-74.051	
346.00	-65.885	-68.234	
347.00	-67.659	-70.301	
348.00	-66.453	-70.589	
349.00	-66.974	-57.215	
350.00	-65.791	-60.084	
351.00	-65.374	-63.744	
352.00	-64.538	-58.599	
353.00	-62.084	-57.277	
354.00	-60.901	-49.019	
355.00	-59.608	-45.471	
356.00	-58.598	-40.070	
357.00	-58.471	-38.520	
358.00	-58.978	-34.016	
359.00	-59.575	-38.226	
Frequency	2550.00	MHz	
Channel	test		
Scan Axis name	Azimuth  [deg]		
Scan Axis	Amplitude	Phase	
			
0.00	-66.964	-154.892	
1.00	-62.695	-175.431	
2.00	-63.616	-161.843	
3.00	-63.803	-175.805	
4.00	-67.001	-167.769	
5.00	-67.943	-170.648	
6.00	-67.341	-147.037	
7.00	-67.051	-115.834	
8.00	-66.382	-73.451	
9.00	-68.481	-68.258	
10.00	-69.112	-51.689	
11.00	-68.814	-49.241	
12.00	-81.642	-111.613	
13.00	-72.307	-153.237	
14.00	-76.264	-158.095	
15.00	-73.694	-99.809	
16.00	-74.373	-85.851	
17.00	-70.552	-64.150	
18.00	-66.855	-57.473	
19.00	-65.582	-65.948	
20.00	-63.644	-56.663	
21.00	-63.018	-42.086	
22.00	-64.348	-31.503	
23.00	-67.168	-20.074	
24.00	-77.052	3.188	
25.00	-76.394	174.090	
26.00	-71.557	-177.829	
27.00	-69.194	166.753	
28.00	-70.703	167.140	
29.00	-71.274	165.709	
30.00	-73.557	-171.848	
31.00	-74.583	-68.012	
32.00	-64.578	-42.746	
33.00	-61.217	-26.785	
34.00	-59.435	-16.445	
35.00	-59.059	3.557	
36.00	-60.407	12.155	
37.00	-67.258	12.036	
38.00	-69.626	-51.110	
39.00	-62.467	-80.046	
40.00	-58.453	-68.348	
41.00	-56.664	-53.299	
42.00	-55.759	-36.396	
43.00	-56.083	-22.023	
44.00	-57.754	-3.874	
45.00	-59.819	5.598	
46.00	-62.149	20.026	
47.00	-65.964	47.940	
48.00	-67.474	84.371	
49.00	-66.232	130.244	
50.00	-63.081	155.010	
51.00	-61.793	-175.082	
52.00	-59.858	-148.493	
53.00	-59.902	-114.740	
54.00	-58.408	-59.982	
55.00	-56.557	-23.370	
56.00	-54.648	6.108	
57.00	-53.593	34.931	
58.00	-53.693	61.621	
59.00	-55.014	93.318	
60.00	-56.635	134.231	
61.00	-56.835	-170.549	
62.00	-55.036	-126.573	
63.00	-53.110	-93.070	
64.00	-52.592	-59.897	
65.00	-52.645	-29.157	
66.00	-53.082	6.376	
67.00	-53.026	47.849	
68.00	-52.308	85.236	
69.00	-51.285	119.174	
70.00	-50.961	148.072	
71.00	-51.018	174.937	
72.00	-52.130	-153.581	
73.00	-53.394	-120.293	
74.00	-54.126	-77.676	
75.00	-53.684	-36.814	
76.00	-52.867	1.310	
77.00	-52.016	34.978	
78.00	-51.153	66.384	
79.00	-50.465	98.439	
80.00	-49.897	126.734	
81.00	-49.411	155.537	
82.00	-49.082	-176.017	
83.00	-49.232	-146.714	
84.00	-48.585	-117.827	
85.00	-48.415	-88.002	
86.00	-47.776	-62.048	
87.00	-46.833	-31.586	
88.00	-46.525	-6.678	
89.00	-45.734	17.836	
90.00	-45.924	44.834	
91.00	-45.653	68.602	
92.00	-45.313	95.054	
93.00	-44.882	116.066	
94.00	-45.050	140.771	
95.00	-44.347	164.157	
96.00	-44.331	-173.156	
97.00	-44.088	-149.065	
98.00	-44.301	-123.826	
99.00	-43.950	-102.039	
100.00	-43.685	-78.889	
101.00	-43.678	-45.746	
102.00	-43.613	-17.229	
103.00	-43.579	4.394	
104.00	-43.587	26.031	
105.00	-43.501	50.289	
106.00	-43.643	70.775	
107.00	-43.766	94.143	
108.00	-43.925	113.505	
109.00	-44.331	137.084	
110.00	-44.666	156.636	
111.00	-45.213	178.825	
112.00	-45.845	-162.231	
113.00	-46.827	-141.468	
114.00	-48.106	-122.010	
115.00	-49.893	-102.954	
116.00	-52.912	-82.494	
117.00	-57.001	-48.538	
118.00	-59.743	7.070	
119.00	-56.941	56.106	
120.00	-55.312	82.016	
121.00	-54.178	96.214	
122.00	-54.860	103.748	
123.00	-57.487	108.238	
124.00	-64.195	93.331	
125.00	-63.439	18.361	
126.00	-58.984	-3.493	
127.00	-56.135	-7.113	
128.00	-55.443	-6.745	
129.00	-57.197	-5.215	
130.00	-59.337	-13.076	
131.00	-65.614	-40.234	
132.00	-64.034	-112.980	
133.00	-59.652	-128.714	
134.00	-57.209	-131.248	
135.00	-57.895	-120.898	
136.00	-58.930	-116.283	
137.00	-62.410	-109.756	
138.00	-67.395	-106.338	
139.00	-77.893	131.355	
140.00	-64.269	125.295	
141.00	-59.595	127.873	
142.00	-56.510	138.606	
143.00	-56.078	140.209	
144.00	-54.877	141.467	
145.00	-55.139	146.838	
146.00	-55.981	156.111	
147.00	-56.481	172.113	
148.00	-56.509	-176.543	
149.00	-55.881	-162.665	
150.00	-54.876	-150.567	
151.00	-54.438	-138.306	
152.00	-54.478	-127.498	
153.00	-54.967	-115.499	
154.00	-55.367	-100.003	
155.00	-56.594	-89.109	
156.00	-57.631	-91.310	
157.00	-59.794	-111.030	
158.00	-57.926	-146.846	
159.00	-54.043	-167.277	
160.00	-51.645	-173.397	
161.00	-50.184	-174.831	
162.00	-50.358	-173.468	
163.00	-52.296	-171.025	
164.00	-56.987	-170.542	
165.00	-80.934	149.410	
166.00	-56.789	26.538	
167.00	-51.199	25.861	
168.00	-48.831	28.480	
169.00	-47.900	30.785	
170.00	-48.804	32.863	
171.00	-51.225	32.506	
172.00	-57.373	31.944	
173.00	-73.515	-90.332	
174.00	-56.565	-132.542	
175.00	-51.858	-144.599	
176.00	-50.925	-150.058	
177.00	-51.535	-166.201	
178.00	-54.402	162.009	
179.00	-54.636	109.622	
180.00	-50.993	67.024	
181.00	-48.073	38.214	
182.00	-45.276	6.858	
183.00	-42.221	-19.148	
184.00	-38.443	-39.279	
185.00	-35.369	-52.896	
186.00	-32.821	-61.893	
187.00	-30.891	-69.169	
188.00	-29.625	-74.737	
189.00	-28.882	-79.288	
190.00	-28.631	-83.272	
191.00	-28.947	-86.401	
192.00	-29.861	-88.823	
193.00	-31.315	-90.430	
194.00	-33.466	-90.067	
195.00	-36.284	-87.930	
196.00	-39.693	-80.179	
197.00	-43.932	-61.198	
198.00	-46.423	-32.195	
199.00	-46.472	-4.921	
200.00	-47.180	5.400	
201.00	-48.842	10.574	
202.00	-52.948	14.746	
203.00	-58.933	39.138	
204.00	-65.192	101.929	
205.00	-59.211	154.346	
206.00	-58.157	169.916	
207.00	-57.435	-173.673	
208.00	-56.780	-152.360	
209.00	-54.256	-133.315	
210.00	-51.444	-123.192	
211.00	-49.870	-123.242	
212.00	-49.198	-126.352	
213.00	-49.838	-132.307	
214.00	-51.602	-141.320	
215.00	-55.115	-150.373	
216.00	-61.579	-177.509	
217.00	-65.745	87.342	
218.00	-59.294	43.644	
219.00	-55.997	24.453	
220.00	-54.309	22.928	
221.00	-54.300	25.581	
222.00	-55.607	20.145	
223.00	-53.583	19.387	
224.00	-55.056	30.730	
225.00	-55.580	37.915	
226.00	-55.398	45.499	
227.00	-54.202	44.762	
228.00	-53.996	46.135	
229.00	-53.875	42.649	
230.00	-53.903	37.848	
231.00	-54.505	36.583	
232.00	-55.301	33.772	
233.00	-56.206	31.341	
234.00	-56.851	31.388	
235.00	-57.394	25.096	
236.00	-57.734	13.976	
237.00	-57.654	4.855	
238.00	-57.536	-11.495	
239.00	-57.357	-23.425	
240.00	-57.838	-29.988	
241.00	-58.939	-41.178	
242.00	-58.820	-40.355	
243.00	-60.597	-46.436	
244.00	-61.573	-34.548	
245.00	-61.748	-24.863	
246.00	-60.879	-23.863	
247.00	-59.974	-29.581	
248.00	-58.812	-36.134	
249.00	-58.269	-50.513	
250.00	-58.342	-62.534	
251.00	-57.840	-77.963	
252.00	-58.334	-95.780	
253.00	-60.036	-112.828	
254.00	-61.133	-141.253	
255.00	-62.054	-167.746	
256.00	-62.155	157.390	
257.00	-61.293	129.065	
258.00	-60.546	111.352	
259.00	-61.400	98.570	
260.00	-61.644	80.779	
261.00	-62.396	48.235	
262.00	-66.576	17.117	
263.00	-67.375	-1.832	
264.00	-65.868	-41.310	
265.00	-65.845	-65.339	
266.00	-65.698	-79.936	
267.00	-67.154	-105.303	
268.00	-69.619	-119.898	
269.00	-70.801	-148.940	
270.00	-70.467	175.802	
271.00	-69.211	158.848	
272.00	-69.501	158.581	
273.00	-69.089	156.748	
274.00	-69.332	153.163	
275.00	-70.114	160.651	
276.00	-71.670	158.842	
277.00	-72.534	150.534	
278.00	-75.786	161.769	
279.00	-76.629	139.817	
280.00	-85.896	-126.371	
281.00	-88.600	93.556	
282.00	-84.377	-151.567	
283.00	-79.057	12.327	
284.00	-75.447	-1.779	
285.00	-73.664	-23.496	
286.00	-69.994	-38.728	
287.00	-68.551	-35.722	
288.00	-69.333	-40.179	
289.00	-68.868	-62.299	
290.00	-68.328	-79.817	
291.00	-67.256	-84.772	
292.00	-69.449	-96.322	
293.00	-70.411	-119.378	
294.00	-70.221	-154.031	
295.00	-69.328	161.845	
296.00	-66.233	137.443	
297.00	-64.708	119.063	
298.00	-62.320	101.533	
299.00	-61.160	85.910	
300.00	-60.265	67.575	
301.00	-59.912	45.117	
302.00	-59.372	22.151	
303.00	-58.179	2.357	
304.00	-57.739	-15.491	
305.00	-58.179	-28.894	
306.00	-58.798	-50.461	
307.00	-59.567	-68.077	
308.00	-60.570	-91.864	
309.00	-61.663	-113.634	
310.00	-62.542	-135.746	
311.00	-63.205	-148.123	
312.00	-65.063	-155.664	
313.00	-67.264	-158.922	
314.00	-69.551	-137.842	
315.00	-70.876	-113.202	
316.00	-71.139	-89.908	
317.00	-71.424	-76.605	
318.00	-73.528	-52.409	
319.00	-75.669	-33.901	
320.00	-75.763	17.378	
321.00	-72.187	69.972	
322.00	-67.088	67.306	
323.00	-64.944	71.531	
324.00	-62.892	68.968	
325.00	-62.713	72.483	
326.00	-62.414	64.820	
327.00	-63.666	62.485	
328.00	-65.779	73.577	
329.00	-69.177	77.101	
330.00	-70.954	112.651	
331.00	-69.729	146.938	
332.00	-66.304	153.400	
333.00	-64.167	170.782	
334.00	-63.729	161.104	
335.00	-64.908	149.471	
336.00	-65.378	131.715	
337.00	-66.089	112.223	
338.00	-65.934	82.093	
339.00	-64.649	59.598	
340.00	-62.987	33.303	
341.00	-62.230	17.428	
342.00	-60.411	9.006	
343.00	-59.254	3.013	
344.00	-59.667	8.570	
345.00	-60.705	8.221	
346.00	-61.678	14.146	
347.00	-64.745	9.425	
348.00	-67.386	3.535	
349.00	-68.830	16.938	
350.00	-71.483	6.290	
351.00	-72.044	-2.081	
352.00	-70.403	4.257	
353.00	-70.635	-21.332	
354.00	-65.503	-24.434	
355.00	-64.511	-42.791	
356.00	-64.770	-49.897	
357.00	-65.918	-47.246	
358.00	-69.583	-68.741	
359.00	-72.576	-98.350	
Frequency	2600.00	MHz	
Channel	test		
Scan Axis name	Azimuth  [deg]		
Scan Axis	Amplitude	Phase	
			
0.00	-66.279	-168.302	
1.00	-62.316	-144.293	
2.00	-60.719	-133.583	
3.00	-60.416	-119.651	
4.00	-61.170	-108.869	
5.00	-62.962	-102.023	
6.00	-62.507	-78.013	
7.00	-61.750	-57.660	
8.00	-61.114	-36.399	
9.00	-60.338	-18.873	
10.00	-59.962	1.574	
11.00	-61.070	22.838	
12.00	-62.699	47.477	
13.00	-64.921	66.068	
14.00	-66.304	82.854	
15.00	-68.041	91.151	
16.00	-68.124	106.309	
17.00	-67.589	106.488	
18.00	-68.763	126.432	
19.00	-72.466	131.597	
20.00	-74.762	51.527	
21.00	-67.368	16.933	
22.00	-65.049	42.788	
23.00	-64.105	55.549	
24.00	-64.837	70.450	
25.00	-67.633	81.955	
26.00	-72.601	106.574	
27.00	-74.645	134.638	
28.00	-71.448	125.403	
29.00	-70.808	147.844	
30.00	-68.916	147.797	
31.00	-69.173	146.372	
32.00	-74.124	132.028	
33.00	-70.695	46.440	
34.00	-63.522	51.257	
35.00	-60.560	64.616	
36.00	-60.464	80.259	
37.00	-62.813	100.617	
38.00	-68.837	122.232	
39.00	-74.418	-95.049	
40.00	-64.798	-45.453	
41.00	-61.624	-15.219	
42.00	-60.440	8.905	
43.00	-60.079	38.188	
44.00	-60.696	65.005	
45.00	-61.837	97.073	
46.00	-62.613	133.897	
47.00	-62.487	161.634	
48.00	-61.625	-173.302	
49.00	-60.131	-156.662	
50.00	-58.339	-140.545	
51.00	-57.587	-124.201	
52.00	-57.593	-102.132	
53.00	-58.585	-73.334	
54.00	-60.328	-34.252	
55.00	-59.888	24.172	
56.00	-57.307	70.765	
57.00	-54.222	105.129	
58.00	-52.816	134.123	
59.00	-52.068	164.917	
60.00	-52.083	-166.182	
61.00	-52.284	-133.458	
62.00	-52.806	-95.363	
63.00	-53.634	-57.009	
64.00	-53.471	-12.899	
65.00	-52.800	26.601	
66.00	-51.994	61.636	
67.00	-51.673	93.795	
68.00	-51.861	124.464	
69.00	-53.017	159.515	
70.00	-54.024	-161.664	
71.00	-53.922	-115.019	
72.00	-53.071	-71.241	
73.00	-51.951	-38.035	
74.00	-51.256	-5.991	
75.00	-50.912	24.116	
76.00	-50.488	55.068	
77.00	-50.450	84.848	
78.00	-50.221	116.930	
79.00	-50.348	146.235	
80.00	-50.460	-178.747	
81.00	-50.147	-146.102	
82.00	-49.944	-112.225	
83.00	-49.262	-80.714	
84.00	-48.521	-50.478	
85.00	-47.893	-23.124	
86.00	-47.373	4.400	
87.00	-46.782	31.151	
88.00	-46.165	57.736	
89.00	-45.524	82.693	
90.00	-45.162	107.397	
91.00	-44.748	130.887	
92.00	-44.394	155.750	
93.00	-44.250	179.648	
94.00	-44.053	-156.002	
95.00	-43.783	-132.010	
96.00	-43.521	-107.313	
97.00	-43.267	-83.083	
98.00	-43.115	-59.558	
99.00	-43.028	-35.939	
100.00	-42.791	-11.089	
101.00	-42.465	23.033	
102.00	-42.249	50.703	
103.00	-42.026	73.154	
104.00	-41.707	95.088	
105.00	-41.660	118.641	
106.00	-41.475	140.227	
107.00	-41.399	164.749	
108.00	-41.233	-176.007	
109.00	-41.272	-153.081	
110.00	-41.348	-134.571	
111.00	-41.630	-112.436	
112.00	-42.175	-93.385	
113.00	-42.896	-72.461	
114.00	-43.673	-52.329	
115.00	-44.921	-32.439	
116.00	-46.370	-11.096	
117.00	-48.296	9.476	
118.00	-50.572	34.874	
119.00	-53.196	63.981	
120.00	-55.911	98.684	
121.00	-57.562	135.308	
122.00	-59.348	178.035	
123.00	-62.236	-142.782	
124.00	-62.390	-81.915	
125.00	-58.375	-32.464	
126.00	-54.514	-5.456	
127.00	-52.100	6.602	
128.00	-51.195	15.979	
129.00	-51.103	22.759	
130.00	-52.211	25.399	
131.00	-53.795	23.062	
132.00	-56.311	10.779	
133.00	-57.612	-11.740	
134.00	-56.893	-34.676	
135.00	-55.357	-45.280	
136.00	-55.016	-46.818	
137.00	-54.901	-46.058	
138.00	-56.441	-43.426	
139.00	-58.511	-41.935	
140.00	-63.179	-48.837	
141.00	-68.806	-101.658	
142.00	-62.841	-157.079	
143.00	-58.189	-163.039	
144.00	-56.140	-161.084	
145.00	-54.899	-156.755	
146.00	-54.570	-148.789	
147.00	-54.855	-140.111	
148.00	-56.058	-133.391	
149.00	-58.376	-125.707	
150.00	-62.595	-132.870	
151.00	-69.215	-177.231	
152.00	-63.157	110.526	
153.00	-58.078	97.124	
154.00	-55.701	91.037	
155.00	-54.810	89.444	
156.00	-55.418	82.291	
157.00	-57.494	69.488	
158.00	-59.296	40.640	
159.00	-59.676	0.954	
160.00	-56.347	-21.810	
161.00	-53.744	-29.965	
162.00	-52.901	-32.505	
163.00	-52.576	-27.482	
164.00	-53.333	-17.259	
165.00	-55.402	2.370	
166.00	-57.411	39.253	
167.00	-55.809	77.908	
168.00	-52.731	103.015	
169.00	-50.696	117.453	
170.00	-50.052	126.009	
171.00	-50.469	130.511	
172.00	-52.627	134.702	
173.00	-57.840	141.964	
174.00	-69.728	-139.053	
175.00	-58.159	-69.755	
176.00	-54.079	-71.784	
177.00	-53.879	-81.095	
178.00	-55.434	-94.713	
179.00	-57.881	-138.275	
180.00	-55.761	162.993	
181.00	-51.693	128.425	
182.00	-49.283	102.496	
183.00	-46.550	75.045	
184.00	-43.282	52.449	
185.00	-40.200	34.662	
186.00	-37.423	22.191	
187.00	-35.241	12.793	
188.00	-33.843	6.046	
189.00	-32.909	-0.449	
190.00	-32.694	-5.191	
191.00	-32.985	-8.998	
192.00	-33.999	-12.383	
193.00	-35.569	-14.176	
194.00	-38.021	-14.055	
195.00	-41.295	-9.613	
196.00	-45.097	5.941	
197.00	-47.681	36.791	
198.00	-47.602	62.595	
199.00	-46.844	73.183	
200.00	-47.071	74.321	
201.00	-48.034	71.873	
202.00	-50.890	65.175	
203.00	-54.627	56.239	
204.00	-60.089	37.991	
205.00	-69.661	8.822	
206.00	-69.857	-82.162	
207.00	-66.957	-74.383	
208.00	-66.397	-55.763	
209.00	-58.549	-40.301	
210.00	-60.031	-59.546	
211.00	-58.953	-74.437	
212.00	-58.142	-98.307	
213.00	-56.456	-127.029	
214.00	-55.781	-156.067	
215.00	-54.686	174.561	
216.00	-53.177	158.275	
217.00	-52.724	139.089	
218.00	-52.897	128.261	
219.00	-54.866	112.704	
220.00	-57.041	109.547	
221.00	-62.093	109.081	
222.00	-65.919	164.263	
223.00	-62.479	-165.709	
224.00	-59.207	-155.892	
225.00	-55.906	-161.490	
226.00	-54.700	-171.951	
227.00	-53.598	173.551	
228.00	-54.223	162.961	
229.00	-55.663	153.982	
230.00	-58.175	142.005	
231.00	-60.890	130.052	
232.00	-66.096	135.721	
233.00	-70.144	133.350	
234.00	-69.866	154.884	
235.00	-69.099	143.709	
236.00	-66.736	132.115	
237.00	-64.750	111.426	
238.00	-63.145	95.699	
239.00	-62.183	81.441	
240.00	-62.037	67.323	
241.00	-62.289	56.981	
242.00	-63.125	47.319	
243.00	-64.201	38.786	
244.00	-65.914	39.982	
245.00	-67.446	40.277	
246.00	-67.582	47.311	
247.00	-66.179	63.693	
248.00	-64.700	66.354	
249.00	-63.082	66.950	
250.00	-62.754	62.527	
251.00	-63.659	53.190	
252.00	-64.311	35.375	
253.00	-65.139	11.194	
254.00	-64.870	-8.029	
255.00	-64.383	-26.006	
256.00	-63.790	-37.307	
257.00	-64.155	-40.045	
258.00	-65.151	-50.404	
259.00	-65.911	-45.014	
260.00	-67.257	-42.739	
261.00	-70.222	-32.373	
262.00	-74.031	-24.454	
263.00	-75.708	22.315	
264.00	-78.615	4.489	
265.00	-85.701	-10.984	
266.00	-77.965	9.644	
267.00	-76.343	-18.866	
268.00	-73.190	-7.977	
269.00	-69.098	-12.710	
270.00	-67.700	-23.371	
271.00	-67.142	-24.071	
272.00	-64.834	-29.069	
273.00	-66.231	-37.048	
274.00	-65.951	-48.118	
275.00	-65.478	-61.106	
276.00	-65.877	-71.356	
277.00	-67.702	-80.154	
278.00	-68.522	-97.831	
279.00	-72.167	-132.297	
280.00	-73.056	-131.505	
281.00	-74.895	-150.617	
282.00	-79.817	-152.738	
283.00	-93.836	172.991	
284.00	-81.630	-36.670	
285.00	-75.426	-11.854	
286.00	-73.776	-24.532	
287.00	-69.386	-12.605	
288.00	-68.755	-12.100	
289.00	-68.192	-8.600	
290.00	-69.125	-8.882	
291.00	-66.625	-16.879	
292.00	-65.514	-37.380	
293.00	-64.584	-49.904	
294.00	-64.031	-62.859	
295.00	-63.677	-72.549	
296.00	-62.603	-87.372	
297.00	-63.925	-100.660	
298.00	-63.625	-119.490	
299.00	-66.105	-131.584	
300.00	-66.220	-162.816	
301.00	-67.578	171.941	
302.00	-68.183	138.876	
303.00	-68.523	96.597	
304.00	-66.716	68.694	
305.00	-66.198	48.391	
306.00	-63.692	30.316	
307.00	-62.276	14.123	
308.00	-62.652	5.757	
309.00	-62.957	-9.587	
310.00	-63.452	-20.296	
311.00	-66.140	-34.793	
312.00	-70.683	-44.634	
313.00	-76.262	-79.893	
314.00	-77.281	-149.444	
315.00	-69.750	172.015	
316.00	-68.132	153.867	
317.00	-69.098	149.398	
318.00	-68.574	132.979	
319.00	-73.609	142.338	
320.00	-72.948	-170.279	
321.00	-70.773	-155.423	
322.00	-67.725	-153.859	
323.00	-65.884	-166.326	
324.00	-64.297	176.464	
325.00	-63.402	168.535	
326.00	-62.643	159.634	
327.00	-63.102	144.040	
328.00	-64.044	132.480	
329.00	-65.244	114.917	
330.00	-69.077	88.058	
331.00	-71.305	44.425	
332.00	-67.977	4.492	
333.00	-64.651	-14.265	
334.00	-63.749	-32.127	
335.00	-64.882	-39.752	
336.00	-66.982	-42.415	
337.00	-70.880	-35.438	
338.00	-78.105	21.042	
339.00	-69.061	77.831	
340.00	-67.204	86.699	
341.00	-64.691	87.866	
342.00	-64.329	91.794	
343.00	-64.336	94.018	
344.00	-64.158	101.607	
345.00	-64.733	123.418	
346.00	-63.306	132.793	
347.00	-62.072	142.355	
348.00	-61.921	141.252	
349.00	-62.928	127.365	
350.00	-63.496	106.037	
351.00	-62.295	85.820	
352.00	-60.888	65.113	
353.00	-60.220	57.057	
354.00	-59.967	54.566	
355.00	-60.621	48.000	
356.00	-61.701	45.809	
357.00	-64.548	48.275	
358.00	-69.133	65.107	
359.00	-73.642	112.781	
Frequency	2650.00	MHz	
Channel	test		
Scan Axis name	Azimuth  [deg]		
Scan Axis	Amplitude	Phase	
			
0.00	-67.518	30.477	
1.00	-71.705	-1.429	
2.00	-78.550	-72.558	
3.00	-71.885	-141.138	
4.00	-66.584	-161.869	
5.00	-64.518	-174.583	
6.00	-63.820	-173.326	
7.00	-65.627	-171.206	
8.00	-68.569	164.184	
9.00	-70.608	108.940	
10.00	-64.943	86.882	
11.00	-60.700	76.421	
12.00	-60.133	87.464	
13.00	-60.444	85.460	
14.00	-60.580	95.147	
15.00	-60.638	104.261	
16.00	-61.032	115.616	
17.00	-61.080	138.606	
18.00	-62.276	156.769	
19.00	-63.163	-168.169	
20.00	-64.988	-136.853	
21.00	-65.580	-93.511	
22.00	-65.765	-76.543	
23.00	-66.562	-49.479	
24.00	-67.325	-49.562	
25.00	-66.442	-51.672	
26.00	-66.035	-78.950	
27.00	-63.536	-96.242	
28.00	-64.200	-109.836	
29.00	-61.520	-120.633	
30.00	-59.509	-126.555	
31.00	-58.655	-123.447	
32.00	-59.345	-115.483	
33.00	-62.094	-108.078	
34.00	-71.004	-119.653	
35.00	-71.575	153.691	
36.00	-64.176	146.550	
37.00	-61.901	163.961	
38.00	-61.066	-168.289	
39.00	-62.207	-130.195	
40.00	-62.154	-84.759	
41.00	-60.799	-48.097	
42.00	-60.050	-17.717	
43.00	-59.997	5.632	
44.00	-60.575	26.355	
45.00	-62.119	37.969	
46.00	-63.806	39.565	
47.00	-65.837	32.027	
48.00	-67.714	21.061	
49.00	-70.018	2.582	
50.00	-67.580	-35.604	
51.00	-64.465	-49.371	
52.00	-61.229	-34.685	
53.00	-60.062	-16.198	
54.00	-59.772	13.456	
55.00	-59.596	47.024	
56.00	-59.219	90.434	
57.00	-57.759	130.772	
58.00	-56.044	167.683	
59.00	-55.189	-158.185	
60.00	-54.002	-122.643	
61.00	-53.920	-89.271	
62.00	-53.815	-57.577	
63.00	-54.029	-21.766	
64.00	-54.640	16.259	
65.00	-55.316	52.744	
66.00	-56.637	95.849	
67.00	-57.443	144.534	
68.00	-55.908	-165.672	
69.00	-54.530	-126.454	
70.00	-53.084	-92.552	
71.00	-52.743	-58.964	
72.00	-51.759	-22.904	
73.00	-51.558	9.905	
74.00	-51.098	42.986	
75.00	-50.678	74.831	
76.00	-50.657	107.927	
77.00	-50.556	140.636	
78.00	-50.342	173.683	
79.00	-49.984	-153.229	
80.00	-49.398	-121.562	
81.00	-48.800	-90.425	
82.00	-48.380	-60.991	
83.00	-47.981	-32.491	
84.00	-47.535	-5.227	
85.00	-47.305	22.468	
86.00	-47.310	50.261	
87.00	-46.781	77.743	
88.00	-46.798	105.555	
89.00	-46.508	130.656	
90.00	-45.806	157.257	
91.00	-45.961	-174.862	
92.00	-45.341	-151.987	
93.00	-45.458	-126.434	
94.00	-45.357	-102.118	
95.00	-44.824	-78.224	
96.00	-45.050	-55.589	
97.00	-44.741	-28.573	
98.00	-44.466	-4.537	
99.00	-44.157	22.881	
100.00	-44.242	46.866	
101.00	-44.109	79.973	
102.00	-43.893	107.153	
103.00	-43.533	132.192	
104.00	-43.204	151.422	
105.00	-42.849	178.251	
106.00	-42.501	-159.298	
107.00	-42.434	-137.481	
108.00	-42.129	-116.993	
109.00	-42.015	-92.899	
110.00	-41.939	-74.663	
111.00	-42.232	-53.211	
112.00	-42.612	-34.219	
113.00	-43.142	-12.556	
114.00	-44.089	9.449	
115.00	-44.929	32.117	
116.00	-45.897	56.358	
117.00	-46.744	80.818	
118.00	-47.315	107.168	
119.00	-47.900	131.229	
120.00	-48.397	153.114	
121.00	-49.490	168.521	
122.00	-51.395	-178.387	
123.00	-54.680	-176.184	
124.00	-58.663	162.035	
125.00	-58.472	115.995	
126.00	-54.410	97.920	
127.00	-51.478	99.264	
128.00	-50.279	103.943	
129.00	-50.432	107.925	
130.00	-51.755	115.719	
131.00	-54.518	119.517	
132.00	-60.642	114.005	
133.00	-71.317	35.218	
134.00	-60.767	-7.302	
135.00	-56.593	-8.466	
136.00	-54.754	-5.722	
137.00	-54.586	-0.267	
138.00	-55.348	2.556	
139.00	-57.345	1.927	
140.00	-60.311	-6.805	
141.00	-64.061	-32.411	
142.00	-63.594	-71.092	
143.00	-62.164	-95.067	
144.00	-60.513	-105.845	
145.00	-60.070	-109.255	
146.00	-60.597	-114.631	
147.00	-61.371	-124.648	
148.00	-61.202	-132.822	
149.00	-60.251	-159.233	
150.00	-58.632	-172.566	
151.00	-56.444	172.874	
152.00	-53.916	166.002	
153.00	-52.168	161.372	
154.00	-51.432	162.079	
155.00	-52.046	161.377	
156.00	-53.134	162.817	
157.00	-57.287	165.290	
158.00	-67.864	144.884	
159.00	-60.843	14.453	
160.00	-54.096	17.037	
161.00	-50.581	21.096	
162.00	-48.801	29.708	
163.00	-48.555	38.163	
164.00	-49.337	50.712	
165.00	-51.175	65.222	
166.00	-53.798	92.027	
167.00	-55.385	129.361	
168.00	-54.893	167.903	
169.00	-53.401	-168.588	
170.00	-54.321	-153.913	
171.00	-56.867	-140.453	
172.00	-67.242	-91.620	
173.00	-58.812	9.021	
174.00	-52.305	21.393	
175.00	-49.864	24.317	
176.00	-49.426	22.897	
177.00	-51.048	18.458	
178.00	-54.969	13.978	
179.00	-65.122	2.008	
180.00	-65.931	176.167	
181.00	-58.121	157.115	
182.00	-53.536	124.542	
183.00	-48.355	95.344	
184.00	-43.324	77.457	
185.00	-39.353	67.490	
186.00	-36.357	60.772	
187.00	-34.198	55.229	
188.00	-32.776	50.767	
189.00	-32.044	46.540	
190.00	-31.896	43.013	
191.00	-32.358	39.771	
192.00	-33.418	37.223	
193.00	-35.168	35.624	
194.00	-37.729	36.283	
195.00	-41.080	40.746	
196.00	-44.982	53.477	
197.00	-48.334	83.683	
198.00	-48.377	113.381	
199.00	-48.040	123.167	
200.00	-48.938	125.263	
201.00	-51.498	122.259	
202.00	-56.455	118.722	
203.00	-67.077	128.537	
204.00	-66.993	-96.977	
205.00	-59.068	-101.517	
206.00	-57.828	-106.603	
207.00	-58.007	-123.450	
208.00	-60.811	-134.812	
209.00	-66.224	-147.271	
210.00	-73.753	-114.908	
211.00	-66.387	-53.214	
212.00	-61.773	-65.936	
213.00	-58.389	-81.681	
214.00	-55.751	-98.774	
215.00	-54.086	-116.346	
216.00	-53.544	-133.279	
217.00	-53.483	-149.407	
218.00	-54.681	-159.711	
219.00	-57.330	-177.151	
220.00	-61.959	176.017	
221.00	-80.173	-82.278	
222.00	-63.655	-39.657	
223.00	-59.502	-65.111	
224.00	-55.138	-77.167	
225.00	-53.850	-93.788	
226.00	-53.343	-114.845	
227.00	-53.474	-133.122	
228.00	-54.324	-152.234	
229.00	-55.267	-173.690	
230.00	-57.818	169.280	
231.00	-59.786	144.668	
232.00	-63.444	123.584	
233.00	-67.920	83.471	
234.00	-69.703	40.609	
235.00	-71.504	-15.388	
236.00	-68.395	-43.444	
237.00	-65.622	-70.893	
238.00	-65.418	-78.163	
239.00	-65.863	-88.561	
240.00	-66.491	-97.815	
241.00	-68.870	-103.948	
242.00	-69.720	-114.632	
243.00	-68.518	-124.229	
244.00	-65.991	-136.435	
245.00	-63.981	-146.481	
246.00	-62.136	-154.099	
247.00	-60.856	-165.973	
248.00	-59.918	-169.608	
249.00	-59.999	176.706	
250.00	-60.857	167.836	
251.00	-62.691	147.210	
252.00	-64.458	138.551	
253.00	-67.148	109.811	
254.00	-65.374	86.390	
255.00	-65.565	61.424	
256.00	-66.260	44.511	
257.00	-65.318	43.938	
258.00	-67.519	58.541	
259.00	-71.677	28.943	
260.00	-74.831	1.761	
261.00	-74.386	-45.837	
262.00	-71.655	-127.523	
263.00	-71.940	-103.169	
264.00	-66.615	-137.833	
265.00	-68.657	-140.315	
266.00	-68.600	-145.150	
267.00	-68.330	-152.493	
268.00	-78.515	175.556	
269.00	-88.370	-166.124	
270.00	-68.136	58.904	
271.00	-64.288	56.503	
272.00	-65.416	43.504	
273.00	-65.841	42.840	
274.00	-64.988	28.117	
275.00	-68.358	4.779	
276.00	-70.049	-23.286	
277.00	-68.150	-67.893	
278.00	-65.968	-83.591	
279.00	-65.430	-101.372	
280.00	-65.998	-107.420	
281.00	-66.091	-120.240	
282.00	-67.016	-135.309	
283.00	-68.258	-153.617	
284.00	-68.199	-179.495	
285.00	-67.506	166.008	
286.00	-65.946	160.678	
287.00	-65.726	147.586	
288.00	-64.820	142.528	
289.00	-63.636	129.481	
290.00	-62.420	124.458	
291.00	-64.019	108.537	
292.00	-63.790	90.417	
293.00	-62.303	79.465	
294.00	-63.209	73.897	
295.00	-64.175	61.372	
296.00	-69.768	74.690	
297.00	-71.505	37.585	
298.00	-69.265	33.666	
299.00	-81.291	127.145	
300.00	-76.019	129.239	
301.00	-68.650	-178.558	
302.00	-71.930	159.732	
303.00	-70.307	154.073	
304.00	-65.003	151.670	
305.00	-65.786	120.622	
306.00	-67.465	131.790	
307.00	-64.855	121.083	
308.00	-65.329	96.530	
309.00	-65.265	80.651	
310.00	-65.945	66.339	
311.00	-65.024	74.031	
312.00	-64.907	49.851	
313.00	-64.095	55.427	
314.00	-68.449	39.440	
315.00	-73.091	30.917	
316.00	-74.927	1.228	
317.00	-77.199	-54.751	
318.00	-76.381	-68.031	
319.00	-73.635	-75.689	
320.00	-75.237	-45.401	
321.00	-74.077	-43.510	
322.00	-83.639	13.362	
323.00	-78.741	-46.954	
324.00	-78.505	-95.182	
325.00	-75.674	-136.295	
326.00	-68.077	-143.089	
327.00	-66.463	-140.729	
328.00	-64.118	-137.991	
329.00	-64.094	-130.481	
330.00	-63.213	-129.800	
331.00	-64.058	-132.499	
332.00	-66.081	-146.538	
333.00	-70.051	-156.340	
334.00	-68.963	142.197	
335.00	-68.103	119.888	
336.00	-71.876	94.539	
337.00	-66.092	62.865	
338.00	-70.790	54.357	
339.00	-70.571	47.778	
340.00	-74.005	22.318	
341.00	-70.544	-32.713	
342.00	-69.117	-92.698	
343.00	-63.066	-110.775	
344.00	-64.170	-107.138	
345.00	-63.685	-133.771	
346.00	-66.236	-118.649	
347.00	-66.418	-114.592	
348.00	-90.867	-148.228	
349.00	-81.301	-107.041	
350.00	-92.689	-99.552	
351.00	-73.772	10.971	
352.00	-67.929	50.728	
353.00	-69.295	55.983	
354.00	-65.274	47.540	
355.00	-64.745	50.413	
356.00	-67.881	40.771	
357.00	-67.107	45.137	
358.00	-65.064	31.938	
359.00	-65.262	27.608	
Frequency	2700.00	MHz	
Channel	test		
Scan Axis name	Azimuth  [deg]		
Scan Axis	Amplitude	Phase	
			
0.00	-61.673	58.626	
1.00	-61.366	51.283	
2.00	-62.542	53.187	
3.00	-66.469	38.666	
4.00	-69.733	-0.738	
5.00	-74.490	-104.525	
6.00	-66.017	-114.934	
7.00	-63.642	-130.264	
8.00	-62.086	-115.757	
9.00	-65.535	-108.091	
10.00	-66.885	-124.951	
11.00	-67.884	-117.375	
12.00	-67.985	133.851	
13.00	-69.174	115.320	
14.00	-65.418	130.205	
15.00	-63.433	126.732	
16.00	-67.224	125.863	
17.00	-71.441	133.742	
18.00	-73.678	-135.569	
19.00	-75.886	-86.073	
20.00	-66.097	-72.861	
21.00	-66.110	-15.620	
22.00	-62.261	-4.728	
23.00	-63.263	27.309	
24.00	-66.321	58.879	
25.00	-73.571	72.425	
26.00	-73.126	115.335	
27.00	-71.250	128.829	
28.00	-69.492	-169.045	
29.00	-66.767	-115.848	
30.00	-66.897	-91.065	
31.00	-67.202	-84.514	
32.00	-67.023	-33.994	
33.00	-72.702	39.936	
34.00	-65.265	81.595	
35.00	-62.396	83.143	
36.00	-60.546	129.607	
37.00	-62.261	176.928	
38.00	-62.782	-155.255	
39.00	-64.333	-136.881	
40.00	-68.359	-58.427	
41.00	-76.435	-4.735	
42.00	-68.377	64.260	
43.00	-68.983	93.383	
44.00	-68.808	94.170	
45.00	-68.222	137.272	
46.00	-66.522	169.028	
47.00	-68.981	-177.819	
48.00	-67.352	-170.159	
49.00	-69.089	-148.188	
50.00	-64.097	-121.642	
51.00	-62.667	-97.075	
52.00	-62.441	-65.997	
53.00	-62.571	-39.407	
54.00	-66.565	0.324	
55.00	-68.860	49.097	
56.00	-67.661	116.720	
57.00	-65.406	-175.512	
58.00	-62.183	-119.260	
59.00	-58.536	-77.414	
60.00	-57.762	-44.164	
61.00	-56.062	-10.211	
62.00	-54.428	31.270	
63.00	-53.703	59.629	
64.00	-52.685	93.312	
65.00	-52.876	125.208	
66.00	-53.719	154.249	
67.00	-53.683	-166.837	
68.00	-54.760	-129.597	
69.00	-55.350	-90.848	
70.00	-56.040	-49.174	
71.00	-56.391	-6.174	
72.00	-56.468	40.101	
73.00	-55.176	84.851	
74.00	-53.932	123.518	
75.00	-52.652	157.005	
76.00	-51.776	-170.335	
77.00	-51.446	-137.933	
78.00	-50.970	-106.822	
79.00	-50.685	-73.784	
80.00	-50.181	-42.040	
81.00	-49.612	-12.407	
82.00	-48.782	18.424	
83.00	-48.299	47.065	
84.00	-47.634	75.648	
85.00	-47.255	100.472	
86.00	-46.260	127.648	
87.00	-46.316	153.828	
88.00	-46.259	-179.357	
89.00	-45.955	-152.918	
90.00	-45.440	-126.278	
91.00	-45.032	-103.109	
92.00	-45.227	-77.049	
93.00	-43.717	-52.983	
94.00	-43.959	-33.560	
95.00	-43.901	-5.380	
96.00	-44.105	18.981	
97.00	-43.930	43.668	
98.00	-43.661	65.655	
99.00	-43.318	92.318	
100.00	-43.212	117.140	
101.00	-43.164	151.701	
102.00	-43.092	179.516	
103.00	-43.094	-156.413	
104.00	-43.049	-133.059	
105.00	-42.891	-105.687	
106.00	-42.781	-82.714	
107.00	-42.720	-54.782	
108.00	-42.301	-33.548	
109.00	-42.184	-7.316	
110.00	-41.835	12.069	
111.00	-42.015	36.311	
112.00	-41.800	57.002	
113.00	-42.056	78.799	
114.00	-42.262	100.570	
115.00	-42.922	121.140	
116.00	-43.341	145.488	
117.00	-44.030	168.190	
118.00	-44.463	-168.686	
119.00	-44.965	-147.662	
120.00	-45.318	-128.170	
121.00	-46.096	-111.927	
122.00	-47.783	-95.779	
123.00	-50.151	-85.022	
124.00	-54.480	-84.409	
125.00	-61.756	-97.930	
126.00	-60.692	-170.470	
127.00	-55.103	165.725	
128.00	-52.720	172.183	
129.00	-51.925	178.765	
130.00	-52.747	-174.810	
131.00	-53.825	-165.458	
132.00	-56.260	-160.443	
133.00	-59.870	-149.377	
134.00	-62.462	-146.534	
135.00	-66.027	-154.850	
136.00	-66.184	179.019	
137.00	-66.618	172.789	
138.00	-70.257	-178.342	
139.00	-71.825	169.755	
140.00	-85.153	-106.173	
141.00	-97.239	-157.842	
142.00	-77.308	-64.082	
143.00	-64.371	-87.661	
144.00	-62.919	-85.805	
145.00	-59.298	-87.501	
146.00	-57.369	-77.225	
147.00	-56.717	-68.009	
148.00	-57.234	-57.114	
149.00	-57.512	-49.514	
150.00	-58.440	-57.038	
151.00	-61.955	-82.252	
152.00	-59.632	-126.831	
153.00	-55.472	-136.007	
154.00	-52.619	-145.813	
155.00	-51.939	-140.262	
156.00	-51.755	-142.009	
157.00	-53.861	-146.815	
158.00	-56.875	-173.964	
159.00	-55.297	139.825	
160.00	-50.300	122.183	
161.00	-47.492	120.222	
162.00	-45.652	123.133	
163.00	-45.115	130.688	
164.00	-45.592	140.084	
165.00	-47.305	152.907	
166.00	-49.286	177.357	
167.00	-51.662	-148.101	
168.00	-51.836	-106.155	
169.00	-49.396	-82.756	
170.00	-48.689	-67.225	
171.00	-49.076	-61.595	
172.00	-53.064	-50.607	
173.00	-59.580	-38.542	
174.00	-62.287	57.788	
175.00	-55.872	92.808	
176.00	-53.610	86.010	
177.00	-53.632	59.345	
178.00	-52.412	34.323	
179.00	-50.794	13.721	
180.00	-49.386	-3.932	
181.00	-50.473	-14.086	
182.00	-55.509	-33.954	
183.00	-55.519	-161.783	
184.00	-44.508	172.004	
185.00	-39.081	165.015	
186.00	-35.504	160.774	
187.00	-33.002	156.920	
188.00	-31.398	153.695	
189.00	-30.570	150.719	
190.00	-30.417	147.778	
191.00	-30.812	144.915	
192.00	-31.859	141.919	
193.00	-33.440	139.972	
194.00	-35.809	138.907	
195.00	-38.850	141.521	
196.00	-42.485	148.620	
197.00	-46.035	169.335	
198.00	-48.190	-168.299	
199.00	-47.524	-157.516	
200.00	-48.251	-159.145	
201.00	-48.819	-165.740	
202.00	-50.956	176.864	
203.00	-53.894	155.300	
204.00	-54.718	119.886	
205.00	-55.372	101.278	
206.00	-55.963	89.743	
207.00	-57.636	78.067	
208.00	-56.907	64.098	
209.00	-56.568	63.663	
210.00	-54.719	63.598	
211.00	-54.235	58.218	
212.00	-53.804	49.753	
213.00	-53.161	35.150	
214.00	-53.347	23.175	
215.00	-53.648	4.399	
216.00	-54.768	-24.707	
217.00	-55.708	-23.994	
218.00	-60.489	-33.782	
219.00	-65.657	-11.291	
220.00	-61.553	28.691	
221.00	-56.794	44.372	
222.00	-54.288	36.167	
223.00	-52.577	19.100	
224.00	-52.614	3.133	
225.00	-52.314	-13.230	
226.00	-52.619	-28.442	
227.00	-54.893	-48.116	
228.00	-56.185	-62.080	
229.00	-59.273	-84.322	
230.00	-64.025	-105.209	
231.00	-72.917	-156.168	
232.00	-70.612	104.040	
233.00	-64.439	47.130	
234.00	-63.215	44.201	
235.00	-61.321	7.484	
236.00	-60.809	-11.825	
237.00	-63.512	-14.592	
238.00	-66.935	-28.176	
239.00	-78.751	45.536	
240.00	-69.959	29.292	
241.00	-69.653	38.401	
242.00	-62.199	33.148	
243.00	-59.687	12.360	
244.00	-60.225	-4.223	
245.00	-57.562	-27.084	
246.00	-57.930	-52.553	
247.00	-55.340	-75.256	
248.00	-54.050	-95.296	
249.00	-54.203	-112.617	
250.00	-54.873	-134.245	
251.00	-55.747	-156.761	
252.00	-56.702	178.724	
253.00	-57.158	158.792	
254.00	-59.562	138.692	
255.00	-58.645	113.585	
256.00	-60.253	96.306	
257.00	-61.420	73.631	
258.00	-62.812	49.659	
259.00	-64.563	18.881	
260.00	-60.637	-5.779	
261.00	-64.288	-33.463	
262.00	-68.593	-66.910	
263.00	-66.513	-109.939	
264.00	-63.410	-105.763	
265.00	-64.950	-119.330	
266.00	-62.998	-136.045	
267.00	-63.997	-149.668	
268.00	-68.373	-153.385	
269.00	-69.595	-152.412	
270.00	-67.153	-160.379	
271.00	-68.756	-175.231	
272.00	-71.390	177.303	
273.00	-76.229	147.348	
274.00	-74.595	-168.836	
275.00	-71.454	167.998	
276.00	-77.474	-166.538	
277.00	-71.472	-161.981	
278.00	-75.493	91.494	
279.00	-69.834	-90.254	
280.00	-77.981	-33.947	
281.00	-69.810	-80.704	
282.00	-79.783	-97.504	
283.00	-76.675	-148.697	
284.00	-81.046	164.444	
285.00	-85.856	146.241	
286.00	-72.456	177.861	
287.00	-66.133	151.614	
288.00	-68.458	149.515	
289.00	-65.385	133.974	
290.00	-62.920	155.716	
291.00	-65.862	139.805	
292.00	-64.992	139.654	
293.00	-63.762	126.844	
294.00	-64.857	131.729	
295.00	-66.209	109.796	
296.00	-73.634	63.851	
297.00	-72.119	55.876	
298.00	-73.589	37.510	
299.00	-80.197	-133.166	
300.00	-73.712	-107.118	
301.00	-69.848	-137.610	
302.00	-66.368	-160.058	
303.00	-64.498	-179.645	
304.00	-64.084	164.024	
305.00	-63.960	154.196	
306.00	-63.567	141.318	
307.00	-65.462	148.331	
308.00	-67.033	146.867	
309.00	-71.375	160.190	
310.00	-69.613	169.667	
311.00	-68.769	166.182	
312.00	-72.045	151.950	
313.00	-74.441	138.727	
314.00	-74.205	96.146	
315.00	-68.794	58.952	
316.00	-69.177	38.555	
317.00	-79.312	-2.020	
318.00	-78.621	-77.932	
319.00	-74.224	-120.944	
320.00	-66.235	-135.191	
321.00	-65.047	-147.917	
322.00	-64.405	-155.850	
323.00	-63.775	-160.593	
324.00	-68.304	166.967	
325.00	-66.147	164.568	
326.00	-68.909	93.865	
327.00	-68.203	82.333	
328.00	-65.718	48.622	
329.00	-69.233	67.685	
330.00	-68.707	71.884	
331.00	-71.034	56.206	
332.00	-72.872	172.849	
333.00	-68.604	148.019	
334.00	-66.805	166.736	
335.00	-62.486	163.319	
336.00	-62.421	169.530	
337.00	-67.373	168.697	
338.00	-67.152	111.929	
339.00	-69.803	53.714	
340.00	-66.081	23.756	
341.00	-64.278	8.023	
342.00	-62.141	7.287	
343.00	-59.829	-13.420	
344.00	-60.968	-16.733	
345.00	-62.530	-36.148	
346.00	-63.160	-38.413	
347.00	-70.515	-76.255	
348.00	-66.686	-84.709	
349.00	-63.074	-161.303	
350.00	-67.186	-152.165	
351.00	-63.899	-168.214	
352.00	-62.393	-167.825	
353.00	-62.123	-159.097	
354.00	-61.869	-166.637	
355.00	-63.913	-170.112	
356.00	-74.315	155.821	
357.00	-70.286	56.736	
358.00	-68.865	29.502	
359.00	-66.505	45.439	
