Test Title:	Alpha Wireless Indoor Range						
Date:	03/11/2017						
Time:	09:49						
Operator Name:	FL						
Comment:	Version 2 Run 2
Cable length changed						
Caib. File Name:	C:\Program Files\Midas 2.01d\Calibration Files\test sigma 180900.cal						
							
[Scan Axis] Name: 	Azimuth  [deg]Start: 	0.000000	Stop	359.000000	Increment	1.000000[Step Axis] Name: 	Start: 	0.000000	Stop	0.000000	Increment	0.000000[Tert] Name: 	None [Forth] Name: 	None  [ Freq.]  (List) 	MHz.	1694.000000	1710.000000	1800.000000	1850.000000	1950.000000	2050.000000	2170.000000	2300.000000	2350.000000	2400.000000	2450.000000	2496.000000	2550.000000	2600.000000	2650.000000	2700.000000
 [Switch]  	None [Channel]  	test			 [ Beam] 	None			
Database:			
First Question			
2nd			
3rd			
4th			
			
Frequency	1694.00	MHz	
Channel	test		
Scan Axis name	Azimuth  [deg]		
Scan Axis	Amplitude	Phase	
			
0.00	-69.749	29.936	
1.00	-69.222	63.253	
2.00	-66.813	89.315	
3.00	-67.366	105.719	
4.00	-63.384	99.783	
5.00	-63.252	110.227	
6.00	-61.648	129.101	
7.00	-60.921	135.462	
8.00	-59.421	137.359	
9.00	-58.175	145.184	
10.00	-57.966	149.027	
11.00	-57.820	152.962	
12.00	-57.208	160.151	
13.00	-57.696	161.978	
14.00	-57.289	169.158	
15.00	-57.767	-177.332	
16.00	-57.502	-172.685	
17.00	-57.676	-164.106	
18.00	-58.129	-151.367	
19.00	-58.077	-142.550	
20.00	-57.483	-127.755	
21.00	-56.517	-115.968	
22.00	-56.861	-105.468	
23.00	-55.766	-97.819	
24.00	-54.889	-91.509	
25.00	-53.920	-79.660	
26.00	-53.481	-72.715	
27.00	-53.598	-69.661	
28.00	-53.102	-59.987	
29.00	-53.369	-53.569	
30.00	-53.168	-48.466	
31.00	-53.317	-36.597	
32.00	-53.066	-25.955	
33.00	-53.365	-17.818	
34.00	-52.937	-5.080	
35.00	-53.323	6.101	
36.00	-52.487	16.983	
37.00	-52.605	30.811	
38.00	-52.256	44.517	
39.00	-52.325	49.566	
40.00	-50.835	60.978	
41.00	-51.351	72.669	
42.00	-53.161	80.505	
43.00	-51.400	93.108	
44.00	-51.043	113.466	
45.00	-51.327	113.274	
46.00	-50.854	131.959	
47.00	-51.275	138.322	
48.00	-51.385	151.056	
49.00	-52.711	169.101	
50.00	-51.877	175.013	
51.00	-51.973	-176.493	
52.00	-52.481	-158.088	
53.00	-53.173	-145.009	
54.00	-53.340	-146.176	
55.00	-56.107	-112.757	
56.00	-53.993	-124.748	
57.00	-53.894	-76.307	
58.00	-55.263	-71.107	
59.00	-55.711	-60.574	
60.00	-57.166	-39.184	
61.00	-53.120	-10.495	
62.00	-52.520	-1.689	
63.00	-51.842	18.933	
64.00	-51.739	32.674	
65.00	-50.541	38.478	
66.00	-49.861	46.209	
67.00	-51.362	61.467	
68.00	-51.344	78.712	
69.00	-51.029	92.963	
70.00	-50.797	104.341	
71.00	-51.960	116.271	
72.00	-49.580	126.547	
73.00	-50.541	143.922	
74.00	-51.428	153.542	
75.00	-50.937	-169.954	
76.00	-50.811	-166.457	
77.00	-50.360	-148.342	
78.00	-49.726	-140.266	
79.00	-50.161	-117.913	
80.00	-50.798	-96.358	
81.00	-51.797	-74.321	
82.00	-51.770	-80.777	
83.00	-51.628	-59.533	
84.00	-51.128	-34.606	
85.00	-51.697	-23.354	
86.00	-51.693	0.614	
87.00	-52.584	9.054	
88.00	-52.038	17.547	
89.00	-51.465	43.530	
90.00	-49.823	59.128	
91.00	-51.200	67.498	
92.00	-50.208	92.873	
93.00	-50.529	111.042	
94.00	-51.000	122.914	
95.00	-50.164	136.161	
96.00	-49.782	157.517	
97.00	-48.050	170.672	
98.00	-48.041	-169.344	
99.00	-47.943	-156.373	
100.00	-47.304	-139.084	
101.00	-47.487	-133.255	
102.00	-48.266	-124.893	
103.00	-47.224	-111.111	
104.00	-46.666	-92.396	
105.00	-47.031	-74.187	
106.00	-47.136	-69.371	
107.00	-47.158	-42.277	
108.00	-46.574	-34.796	
109.00	-45.863	-17.385	
110.00	-46.252	-8.604	
111.00	-45.927	9.585	
112.00	-45.702	20.672	
113.00	-45.460	35.605	
114.00	-45.028	42.532	
115.00	-45.127	57.747	
116.00	-44.472	65.108	
117.00	-44.428	70.286	
118.00	-44.314	83.635	
119.00	-44.292	93.123	
120.00	-44.017	104.149	
121.00	-43.957	114.786	
122.00	-43.483	127.364	
123.00	-43.380	136.669	
124.00	-43.171	144.433	
125.00	-42.854	156.877	
126.00	-42.473	162.731	
127.00	-42.380	175.309	
128.00	-41.974	-178.556	
129.00	-41.624	-165.655	
130.00	-41.377	-159.622	
131.00	-40.995	-149.448	
132.00	-40.596	-139.449	
133.00	-40.360	-131.482	
134.00	-40.028	-122.805	
135.00	-39.779	-117.630	
136.00	-39.493	-104.558	
137.00	-39.284	-99.320	
138.00	-38.990	-92.141	
139.00	-38.717	-81.894	
140.00	-38.659	-71.952	
141.00	-38.373	-62.985	
142.00	-38.170	-55.761	
143.00	-38.013	-52.189	
144.00	-37.842	-41.697	
145.00	-37.612	-36.637	
146.00	-37.443	-25.533	
147.00	-37.260	-21.160	
148.00	-37.093	-10.486	
149.00	-36.958	-7.156	
150.00	-36.785	3.357	
151.00	-36.762	6.215	
152.00	-36.675	12.087	
153.00	-36.617	16.880	
154.00	-36.539	24.772	
155.00	-36.489	28.555	
156.00	-36.519	33.463	
157.00	-36.506	36.197	
158.00	-36.578	43.835	
159.00	-36.652	49.796	
160.00	-36.796	51.289	
161.00	-36.915	55.600	
162.00	-37.074	58.510	
163.00	-37.242	65.396	
164.00	-37.553	67.356	
165.00	-37.748	69.935	
166.00	-38.072	70.207	
167.00	-38.386	73.227	
168.00	-38.829	77.211	
169.00	-39.196	77.044	
170.00	-39.556	77.386	
171.00	-40.047	76.890	
172.00	-40.492	81.249	
173.00	-41.027	78.198	
174.00	-41.647	80.106	
175.00	-42.191	75.951	
176.00	-42.763	77.732	
177.00	-43.437	78.221	
178.00	-44.163	73.879	
179.00	-44.791	73.595	
180.00	-45.542	67.481	
181.00	-46.257	66.572	
182.00	-47.170	62.118	
183.00	-47.805	59.890	
184.00	-48.681	49.192	
185.00	-49.374	48.444	
186.00	-50.012	40.447	
187.00	-50.826	37.340	
188.00	-51.444	30.726	
189.00	-52.106	26.288	
190.00	-53.100	26.311	
191.00	-54.128	24.075	
192.00	-54.873	25.973	
193.00	-56.307	26.160	
194.00	-56.970	37.831	
195.00	-58.002	46.441	
196.00	-57.462	64.856	
197.00	-55.904	75.019	
198.00	-54.155	81.740	
199.00	-52.173	87.031	
200.00	-50.643	86.598	
201.00	-49.310	85.527	
202.00	-47.851	80.919	
203.00	-46.797	79.734	
204.00	-45.775	75.301	
205.00	-44.879	72.842	
206.00	-44.026	64.600	
207.00	-43.204	60.474	
208.00	-42.650	52.526	
209.00	-42.019	48.397	
210.00	-41.485	39.413	
211.00	-40.984	31.702	
212.00	-40.500	24.303	
213.00	-40.139	15.461	
214.00	-39.729	6.619	
215.00	-39.363	-2.280	
216.00	-39.001	-12.195	
217.00	-38.589	-20.565	
218.00	-38.280	-27.116	
219.00	-38.018	-37.963	
220.00	-37.768	-47.116	
221.00	-37.470	-58.428	
222.00	-37.296	-65.367	
223.00	-37.128	-75.950	
224.00	-36.972	-85.774	
225.00	-36.821	-95.842	
226.00	-36.698	-107.329	
227.00	-36.640	-118.560	
228.00	-36.600	-127.824	
229.00	-36.527	-140.024	
230.00	-36.537	-149.841	
231.00	-36.568	-164.420	
232.00	-36.620	-171.897	
233.00	-36.645	175.975	
234.00	-36.715	164.229	
235.00	-36.793	153.084	
236.00	-36.811	140.186	
237.00	-36.832	130.437	
238.00	-37.028	117.417	
239.00	-37.110	105.711	
240.00	-37.290	93.822	
241.00	-37.446	80.117	
242.00	-37.643	69.877	
243.00	-37.898	57.176	
244.00	-38.100	43.510	
245.00	-38.452	29.660	
246.00	-38.722	16.494	
247.00	-39.027	3.686	
248.00	-39.305	-10.484	
249.00	-39.554	-26.408	
250.00	-39.810	-40.662	
251.00	-40.059	-54.715	
252.00	-40.322	-67.969	
253.00	-40.457	-82.662	
254.00	-40.820	-98.001	
255.00	-41.143	-113.461	
256.00	-41.475	-126.510	
257.00	-41.993	-144.145	
258.00	-42.473	-157.582	
259.00	-43.019	-176.222	
260.00	-43.460	164.238	
261.00	-43.991	149.461	
262.00	-44.386	133.409	
263.00	-44.546	119.486	
264.00	-44.641	102.881	
265.00	-44.833	85.965	
266.00	-44.879	67.415	
267.00	-45.064	55.832	
268.00	-45.150	40.695	
269.00	-45.220	28.156	
270.00	-45.509	13.360	
271.00	-45.720	-2.349	
272.00	-46.014	-16.038	
273.00	-46.426	-31.216	
274.00	-46.913	-47.041	
275.00	-47.318	-61.132	
276.00	-47.527	-77.814	
277.00	-47.900	-91.839	
278.00	-48.347	-107.573	
279.00	-48.768	-126.261	
280.00	-49.003	-138.401	
281.00	-49.522	-155.121	
282.00	-49.460	-168.694	
283.00	-50.143	173.686	
284.00	-50.639	156.231	
285.00	-51.010	139.386	
286.00	-51.466	119.914	
287.00	-51.563	94.800	
288.00	-51.297	70.491	
289.00	-51.296	49.256	
290.00	-50.786	29.574	
291.00	-50.363	12.218	
292.00	-50.005	-1.548	
293.00	-49.788	-17.363	
294.00	-49.315	-29.426	
295.00	-49.355	-38.800	
296.00	-49.039	-53.899	
297.00	-49.028	-67.084	
298.00	-48.962	-78.918	
299.00	-49.192	-87.232	
300.00	-49.328	-100.970	
301.00	-49.518	-108.764	
302.00	-49.821	-123.590	
303.00	-50.238	-131.934	
304.00	-50.726	-143.058	
305.00	-51.352	-153.705	
306.00	-51.988	-167.116	
307.00	-53.119	179.140	
308.00	-53.796	164.528	
309.00	-54.800	149.820	
310.00	-55.344	134.490	
311.00	-55.498	113.630	
312.00	-54.917	97.075	
313.00	-55.056	78.574	
314.00	-54.337	63.443	
315.00	-53.411	47.163	
316.00	-53.150	35.739	
317.00	-52.900	24.834	
318.00	-52.705	13.259	
319.00	-52.342	5.547	
320.00	-52.802	-3.536	
321.00	-52.626	-12.376	
322.00	-52.380	-17.330	
323.00	-52.285	-26.731	
324.00	-52.263	-30.647	
325.00	-53.007	-44.104	
326.00	-52.814	-46.933	
327.00	-53.511	-57.788	
328.00	-53.881	-59.356	
329.00	-54.906	-67.950	
330.00	-54.887	-69.498	
331.00	-56.203	-76.360	
332.00	-56.517	-74.698	
333.00	-57.730	-80.319	
334.00	-58.692	-87.114	
335.00	-58.774	-90.282	
336.00	-60.220	-93.263	
337.00	-60.619	-87.443	
338.00	-62.138	-87.098	
339.00	-62.946	-91.563	
340.00	-64.325	-77.583	
341.00	-64.299	-68.286	
342.00	-67.334	-51.681	
343.00	-66.028	-48.839	
344.00	-65.820	-42.578	
345.00	-63.872	-41.470	
346.00	-64.443	-26.024	
347.00	-65.262	-15.511	
348.00	-63.284	-13.913	
349.00	-61.884	-19.275	
350.00	-62.916	-10.060	
351.00	-61.419	-5.469	
352.00	-61.339	-1.048	
353.00	-60.632	-4.463	
354.00	-61.396	-0.080	
355.00	-61.047	-1.549	
356.00	-61.442	6.773	
357.00	-61.856	17.920	
358.00	-63.584	23.900	
359.00	-63.945	31.247	
Frequency	1710.00	MHz	
Channel	test		
Scan Axis name	Azimuth  [deg]		
Scan Axis	Amplitude	Phase	
			
0.00	-71.606	18.905	
1.00	-73.389	6.832	
2.00	-71.620	72.266	
3.00	-72.450	82.024	
4.00	-67.930	104.111	
5.00	-65.359	106.523	
6.00	-64.345	107.582	
7.00	-62.392	126.035	
8.00	-60.700	130.050	
9.00	-58.468	137.712	
10.00	-57.645	140.415	
11.00	-55.873	144.662	
12.00	-55.025	144.299	
13.00	-53.855	149.608	
14.00	-53.224	151.595	
15.00	-52.374	154.364	
16.00	-52.147	159.303	
17.00	-51.295	159.057	
18.00	-50.576	159.785	
19.00	-51.080	166.808	
20.00	-50.641	168.866	
21.00	-51.433	171.836	
22.00	-51.007	-179.922	
23.00	-51.700	-179.154	
24.00	-51.720	-171.751	
25.00	-52.357	-167.222	
26.00	-52.106	-154.937	
27.00	-53.607	-154.003	
28.00	-55.577	-136.823	
29.00	-55.947	-124.301	
30.00	-57.157	-103.213	
31.00	-57.607	-94.474	
32.00	-56.853	-67.442	
33.00	-57.810	-63.288	
34.00	-56.491	-36.500	
35.00	-55.666	-24.393	
36.00	-54.654	-5.975	
37.00	-54.748	5.077	
38.00	-54.125	17.663	
39.00	-53.762	26.951	
40.00	-53.141	32.511	
41.00	-51.838	48.083	
42.00	-51.825	68.968	
43.00	-51.365	76.500	
44.00	-51.915	84.591	
45.00	-51.976	106.513	
46.00	-50.499	109.818	
47.00	-51.472	131.941	
48.00	-50.492	135.743	
49.00	-50.124	145.229	
50.00	-49.473	164.893	
51.00	-50.191	176.518	
52.00	-48.030	179.762	
53.00	-49.013	-171.887	
54.00	-49.068	-148.415	
55.00	-48.133	-150.557	
56.00	-49.106	-141.287	
57.00	-49.243	-125.403	
58.00	-49.711	-125.971	
59.00	-50.006	-114.401	
60.00	-49.832	-97.735	
61.00	-51.511	-73.653	
62.00	-51.263	-78.793	
63.00	-53.453	-42.699	
64.00	-54.262	-39.315	
65.00	-54.158	-21.753	
66.00	-54.837	2.557	
67.00	-57.024	22.605	
68.00	-56.600	34.727	
69.00	-53.665	68.932	
70.00	-53.669	70.978	
71.00	-56.098	90.266	
72.00	-54.720	124.343	
73.00	-53.595	133.267	
74.00	-53.450	153.245	
75.00	-53.420	-179.199	
76.00	-52.165	179.776	
77.00	-51.496	-172.196	
78.00	-52.557	-148.834	
79.00	-52.151	-135.233	
80.00	-50.340	-116.155	
81.00	-50.774	-77.404	
82.00	-51.065	-86.506	
83.00	-49.045	-63.733	
84.00	-49.671	-48.542	
85.00	-49.737	-30.624	
86.00	-50.466	-2.959	
87.00	-49.530	-4.358	
88.00	-48.404	14.832	
89.00	-49.636	36.050	
90.00	-47.901	41.841	
91.00	-48.624	47.885	
92.00	-46.183	59.604	
93.00	-46.642	74.471	
94.00	-47.910	92.653	
95.00	-46.909	100.826	
96.00	-47.325	124.402	
97.00	-46.353	141.722	
98.00	-46.461	159.184	
99.00	-46.250	162.538	
100.00	-46.042	-175.798	
101.00	-45.789	-168.292	
102.00	-45.377	-153.915	
103.00	-45.765	-143.886	
104.00	-44.914	-125.712	
105.00	-43.803	-104.696	
106.00	-44.820	-101.352	
107.00	-44.955	-79.432	
108.00	-44.572	-74.317	
109.00	-44.493	-57.657	
110.00	-44.141	-50.262	
111.00	-44.007	-37.782	
112.00	-44.288	-23.577	
113.00	-44.359	-12.717	
114.00	-44.490	-5.368	
115.00	-44.001	8.458	
116.00	-43.935	18.503	
117.00	-43.722	24.851	
118.00	-44.120	40.617	
119.00	-43.801	49.449	
120.00	-43.836	62.468	
121.00	-43.521	69.590	
122.00	-43.389	83.882	
123.00	-42.610	92.181	
124.00	-42.440	102.606	
125.00	-42.709	110.346	
126.00	-41.963	118.324	
127.00	-41.889	128.981	
128.00	-41.846	137.440	
129.00	-41.592	148.826	
130.00	-41.142	155.574	
131.00	-40.983	165.785	
132.00	-40.821	176.475	
133.00	-40.863	-173.896	
134.00	-40.237	-165.910	
135.00	-39.988	-158.781	
136.00	-39.697	-146.987	
137.00	-39.331	-139.331	
138.00	-39.026	-130.978	
139.00	-38.624	-120.887	
140.00	-38.367	-110.768	
141.00	-38.154	-101.975	
142.00	-37.721	-95.253	
143.00	-37.406	-91.914	
144.00	-37.159	-81.797	
145.00	-36.914	-76.316	
146.00	-36.725	-66.853	
147.00	-36.455	-62.523	
148.00	-36.220	-52.455	
149.00	-36.237	-49.373	
150.00	-36.007	-39.303	
151.00	-35.930	-36.820	
152.00	-35.788	-31.979	
153.00	-35.755	-27.688	
154.00	-35.724	-19.469	
155.00	-35.804	-16.059	
156.00	-35.811	-11.310	
157.00	-35.871	-9.418	
158.00	-35.866	-1.956	
159.00	-36.074	3.810	
160.00	-36.197	4.965	
161.00	-36.351	9.615	
162.00	-36.614	11.243	
163.00	-36.860	17.822	
164.00	-37.008	19.868	
165.00	-37.395	21.844	
166.00	-37.628	22.567	
167.00	-37.936	24.848	
168.00	-38.309	29.112	
169.00	-38.686	28.983	
170.00	-39.089	29.028	
171.00	-39.473	27.793	
172.00	-39.811	32.127	
173.00	-40.313	28.699	
174.00	-40.680	30.249	
175.00	-41.090	25.965	
176.00	-41.651	28.083	
177.00	-42.109	28.128	
178.00	-42.548	22.305	
179.00	-42.985	22.566	
180.00	-43.462	17.776	
181.00	-44.105	17.095	
182.00	-44.703	12.942	
183.00	-45.042	10.799	
184.00	-45.872	1.617	
185.00	-46.206	1.457	
186.00	-46.979	-7.625	
187.00	-47.527	-10.615	
188.00	-48.390	-18.415	
189.00	-48.956	-24.497	
190.00	-49.544	-27.793	
191.00	-50.838	-37.091	
192.00	-51.519	-43.192	
193.00	-52.596	-52.013	
194.00	-53.688	-55.430	
195.00	-54.811	-62.406	
196.00	-56.879	-63.320	
197.00	-60.068	-78.864	
198.00	-63.722	-76.864	
199.00	-70.698	-78.077	
200.00	-90.822	20.153	
201.00	-64.238	79.395	
202.00	-59.840	60.041	
203.00	-56.560	58.349	
204.00	-54.019	52.361	
205.00	-52.374	49.376	
206.00	-50.807	37.727	
207.00	-49.572	32.094	
208.00	-48.326	22.532	
209.00	-47.393	17.153	
210.00	-46.323	6.999	
211.00	-45.626	-3.673	
212.00	-44.896	-10.994	
213.00	-44.118	-19.512	
214.00	-43.493	-28.492	
215.00	-42.946	-37.198	
216.00	-42.383	-47.049	
217.00	-41.875	-55.134	
218.00	-41.453	-60.227	
219.00	-41.175	-70.772	
220.00	-40.911	-79.658	
221.00	-40.639	-90.038	
222.00	-40.560	-96.339	
223.00	-40.418	-106.830	
224.00	-40.274	-116.597	
225.00	-40.255	-126.267	
226.00	-40.244	-138.220	
227.00	-40.266	-149.990	
228.00	-40.341	-158.903	
229.00	-40.386	-171.847	
230.00	-40.473	178.087	
231.00	-40.536	163.614	
232.00	-40.696	154.953	
233.00	-40.756	143.521	
234.00	-40.953	131.460	
235.00	-41.091	119.844	
236.00	-41.314	106.676	
237.00	-41.469	95.051	
238.00	-41.718	82.148	
239.00	-41.944	69.338	
240.00	-42.142	56.589	
241.00	-42.508	41.891	
242.00	-42.657	29.682	
243.00	-42.899	15.837	
244.00	-43.036	1.395	
245.00	-43.259	-14.438	
246.00	-43.448	-28.457	
247.00	-43.763	-42.225	
248.00	-43.911	-57.156	
249.00	-44.279	-73.394	
250.00	-44.114	-88.153	
251.00	-44.309	-103.121	
252.00	-44.527	-116.429	
253.00	-44.578	-130.021	
254.00	-44.575	-145.539	
255.00	-44.961	-159.477	
256.00	-45.131	-172.228	
257.00	-45.271	169.638	
258.00	-45.759	155.408	
259.00	-46.285	141.104	
260.00	-47.040	121.166	
261.00	-47.916	107.985	
262.00	-48.514	90.608	
263.00	-48.562	76.875	
264.00	-48.838	59.115	
265.00	-48.827	36.428	
266.00	-48.796	19.904	
267.00	-48.511	5.964	
268.00	-48.584	-6.473	
269.00	-49.035	-20.608	
270.00	-49.451	-30.754	
271.00	-49.617	-46.735	
272.00	-50.339	-61.552	
273.00	-50.947	-78.187	
274.00	-51.201	-95.240	
275.00	-51.498	-112.426	
276.00	-52.839	-136.095	
277.00	-52.253	-152.580	
278.00	-52.323	-174.619	
279.00	-51.487	168.225	
280.00	-51.630	155.977	
281.00	-50.816	135.433	
282.00	-50.495	125.749	
283.00	-49.968	115.585	
284.00	-49.786	101.035	
285.00	-49.669	91.884	
286.00	-50.063	78.621	
287.00	-50.504	62.589	
288.00	-50.701	44.316	
289.00	-51.201	29.749	
290.00	-51.938	15.121	
291.00	-52.833	-1.568	
292.00	-53.389	-25.669	
293.00	-53.849	-44.182	
294.00	-53.842	-56.828	
295.00	-53.329	-72.482	
296.00	-53.124	-90.415	
297.00	-52.387	-107.667	
298.00	-51.521	-118.820	
299.00	-51.919	-129.316	
300.00	-51.744	-139.251	
301.00	-51.364	-148.595	
302.00	-51.167	-161.763	
303.00	-51.588	-169.306	
304.00	-51.563	-179.933	
305.00	-52.299	168.499	
306.00	-53.556	161.425	
307.00	-54.233	147.203	
308.00	-54.362	129.411	
309.00	-55.159	117.228	
310.00	-55.803	107.777	
311.00	-56.223	93.057	
312.00	-56.613	69.069	
313.00	-56.076	57.160	
314.00	-56.453	43.510	
315.00	-55.626	32.136	
316.00	-55.339	16.809	
317.00	-55.762	6.117	
318.00	-55.393	-10.720	
319.00	-56.107	-22.087	
320.00	-55.075	-39.978	
321.00	-55.432	-50.509	
322.00	-55.282	-55.855	
323.00	-54.481	-66.942	
324.00	-54.295	-77.260	
325.00	-53.315	-86.138	
326.00	-53.240	-91.022	
327.00	-52.790	-98.814	
328.00	-52.201	-103.656	
329.00	-51.775	-109.365	
330.00	-52.179	-113.556	
331.00	-52.162	-119.323	
332.00	-52.681	-120.017	
333.00	-53.042	-121.093	
334.00	-53.636	-124.392	
335.00	-54.198	-123.135	
336.00	-54.788	-126.305	
337.00	-54.929	-124.936	
338.00	-56.143	-129.135	
339.00	-57.202	-121.760	
340.00	-58.262	-129.700	
341.00	-58.803	-125.534	
342.00	-60.818	-121.601	
343.00	-61.285	-121.296	
344.00	-63.080	-112.508	
345.00	-63.883	-98.987	
346.00	-65.489	-109.883	
347.00	-63.225	-102.881	
348.00	-65.083	-99.644	
349.00	-64.228	-79.625	
350.00	-65.457	-69.786	
351.00	-67.494	-53.883	
352.00	-66.985	-47.378	
353.00	-67.924	-63.003	
354.00	-67.897	-54.387	
355.00	-69.378	-38.989	
356.00	-69.028	-51.106	
357.00	-73.498	-56.562	
358.00	-72.547	-27.734	
359.00	-76.690	-93.364	
Frequency	1800.00	MHz	
Channel	test		
Scan Axis name	Azimuth  [deg]		
Scan Axis	Amplitude	Phase	
			
0.00	-62.734	-107.522	
1.00	-62.740	-106.046	
2.00	-62.997	-109.801	
3.00	-62.848	-119.560	
4.00	-63.244	-122.229	
5.00	-63.881	-134.166	
6.00	-63.668	-138.161	
7.00	-63.196	-150.730	
8.00	-64.416	-160.544	
9.00	-62.525	-162.478	
10.00	-62.691	-171.412	
11.00	-62.305	-168.737	
12.00	-61.114	-177.876	
13.00	-60.622	-177.629	
14.00	-60.862	175.311	
15.00	-60.069	174.781	
16.00	-60.198	166.965	
17.00	-59.786	164.391	
18.00	-60.263	162.098	
19.00	-59.843	154.375	
20.00	-60.912	147.700	
21.00	-60.420	140.724	
22.00	-60.472	140.203	
23.00	-60.554	137.817	
24.00	-60.223	134.995	
25.00	-59.420	131.039	
26.00	-58.352	134.573	
27.00	-59.419	134.754	
28.00	-58.506	129.073	
29.00	-59.178	108.570	
30.00	-58.771	125.358	
31.00	-58.986	121.702	
32.00	-57.857	122.638	
33.00	-61.152	126.949	
34.00	-59.062	134.001	
35.00	-60.366	125.268	
36.00	-59.272	127.882	
37.00	-61.631	132.257	
38.00	-62.170	150.616	
39.00	-71.334	133.947	
40.00	-66.993	161.873	
41.00	-69.678	166.219	
42.00	-80.334	45.511	
43.00	-70.318	21.160	
44.00	-69.566	62.493	
45.00	-66.818	-4.467	
46.00	-66.191	-2.690	
47.00	-77.844	4.471	
48.00	-59.868	27.105	
49.00	-71.951	29.266	
50.00	-64.109	62.523	
51.00	-63.115	74.917	
52.00	-60.892	84.755	
53.00	-59.534	127.815	
54.00	-59.865	137.685	
55.00	-58.958	118.999	
56.00	-56.678	144.815	
57.00	-59.283	134.604	
58.00	-57.200	148.326	
59.00	-61.861	-162.372	
60.00	-59.718	175.051	
61.00	-58.483	165.066	
62.00	-56.708	-157.224	
63.00	-57.200	-131.774	
64.00	-59.304	-118.951	
65.00	-57.133	-105.554	
66.00	-55.861	-91.213	
67.00	-56.789	-83.829	
68.00	-57.905	-74.863	
69.00	-55.810	-58.370	
70.00	-63.602	-125.770	
71.00	-59.875	-25.752	
72.00	-62.766	-20.149	
73.00	-61.910	90.017	
74.00	-64.641	89.735	
75.00	-60.402	135.271	
76.00	-56.672	124.604	
77.00	-56.341	128.613	
78.00	-53.287	161.165	
79.00	-54.244	163.456	
80.00	-52.376	172.006	
81.00	-50.980	-169.752	
82.00	-51.598	-171.705	
83.00	-51.329	-150.684	
84.00	-52.051	-146.077	
85.00	-53.218	-113.240	
86.00	-53.089	-98.296	
87.00	-52.878	-101.697	
88.00	-55.362	-91.530	
89.00	-53.733	-50.943	
90.00	-55.083	-46.689	
91.00	-54.971	-21.924	
92.00	-54.014	-6.719	
93.00	-53.357	18.698	
94.00	-54.553	46.280	
95.00	-51.685	62.365	
96.00	-51.151	72.967	
97.00	-52.530	78.218	
98.00	-51.943	98.934	
99.00	-50.098	123.691	
100.00	-50.284	134.321	
101.00	-49.430	138.380	
102.00	-50.415	152.912	
103.00	-51.214	162.497	
104.00	-49.408	-173.453	
105.00	-48.827	-155.962	
106.00	-50.299	-146.371	
107.00	-49.517	-126.702	
108.00	-49.931	-117.711	
109.00	-49.198	-101.026	
110.00	-50.464	-90.866	
111.00	-50.287	-74.158	
112.00	-51.215	-45.855	
113.00	-51.538	-37.481	
114.00	-51.144	-25.849	
115.00	-52.362	-7.537	
116.00	-51.126	5.259	
117.00	-51.208	13.657	
118.00	-52.301	27.708	
119.00	-50.825	38.053	
120.00	-50.027	61.229	
121.00	-50.476	69.365	
122.00	-51.496	87.675	
123.00	-50.338	96.517	
124.00	-49.937	110.946	
125.00	-49.844	119.772	
126.00	-49.400	130.154	
127.00	-48.667	140.777	
128.00	-49.031	152.186	
129.00	-47.910	163.575	
130.00	-47.727	174.044	
131.00	-46.668	-176.483	
132.00	-46.855	-166.302	
133.00	-46.432	-157.907	
134.00	-46.038	-149.258	
135.00	-45.336	-143.433	
136.00	-45.435	-131.849	
137.00	-44.704	-126.390	
138.00	-44.609	-119.876	
139.00	-44.585	-111.298	
140.00	-44.133	-100.725	
141.00	-44.196	-93.598	
142.00	-44.014	-88.495	
143.00	-44.025	-86.071	
144.00	-43.906	-78.386	
145.00	-43.805	-72.563	
146.00	-43.895	-64.380	
147.00	-43.930	-60.779	
148.00	-43.917	-53.502	
149.00	-44.335	-49.781	
150.00	-44.457	-39.939	
151.00	-44.654	-37.220	
152.00	-44.905	-32.049	
153.00	-45.024	-26.965	
154.00	-45.442	-17.944	
155.00	-45.574	-15.354	
156.00	-45.848	-7.872	
157.00	-46.115	-7.005	
158.00	-46.229	2.741	
159.00	-46.534	8.571	
160.00	-46.792	10.002	
161.00	-46.963	16.070	
162.00	-47.237	17.377	
163.00	-47.464	23.807	
164.00	-47.929	26.372	
165.00	-47.905	26.744	
166.00	-48.014	25.706	
167.00	-48.504	25.466	
168.00	-48.565	27.381	
169.00	-48.929	24.744	
170.00	-48.985	22.035	
171.00	-49.629	16.588	
172.00	-49.537	18.478	
173.00	-49.661	11.519	
174.00	-49.773	10.744	
175.00	-49.554	2.627	
176.00	-49.389	-1.792	
177.00	-49.314	-3.199	
178.00	-49.004	-12.152	
179.00	-48.604	-11.311	
180.00	-48.370	-20.217	
181.00	-48.140	-21.257	
182.00	-47.824	-27.045	
183.00	-47.647	-29.673	
184.00	-47.615	-37.818	
185.00	-47.293	-37.993	
186.00	-47.378	-45.542	
187.00	-47.345	-46.870	
188.00	-47.280	-54.194	
189.00	-47.439	-59.173	
190.00	-47.594	-61.200	
191.00	-48.040	-68.709	
192.00	-48.279	-72.744	
193.00	-48.574	-82.970	
194.00	-49.282	-83.556	
195.00	-49.670	-95.068	
196.00	-50.176	-100.242	
197.00	-51.244	-112.202	
198.00	-51.704	-119.239	
199.00	-52.720	-134.125	
200.00	-53.686	-147.086	
201.00	-54.751	-163.823	
202.00	-54.956	171.458	
203.00	-55.216	156.590	
204.00	-54.326	134.570	
205.00	-53.598	122.460	
206.00	-52.464	102.363	
207.00	-51.569	91.926	
208.00	-50.439	76.938	
209.00	-49.340	68.689	
210.00	-48.644	56.888	
211.00	-48.249	44.488	
212.00	-47.850	33.876	
213.00	-47.089	22.217	
214.00	-46.659	10.694	
215.00	-46.194	0.064	
216.00	-45.792	-12.320	
217.00	-45.277	-23.281	
218.00	-44.949	-31.979	
219.00	-44.634	-44.493	
220.00	-44.313	-55.474	
221.00	-43.989	-68.155	
222.00	-43.607	-76.355	
223.00	-43.522	-89.197	
224.00	-43.334	-100.747	
225.00	-43.128	-112.201	
226.00	-42.889	-125.639	
227.00	-42.649	-138.199	
228.00	-42.497	-148.227	
229.00	-42.429	-162.370	
230.00	-42.375	-172.389	
231.00	-42.405	172.206	
232.00	-42.391	162.816	
233.00	-42.438	150.633	
234.00	-42.503	137.986	
235.00	-42.603	126.536	
236.00	-42.795	111.508	
237.00	-42.987	99.942	
238.00	-43.048	84.286	
239.00	-43.246	70.804	
240.00	-43.290	56.715	
241.00	-43.313	40.602	
242.00	-43.361	28.397	
243.00	-43.376	12.857	
244.00	-43.431	-0.523	
245.00	-43.405	-16.586	
246.00	-43.451	-29.579	
247.00	-43.642	-43.177	
248.00	-43.793	-56.446	
249.00	-44.015	-73.521	
250.00	-44.386	-88.488	
251.00	-44.477	-103.693	
252.00	-44.690	-116.850	
253.00	-45.007	-132.422	
254.00	-45.342	-150.816	
255.00	-45.492	-166.227	
256.00	-45.736	179.027	
257.00	-46.021	159.850	
258.00	-46.842	145.470	
259.00	-47.203	125.163	
260.00	-47.620	107.070	
261.00	-48.272	89.232	
262.00	-48.674	74.200	
263.00	-49.005	56.095	
264.00	-49.213	38.614	
265.00	-49.167	16.192	
266.00	-49.246	-7.335	
267.00	-48.585	-17.707	
268.00	-48.482	-35.581	
269.00	-48.498	-51.406	
270.00	-48.189	-66.477	
271.00	-48.327	-82.694	
272.00	-48.095	-96.421	
273.00	-48.075	-111.913	
274.00	-48.287	-128.480	
275.00	-48.490	-140.905	
276.00	-48.415	-158.323	
277.00	-48.626	-171.893	
278.00	-48.745	172.773	
279.00	-48.546	153.610	
280.00	-48.669	143.750	
281.00	-48.700	127.411	
282.00	-48.996	115.376	
283.00	-49.465	100.692	
284.00	-49.474	85.951	
285.00	-50.108	72.111	
286.00	-50.532	55.229	
287.00	-51.518	36.139	
288.00	-52.189	12.598	
289.00	-52.687	-13.864	
290.00	-52.911	-33.296	
291.00	-52.382	-52.119	
292.00	-52.260	-72.897	
293.00	-51.341	-85.732	
294.00	-51.309	-101.733	
295.00	-50.424	-107.157	
296.00	-50.672	-124.529	
297.00	-50.563	-135.399	
298.00	-50.728	-147.804	
299.00	-50.996	-156.346	
300.00	-51.688	-173.802	
301.00	-51.944	-176.161	
302.00	-53.084	161.556	
303.00	-53.410	149.907	
304.00	-54.219	142.261	
305.00	-54.627	122.853	
306.00	-56.353	107.788	
307.00	-56.365	94.080	
308.00	-56.845	71.927	
309.00	-56.977	64.872	
310.00	-56.706	45.904	
311.00	-57.297	30.916	
312.00	-57.501	12.999	
313.00	-58.140	-2.899	
314.00	-59.185	-23.337	
315.00	-58.944	-42.621	
316.00	-58.882	-59.185	
317.00	-57.764	-78.039	
318.00	-57.626	-95.669	
319.00	-56.476	-101.090	
320.00	-56.529	-124.231	
321.00	-55.122	-119.521	
322.00	-55.893	-126.870	
323.00	-56.523	-128.611	
324.00	-56.748	-138.671	
325.00	-56.859	-146.428	
326.00	-58.563	-148.064	
327.00	-58.997	-157.652	
328.00	-60.816	-155.900	
329.00	-61.758	-156.729	
330.00	-65.234	-160.454	
331.00	-69.826	-150.757	
332.00	-76.556	-153.192	
333.00	-80.737	-64.846	
334.00	-71.926	-22.270	
335.00	-65.901	-6.271	
336.00	-64.736	-13.670	
337.00	-61.753	-13.552	
338.00	-61.144	-16.069	
339.00	-59.491	-15.626	
340.00	-58.923	-18.041	
341.00	-58.856	-20.403	
342.00	-59.156	-32.065	
343.00	-58.997	-35.557	
344.00	-59.819	-40.865	
345.00	-60.181	-51.690	
346.00	-60.508	-45.668	
347.00	-60.628	-58.797	
348.00	-61.247	-59.134	
349.00	-61.161	-80.776	
350.00	-61.798	-82.307	
351.00	-61.723	-86.725	
352.00	-61.163	-90.726	
353.00	-61.814	-101.494	
354.00	-60.904	-105.314	
355.00	-61.040	-107.432	
356.00	-61.354	-108.631	
357.00	-61.839	-113.020	
358.00	-61.301	-109.822	
359.00	-61.288	-106.900	
Frequency	1850.00	MHz	
Channel	test		
Scan Axis name	Azimuth  [deg]		
Scan Axis	Amplitude	Phase	
			
0.00	-60.769	92.856	
1.00	-61.041	97.246	
2.00	-61.561	106.179	
3.00	-60.963	108.195	
4.00	-60.536	107.649	
5.00	-59.667	113.009	
6.00	-60.385	118.924	
7.00	-60.334	114.949	
8.00	-61.323	116.549	
9.00	-62.516	116.110	
10.00	-61.883	118.926	
11.00	-63.444	122.316	
12.00	-64.086	113.745	
13.00	-64.612	105.349	
14.00	-67.938	111.418	
15.00	-69.297	111.545	
16.00	-69.603	112.685	
17.00	-68.940	112.813	
18.00	-71.249	110.429	
19.00	-71.669	92.419	
20.00	-75.828	97.394	
21.00	-72.848	77.646	
22.00	-71.685	104.504	
23.00	-70.658	106.446	
24.00	-68.651	120.873	
25.00	-66.861	118.635	
26.00	-65.610	131.907	
27.00	-64.658	128.301	
28.00	-62.967	142.014	
29.00	-63.271	141.165	
30.00	-61.626	143.314	
31.00	-60.971	161.235	
32.00	-61.027	159.928	
33.00	-60.025	156.076	
34.00	-59.785	169.947	
35.00	-58.581	172.264	
36.00	-58.610	-173.133	
37.00	-59.752	-170.901	
38.00	-60.387	-157.579	
39.00	-60.912	-152.127	
40.00	-61.659	-125.367	
41.00	-61.207	-100.317	
42.00	-59.830	-77.503	
43.00	-58.490	-58.920	
44.00	-55.966	-38.916	
45.00	-55.226	-36.768	
46.00	-54.702	-25.194	
47.00	-53.708	-20.903	
48.00	-53.528	-15.534	
49.00	-54.065	-3.423	
50.00	-55.076	-1.193	
51.00	-55.450	8.118	
52.00	-57.420	17.981	
53.00	-60.159	24.065	
54.00	-62.340	28.859	
55.00	-66.316	124.213	
56.00	-58.536	132.281	
57.00	-59.855	154.079	
58.00	-58.991	165.749	
59.00	-59.013	-177.780	
60.00	-58.872	-168.677	
61.00	-53.596	-156.773	
62.00	-53.046	-156.153	
63.00	-52.727	-129.537	
64.00	-53.811	-128.515	
65.00	-54.500	-122.517	
66.00	-54.731	-112.960	
67.00	-55.578	-100.231	
68.00	-56.480	-90.592	
69.00	-57.003	-74.909	
70.00	-58.455	-62.888	
71.00	-60.074	-51.517	
72.00	-62.116	-48.464	
73.00	-64.803	-31.255	
74.00	-71.535	-38.232	
75.00	-88.246	-19.304	
76.00	-71.903	174.209	
77.00	-65.940	-162.574	
78.00	-62.618	-160.019	
79.00	-60.818	-159.750	
80.00	-58.742	-136.883	
81.00	-57.346	-116.171	
82.00	-56.933	-114.745	
83.00	-56.151	-84.325	
84.00	-56.227	-83.483	
85.00	-56.380	-70.967	
86.00	-58.153	-49.946	
87.00	-57.399	-39.966	
88.00	-56.525	-26.571	
89.00	-58.705	3.147	
90.00	-58.186	22.900	
91.00	-57.584	39.574	
92.00	-56.237	63.199	
93.00	-56.652	78.220	
94.00	-56.014	99.855	
95.00	-55.229	120.902	
96.00	-53.413	138.820	
97.00	-53.126	154.961	
98.00	-52.021	171.392	
99.00	-51.864	-178.394	
100.00	-51.125	-156.438	
101.00	-50.815	-149.762	
102.00	-50.384	-133.241	
103.00	-49.870	-121.197	
104.00	-49.337	-102.412	
105.00	-49.012	-85.179	
106.00	-48.962	-76.998	
107.00	-48.642	-54.717	
108.00	-48.386	-45.860	
109.00	-48.399	-29.511	
110.00	-48.312	-21.074	
111.00	-48.157	-0.052	
112.00	-48.459	11.162	
113.00	-47.827	24.093	
114.00	-47.685	37.687	
115.00	-47.504	49.445	
116.00	-47.548	64.051	
117.00	-47.219	69.306	
118.00	-47.169	84.704	
119.00	-46.681	91.601	
120.00	-46.623	109.582	
121.00	-46.497	115.863	
122.00	-46.101	132.299	
123.00	-46.077	140.211	
124.00	-45.665	149.244	
125.00	-45.587	160.649	
126.00	-45.168	168.587	
127.00	-45.006	-179.397	
128.00	-44.731	-171.671	
129.00	-44.483	-157.693	
130.00	-44.363	-153.074	
131.00	-44.032	-142.423	
132.00	-43.746	-132.140	
133.00	-43.491	-122.910	
134.00	-43.121	-115.807	
135.00	-43.039	-110.164	
136.00	-42.860	-97.429	
137.00	-42.678	-90.948	
138.00	-42.384	-84.170	
139.00	-42.141	-74.786	
140.00	-41.993	-64.251	
141.00	-41.828	-55.391	
142.00	-41.705	-49.676	
143.00	-41.561	-46.549	
144.00	-41.472	-36.302	
145.00	-41.298	-31.684	
146.00	-41.209	-20.055	
147.00	-41.061	-16.061	
148.00	-41.078	-6.749	
149.00	-41.015	-2.402	
150.00	-41.112	7.831	
151.00	-41.087	10.918	
152.00	-41.011	15.961	
153.00	-41.048	20.997	
154.00	-41.087	28.982	
155.00	-41.089	33.153	
156.00	-41.200	37.665	
157.00	-41.090	39.954	
158.00	-41.187	47.581	
159.00	-41.228	53.726	
160.00	-41.383	54.512	
161.00	-41.360	58.208	
162.00	-41.462	60.190	
163.00	-41.587	66.377	
164.00	-41.684	67.666	
165.00	-41.728	68.305	
166.00	-41.872	67.681	
167.00	-41.915	67.455	
168.00	-42.030	70.160	
169.00	-42.155	68.020	
170.00	-42.302	66.237	
171.00	-42.356	62.342	
172.00	-42.407	66.230	
173.00	-42.436	60.788	
174.00	-42.505	61.051	
175.00	-42.460	55.584	
176.00	-42.508	54.918	
177.00	-42.483	55.686	
178.00	-42.428	49.207	
179.00	-42.394	49.397	
180.00	-42.383	43.711	
181.00	-42.365	41.983	
182.00	-42.332	38.601	
183.00	-42.400	36.759	
184.00	-42.417	28.323	
185.00	-42.326	28.429	
186.00	-41.951	20.514	
187.00	-42.292	19.349	
188.00	-42.293	13.742	
189.00	-42.358	7.852	
190.00	-42.352	8.209	
191.00	-42.481	-0.662	
192.00	-42.535	-3.433	
193.00	-42.632	-13.371	
194.00	-42.751	-13.973	
195.00	-42.785	-20.357	
196.00	-43.134	-26.442	
197.00	-43.385	-36.260	
198.00	-43.644	-42.138	
199.00	-43.949	-50.355	
200.00	-44.374	-58.904	
201.00	-44.792	-66.022	
202.00	-45.213	-77.565	
203.00	-45.649	-83.837	
204.00	-46.214	-93.164	
205.00	-46.783	-100.957	
206.00	-47.528	-114.304	
207.00	-48.155	-124.358	
208.00	-49.049	-138.817	
209.00	-50.949	-152.382	
210.00	-51.486	-170.930	
211.00	-51.458	170.396	
212.00	-51.680	151.560	
213.00	-51.636	129.628	
214.00	-51.183	108.205	
215.00	-49.733	94.230	
216.00	-49.625	73.519	
217.00	-48.749	57.733	
218.00	-48.031	46.895	
219.00	-47.283	32.509	
220.00	-46.692	21.035	
221.00	-46.044	6.005	
222.00	-45.689	-3.352	
223.00	-45.482	-16.112	
224.00	-44.947	-29.887	
225.00	-44.755	-40.924	
226.00	-44.406	-56.693	
227.00	-43.998	-71.699	
228.00	-43.901	-82.785	
229.00	-43.636	-96.090	
230.00	-43.414	-107.480	
231.00	-43.179	-124.364	
232.00	-43.169	-132.993	
233.00	-42.928	-146.835	
234.00	-42.883	-158.656	
235.00	-42.909	-170.250	
236.00	-42.929	176.910	
237.00	-43.116	164.760	
238.00	-43.290	150.152	
239.00	-43.516	137.606	
240.00	-43.850	122.290	
241.00	-44.067	106.991	
242.00	-44.380	94.016	
243.00	-44.745	77.692	
244.00	-44.986	60.832	
245.00	-45.243	42.903	
246.00	-45.364	25.533	
247.00	-45.422	8.287	
248.00	-45.291	-9.789	
249.00	-45.136	-28.686	
250.00	-44.799	-45.389	
251.00	-44.515	-59.371	
252.00	-44.313	-73.570	
253.00	-44.133	-88.166	
254.00	-44.085	-101.936	
255.00	-44.230	-118.608	
256.00	-44.485	-130.235	
257.00	-44.902	-148.054	
258.00	-45.473	-160.845	
259.00	-46.094	179.658	
260.00	-46.619	158.846	
261.00	-47.013	141.119	
262.00	-47.218	125.322	
263.00	-47.387	109.651	
264.00	-46.481	95.476	
265.00	-46.895	72.884	
266.00	-46.495	60.883	
267.00	-46.894	43.680	
268.00	-46.964	29.330	
269.00	-46.806	18.222	
270.00	-46.959	5.674	
271.00	-47.580	-9.273	
272.00	-47.953	-21.405	
273.00	-48.688	-34.969	
274.00	-49.155	-50.457	
275.00	-49.961	-63.329	
276.00	-50.974	-81.117	
277.00	-51.725	-95.498	
278.00	-52.445	-111.311	
279.00	-53.680	-135.695	
280.00	-53.406	-148.438	
281.00	-54.975	-175.603	
282.00	-53.446	161.735	
283.00	-55.277	138.588	
284.00	-55.275	118.113	
285.00	-54.596	95.873	
286.00	-54.248	73.932	
287.00	-52.850	49.023	
288.00	-51.995	28.984	
289.00	-51.665	11.462	
290.00	-51.032	0.219	
291.00	-50.863	-12.431	
292.00	-50.813	-24.303	
293.00	-51.098	-38.391	
294.00	-51.459	-48.601	
295.00	-51.420	-57.056	
296.00	-52.365	-72.939	
297.00	-53.083	-86.480	
298.00	-54.207	-99.825	
299.00	-54.548	-114.154	
300.00	-55.880	-137.294	
301.00	-56.077	-143.912	
302.00	-57.113	-174.933	
303.00	-56.975	172.981	
304.00	-56.756	153.666	
305.00	-56.774	136.068	
306.00	-56.596	117.013	
307.00	-56.345	101.141	
308.00	-56.004	88.215	
309.00	-55.364	75.631	
310.00	-55.439	67.283	
311.00	-55.598	51.959	
312.00	-55.816	41.978	
313.00	-56.456	30.989	
314.00	-56.992	18.499	
315.00	-57.282	6.407	
316.00	-57.921	-5.168	
317.00	-59.040	-22.578	
318.00	-59.810	-46.200	
319.00	-62.005	-60.267	
320.00	-64.381	-51.094	
321.00	-64.120	-89.569	
322.00	-63.481	-107.072	
323.00	-61.694	-124.830	
324.00	-61.523	-129.495	
325.00	-62.746	-160.974	
326.00	-62.257	-165.057	
327.00	-61.272	166.602	
328.00	-62.593	163.213	
329.00	-62.969	138.522	
330.00	-63.256	129.506	
331.00	-61.601	110.664	
332.00	-61.746	102.059	
333.00	-59.960	86.789	
334.00	-60.013	78.385	
335.00	-59.076	71.952	
336.00	-58.193	64.429	
337.00	-57.686	62.075	
338.00	-56.894	59.093	
339.00	-56.703	50.653	
340.00	-55.561	50.772	
341.00	-55.217	46.291	
342.00	-54.508	44.109	
343.00	-54.296	40.387	
344.00	-54.534	39.284	
345.00	-54.540	37.805	
346.00	-54.787	41.653	
347.00	-54.523	42.943	
348.00	-55.200	41.524	
349.00	-55.020	37.663	
350.00	-55.616	42.738	
351.00	-56.111	43.261	
352.00	-56.756	52.494	
353.00	-57.245	48.276	
354.00	-58.483	51.456	
355.00	-58.718	56.809	
356.00	-60.331	61.107	
357.00	-61.508	75.626	
358.00	-61.428	79.676	
359.00	-62.335	90.661	
Frequency	1950.00	MHz	
Channel	test		
Scan Axis name	Azimuth  [deg]		
Scan Axis	Amplitude	Phase	
			
0.00	-57.895	-161.727	
1.00	-57.747	-165.654	
2.00	-57.201	-167.632	
3.00	-56.749	-164.057	
4.00	-57.264	-170.066	
5.00	-57.278	-170.177	
6.00	-57.656	-168.460	
7.00	-57.776	-170.262	
8.00	-58.478	-174.693	
9.00	-59.729	-176.850	
10.00	-60.327	174.516	
11.00	-61.613	171.934	
12.00	-64.003	166.838	
13.00	-64.859	154.841	
14.00	-67.840	130.036	
15.00	-66.948	113.879	
16.00	-66.522	93.867	
17.00	-64.465	82.737	
18.00	-63.619	69.209	
19.00	-62.484	67.097	
20.00	-60.936	65.541	
21.00	-60.970	68.865	
22.00	-60.413	68.320	
23.00	-59.541	74.627	
24.00	-59.235	84.943	
25.00	-58.801	87.554	
26.00	-58.957	102.905	
27.00	-57.458	105.294	
28.00	-58.603	122.691	
29.00	-59.101	126.976	
30.00	-57.964	128.020	
31.00	-58.178	145.857	
32.00	-57.303	161.145	
33.00	-57.526	165.788	
34.00	-57.538	177.396	
35.00	-57.746	-174.035	
36.00	-58.493	-167.948	
37.00	-59.264	-163.250	
38.00	-59.809	-152.899	
39.00	-63.912	-139.892	
40.00	-64.827	-114.227	
41.00	-68.418	-88.641	
42.00	-67.376	-39.414	
43.00	-64.188	0.299	
44.00	-59.733	16.716	
45.00	-59.441	28.844	
46.00	-57.350	43.391	
47.00	-56.084	52.940	
48.00	-56.118	58.656	
49.00	-55.884	64.276	
50.00	-54.588	76.660	
51.00	-55.630	83.731	
52.00	-56.039	92.408	
53.00	-59.457	130.062	
54.00	-55.803	122.368	
55.00	-58.957	122.665	
56.00	-60.999	169.314	
57.00	-61.877	-179.487	
58.00	-64.176	-167.752	
59.00	-62.802	-151.577	
60.00	-61.693	-129.551	
61.00	-61.759	-84.908	
62.00	-61.186	-72.829	
63.00	-61.112	-50.404	
64.00	-60.027	-40.759	
65.00	-58.604	-26.096	
66.00	-58.216	-9.606	
67.00	-58.217	13.157	
68.00	-56.692	20.671	
69.00	-55.937	38.973	
70.00	-55.805	39.485	
71.00	-55.575	61.249	
72.00	-55.285	63.717	
73.00	-56.283	84.565	
74.00	-55.802	83.087	
75.00	-56.793	96.135	
76.00	-57.576	104.253	
77.00	-58.557	96.399	
78.00	-59.758	121.894	
79.00	-63.265	131.906	
80.00	-67.754	154.416	
81.00	-70.226	-145.379	
82.00	-71.388	-122.833	
83.00	-67.061	-91.509	
84.00	-63.842	-86.527	
85.00	-64.356	-71.824	
86.00	-65.951	-35.761	
87.00	-67.604	-63.497	
88.00	-73.641	-64.737	
89.00	-81.015	164.183	
90.00	-73.908	114.450	
91.00	-74.587	173.978	
92.00	-69.094	154.523	
93.00	-67.418	163.018	
94.00	-67.502	167.728	
95.00	-64.275	170.787	
96.00	-66.647	-169.835	
97.00	-67.188	-167.766	
98.00	-69.976	-155.109	
99.00	-70.443	-144.404	
100.00	-73.141	-166.802	
101.00	-73.367	66.418	
102.00	-68.701	116.654	
103.00	-75.745	88.577	
104.00	-71.037	70.340	
105.00	-74.160	99.837	
106.00	-69.247	85.037	
107.00	-73.231	89.898	
108.00	-72.330	36.400	
109.00	-71.361	161.791	
110.00	-69.234	158.456	
111.00	-67.413	-172.829	
112.00	-68.529	-148.444	
113.00	-64.339	-135.615	
114.00	-61.940	-137.248	
115.00	-61.801	-119.933	
116.00	-60.698	-117.552	
117.00	-61.804	-112.141	
118.00	-59.400	-106.788	
119.00	-59.079	-103.072	
120.00	-58.745	-90.118	
121.00	-58.313	-90.031	
122.00	-58.437	-77.583	
123.00	-59.252	-73.136	
124.00	-58.358	-59.397	
125.00	-59.930	-35.980	
126.00	-58.591	-41.201	
127.00	-56.329	-30.014	
128.00	-54.937	-20.898	
129.00	-54.578	-8.686	
130.00	-53.740	-6.419	
131.00	-53.270	5.361	
132.00	-52.173	9.800	
133.00	-51.772	16.639	
134.00	-51.636	24.699	
135.00	-50.901	28.488	
136.00	-50.347	39.733	
137.00	-49.654	46.675	
138.00	-49.516	50.672	
139.00	-48.849	61.128	
140.00	-49.037	69.238	
141.00	-48.680	79.314	
142.00	-48.392	85.047	
143.00	-47.892	86.470	
144.00	-47.869	98.054	
145.00	-47.606	100.806	
146.00	-47.495	114.035	
147.00	-47.276	118.637	
148.00	-47.305	129.585	
149.00	-47.292	130.642	
150.00	-47.130	144.217	
151.00	-46.979	146.879	
152.00	-46.978	151.822	
153.00	-46.942	159.153	
154.00	-46.616	165.801	
155.00	-46.301	170.034	
156.00	-46.239	174.925	
157.00	-46.040	176.710	
158.00	-46.131	-175.207	
159.00	-45.972	-167.359	
160.00	-45.892	-166.134	
161.00	-45.670	-162.278	
162.00	-45.539	-160.768	
163.00	-45.583	-154.047	
164.00	-45.389	-153.401	
165.00	-45.356	-152.297	
166.00	-45.373	-153.022	
167.00	-45.212	-152.233	
168.00	-45.186	-148.631	
169.00	-45.098	-150.518	
170.00	-45.143	-151.784	
171.00	-45.069	-154.738	
172.00	-45.019	-151.071	
173.00	-44.919	-155.196	
174.00	-44.842	-154.267	
175.00	-44.702	-158.602	
176.00	-44.774	-159.354	
177.00	-44.814	-157.262	
178.00	-44.604	-163.972	
179.00	-44.637	-161.907	
180.00	-44.449	-168.528	
181.00	-44.458	-168.610	
182.00	-44.544	-170.810	
183.00	-44.333	-171.743	
184.00	-44.342	179.797	
185.00	-44.476	-179.309	
186.00	-44.408	173.784	
187.00	-44.510	173.438	
188.00	-44.380	168.214	
189.00	-44.417	162.518	
190.00	-44.553	161.187	
191.00	-44.545	154.990	
192.00	-44.733	153.344	
193.00	-44.721	144.382	
194.00	-44.949	144.355	
195.00	-44.909	137.086	
196.00	-45.270	134.148	
197.00	-45.387	125.412	
198.00	-45.691	120.155	
199.00	-46.123	114.684	
200.00	-46.670	106.724	
201.00	-47.052	101.005	
202.00	-47.544	90.840	
203.00	-48.237	83.086	
204.00	-48.935	76.819	
205.00	-49.834	67.734	
206.00	-50.929	53.353	
207.00	-51.791	42.728	
208.00	-52.768	25.638	
209.00	-53.808	13.308	
210.00	-54.294	-8.268	
211.00	-54.676	-31.785	
212.00	-54.889	-50.643	
213.00	-53.880	-73.416	
214.00	-53.001	-92.714	
215.00	-52.060	-107.352	
216.00	-51.515	-122.338	
217.00	-50.485	-137.999	
218.00	-49.648	-147.131	
219.00	-49.213	-160.776	
220.00	-48.430	-171.164	
221.00	-47.781	175.495	
222.00	-47.638	166.035	
223.00	-47.381	153.918	
224.00	-47.311	143.848	
225.00	-47.286	130.604	
226.00	-47.106	115.959	
227.00	-47.170	102.515	
228.00	-47.189	90.803	
229.00	-47.289	74.329	
230.00	-47.141	63.454	
231.00	-47.274	46.346	
232.00	-47.271	34.548	
233.00	-47.354	21.654	
234.00	-47.453	7.223	
235.00	-47.538	-4.439	
236.00	-47.612	-20.792	
237.00	-47.727	-34.038	
238.00	-48.155	-48.762	
239.00	-48.264	-63.702	
240.00	-48.542	-79.291	
241.00	-48.899	-95.863	
242.00	-48.711	-109.912	
243.00	-49.282	-124.712	
244.00	-49.228	-142.435	
245.00	-49.230	-160.201	
246.00	-49.692	-174.232	
247.00	-50.031	167.711	
248.00	-50.009	152.594	
249.00	-50.282	133.171	
250.00	-50.212	116.349	
251.00	-50.273	99.670	
252.00	-50.283	85.671	
253.00	-50.157	66.477	
254.00	-49.680	50.408	
255.00	-49.654	33.870	
256.00	-49.615	20.633	
257.00	-49.791	4.538	
258.00	-50.152	-8.551	
259.00	-50.931	-23.435	
260.00	-51.751	-40.618	
261.00	-52.432	-55.143	
262.00	-53.698	-66.599	
263.00	-54.065	-89.245	
264.00	-55.044	-105.636	
265.00	-56.013	-130.650	
266.00	-53.594	-147.159	
267.00	-53.996	-168.934	
268.00	-55.044	173.769	
269.00	-54.723	157.715	
270.00	-54.379	143.993	
271.00	-54.568	130.235	
272.00	-54.819	115.175	
273.00	-54.869	99.655	
274.00	-55.610	84.387	
275.00	-55.853	72.531	
276.00	-56.250	55.040	
277.00	-56.838	43.820	
278.00	-57.083	26.483	
279.00	-57.667	17.181	
280.00	-58.482	2.935	
281.00	-59.632	-9.809	
282.00	-61.722	-17.605	
283.00	-64.227	-35.215	
284.00	-68.972	-53.400	
285.00	-74.091	-115.310	
286.00	-70.255	-169.733	
287.00	-63.214	145.630	
288.00	-59.960	134.563	
289.00	-58.838	120.114	
290.00	-57.875	113.653	
291.00	-57.302	97.274	
292.00	-57.589	93.801	
293.00	-57.422	77.297	
294.00	-58.372	64.057	
295.00	-58.647	58.595	
296.00	-58.447	37.543	
297.00	-59.312	24.987	
298.00	-60.560	9.470	
299.00	-61.369	-7.704	
300.00	-59.253	-15.601	
301.00	-59.937	-31.123	
302.00	-60.419	-36.835	
303.00	-59.771	-59.210	
304.00	-59.909	-63.272	
305.00	-61.383	-68.569	
306.00	-61.855	-83.117	
307.00	-62.153	-89.050	
308.00	-65.952	-101.998	
309.00	-65.090	-111.133	
310.00	-66.765	-125.477	
311.00	-70.395	-137.726	
312.00	-77.344	-172.308	
313.00	-79.837	-177.565	
314.00	-74.619	113.020	
315.00	-72.935	101.115	
316.00	-72.741	97.069	
317.00	-75.782	50.090	
318.00	-75.700	75.788	
319.00	-79.930	129.325	
320.00	-68.128	-166.839	
321.00	-74.064	125.217	
322.00	-70.866	129.781	
323.00	-73.990	-175.705	
324.00	-71.104	171.352	
325.00	-69.019	168.709	
326.00	-70.290	160.743	
327.00	-67.114	155.245	
328.00	-65.752	159.157	
329.00	-65.685	153.285	
330.00	-65.180	150.975	
331.00	-65.176	142.561	
332.00	-64.238	145.245	
333.00	-63.887	130.005	
334.00	-64.313	131.051	
335.00	-64.002	136.509	
336.00	-65.550	131.115	
337.00	-64.272	132.120	
338.00	-64.958	132.266	
339.00	-65.252	134.611	
340.00	-66.645	128.525	
341.00	-66.205	135.121	
342.00	-69.052	118.332	
343.00	-68.035	126.765	
344.00	-69.457	120.150	
345.00	-69.787	132.408	
346.00	-68.917	167.268	
347.00	-72.451	-178.994	
348.00	-66.909	-179.750	
349.00	-67.695	-176.839	
350.00	-66.137	-164.521	
351.00	-67.434	-169.840	
352.00	-64.327	-161.837	
353.00	-64.328	-173.641	
354.00	-63.238	-170.039	
355.00	-61.296	-162.424	
356.00	-60.558	-161.846	
357.00	-59.637	-164.190	
358.00	-59.392	-161.503	
359.00	-58.809	-160.865	
Frequency	2050.00	MHz	
Channel	test		
Scan Axis name	Azimuth  [deg]		
Scan Axis	Amplitude	Phase	
			
0.00	-60.850	-144.460	
1.00	-61.491	-131.529	
2.00	-60.950	-127.498	
3.00	-61.176	-120.818	
4.00	-61.741	-124.099	
5.00	-62.706	-110.631	
6.00	-61.813	-105.584	
7.00	-64.592	-93.958	
8.00	-63.760	-79.849	
9.00	-65.240	-66.842	
10.00	-64.811	-55.887	
11.00	-65.323	-34.015	
12.00	-64.206	-25.096	
13.00	-63.398	-21.227	
14.00	-63.167	-13.587	
15.00	-62.490	-4.746	
16.00	-62.423	-2.307	
17.00	-62.069	8.017	
18.00	-62.486	2.656	
19.00	-65.331	27.759	
20.00	-65.516	26.728	
21.00	-66.923	37.117	
22.00	-68.451	56.954	
23.00	-75.129	100.650	
24.00	-75.576	96.312	
25.00	-73.491	-175.682	
26.00	-66.928	-155.156	
27.00	-63.826	-169.899	
28.00	-59.938	-145.134	
29.00	-59.736	-137.465	
30.00	-58.979	-142.981	
31.00	-57.566	-127.733	
32.00	-56.472	-118.716	
33.00	-57.028	-118.352	
34.00	-55.929	-108.855	
35.00	-55.911	-104.297	
36.00	-56.253	-100.242	
37.00	-57.372	-99.604	
38.00	-56.326	-88.819	
39.00	-57.400	-69.861	
40.00	-57.893	-73.908	
41.00	-60.709	-62.217	
42.00	-60.612	-47.029	
43.00	-61.525	-37.376	
44.00	-63.290	-29.097	
45.00	-67.047	-14.367	
46.00	-67.042	-10.961	
47.00	-73.377	13.384	
48.00	-71.294	-52.037	
49.00	-72.192	-113.927	
50.00	-69.746	-57.845	
51.00	-64.580	-79.577	
52.00	-63.440	-81.196	
53.00	-62.080	-78.378	
54.00	-64.217	-89.856	
55.00	-65.536	-55.447	
56.00	-55.050	-41.936	
57.00	-62.895	-34.257	
58.00	-61.172	-17.413	
59.00	-60.316	-18.922	
60.00	-60.722	-23.304	
61.00	-59.758	19.390	
62.00	-59.227	43.800	
63.00	-57.422	70.358	
64.00	-60.413	90.992	
65.00	-60.967	97.419	
66.00	-60.170	100.658	
67.00	-61.696	135.433	
68.00	-61.719	133.166	
69.00	-64.252	159.278	
70.00	-62.813	178.867	
71.00	-61.884	-140.596	
72.00	-65.597	-116.425	
73.00	-59.295	-90.151	
74.00	-59.291	-82.799	
75.00	-57.857	-54.537	
76.00	-56.813	-44.163	
77.00	-55.545	-26.249	
78.00	-55.083	-18.662	
79.00	-55.207	-9.967	
80.00	-55.433	12.253	
81.00	-56.172	36.276	
82.00	-57.164	42.801	
83.00	-57.510	67.721	
84.00	-57.528	88.150	
85.00	-57.269	111.027	
86.00	-57.151	129.597	
87.00	-61.093	135.032	
88.00	-58.153	151.947	
89.00	-59.127	-177.040	
90.00	-59.287	-170.180	
91.00	-59.915	-154.963	
92.00	-61.197	-117.917	
93.00	-59.927	-95.117	
94.00	-58.572	-77.586	
95.00	-60.216	-83.900	
96.00	-59.264	-34.252	
97.00	-57.812	-28.135	
98.00	-56.623	1.750	
99.00	-60.012	-0.510	
100.00	-57.538	44.907	
101.00	-58.565	54.966	
102.00	-58.858	70.111	
103.00	-59.269	96.364	
104.00	-58.240	125.602	
105.00	-56.579	139.152	
106.00	-55.917	149.687	
107.00	-56.234	173.937	
108.00	-54.931	-166.975	
109.00	-54.033	-158.169	
110.00	-53.762	-151.611	
111.00	-55.144	-134.895	
112.00	-53.510	-122.295	
113.00	-54.598	-114.951	
114.00	-55.399	-102.148	
115.00	-55.761	-91.702	
116.00	-56.534	-73.069	
117.00	-57.175	-72.289	
118.00	-57.957	-55.833	
119.00	-59.646	-35.187	
120.00	-58.850	-16.367	
121.00	-60.999	-5.260	
122.00	-60.601	34.018	
123.00	-58.476	26.042	
124.00	-59.265	51.842	
125.00	-58.136	53.062	
126.00	-59.087	64.458	
127.00	-56.903	66.454	
128.00	-58.490	81.778	
129.00	-57.946	91.742	
130.00	-57.129	90.844	
131.00	-57.321	103.956	
132.00	-56.725	110.474	
133.00	-56.668	120.748	
134.00	-56.487	121.324	
135.00	-56.633	132.943	
136.00	-56.338	144.936	
137.00	-56.793	150.932	
138.00	-57.332	157.675	
139.00	-56.629	172.902	
140.00	-56.339	-165.033	
141.00	-56.078	-156.125	
142.00	-55.028	-142.179	
143.00	-54.172	-134.178	
144.00	-53.590	-126.537	
145.00	-52.603	-116.839	
146.00	-51.792	-103.246	
147.00	-51.117	-96.741	
148.00	-50.233	-86.461	
149.00	-49.741	-83.006	
150.00	-49.341	-70.998	
151.00	-48.897	-68.449	
152.00	-48.737	-62.907	
153.00	-48.325	-59.433	
154.00	-48.225	-50.449	
155.00	-48.069	-45.061	
156.00	-48.005	-40.838	
157.00	-48.072	-38.860	
158.00	-48.311	-31.471	
159.00	-48.482	-20.353	
160.00	-48.678	-20.117	
161.00	-49.227	-12.918	
162.00	-49.394	-8.198	
163.00	-49.492	3.065	
164.00	-49.985	8.597	
165.00	-49.836	12.902	
166.00	-50.123	16.509	
167.00	-50.263	21.085	
168.00	-50.292	30.693	
169.00	-50.271	33.281	
170.00	-50.369	35.400	
171.00	-50.045	35.085	
172.00	-50.184	43.640	
173.00	-50.172	41.071	
174.00	-50.368	42.777	
175.00	-49.926	40.536	
176.00	-50.125	40.641	
177.00	-49.647	45.304	
178.00	-49.809	39.056	
179.00	-49.631	39.170	
180.00	-49.680	32.495	
181.00	-49.499	31.402	
182.00	-49.618	29.680	
183.00	-49.572	27.303	
184.00	-49.621	16.729	
185.00	-49.597	17.094	
186.00	-49.530	8.945	
187.00	-49.394	6.144	
188.00	-49.410	-0.856	
189.00	-49.531	-9.153	
190.00	-49.370	-8.845	
191.00	-49.415	-19.600	
192.00	-49.229	-23.884	
193.00	-48.976	-34.745	
194.00	-49.057	-37.655	
195.00	-49.230	-47.108	
196.00	-49.083	-51.672	
197.00	-48.934	-62.584	
198.00	-49.202	-68.220	
199.00	-48.960	-75.334	
200.00	-49.230	-84.425	
201.00	-49.396	-90.040	
202.00	-49.594	-98.987	
203.00	-49.764	-104.147	
204.00	-50.034	-113.703	
205.00	-50.425	-119.508	
206.00	-50.902	-131.181	
207.00	-51.374	-137.863	
208.00	-52.141	-147.797	
209.00	-52.763	-155.178	
210.00	-53.720	-165.910	
211.00	-54.763	-176.754	
212.00	-55.994	172.316	
213.00	-57.718	161.672	
214.00	-59.691	144.834	
215.00	-61.495	130.708	
216.00	-63.738	102.278	
217.00	-66.575	74.558	
218.00	-67.063	36.033	
219.00	-65.597	-4.744	
220.00	-63.823	-31.050	
221.00	-61.181	-52.546	
222.00	-59.449	-61.607	
223.00	-58.746	-77.331	
224.00	-57.575	-92.310	
225.00	-57.352	-105.741	
226.00	-56.889	-123.903	
227.00	-56.436	-140.217	
228.00	-56.340	-153.160	
229.00	-56.032	-172.190	
230.00	-55.955	173.819	
231.00	-55.214	149.220	
232.00	-55.196	137.331	
233.00	-54.363	120.560	
234.00	-53.975	106.455	
235.00	-53.618	91.589	
236.00	-53.052	74.531	
237.00	-52.974	62.572	
238.00	-52.760	46.614	
239.00	-52.600	32.622	
240.00	-52.745	18.233	
241.00	-52.399	2.811	
242.00	-52.699	-10.971	
243.00	-52.809	-26.502	
244.00	-52.930	-42.416	
245.00	-53.172	-60.344	
246.00	-53.627	-75.857	
247.00	-53.915	-93.209	
248.00	-54.385	-109.702	
249.00	-54.467	-130.298	
250.00	-55.012	-150.088	
251.00	-54.918	-170.548	
252.00	-54.837	171.777	
253.00	-54.547	153.738	
254.00	-54.311	135.120	
255.00	-54.272	117.804	
256.00	-54.257	101.638	
257.00	-54.430	82.570	
258.00	-54.657	69.400	
259.00	-55.259	51.993	
260.00	-55.794	33.459	
261.00	-56.608	17.400	
262.00	-57.450	0.575	
263.00	-58.618	-15.262	
264.00	-58.791	-30.682	
265.00	-58.362	-65.637	
266.00	-59.070	-90.608	
267.00	-58.188	-107.647	
268.00	-58.223	-125.989	
269.00	-57.675	-144.508	
270.00	-57.216	-158.223	
271.00	-56.785	-177.381	
272.00	-57.269	171.318	
273.00	-57.000	157.177	
274.00	-57.448	139.256	
275.00	-57.738	127.757	
276.00	-58.235	111.766	
277.00	-59.012	96.825	
278.00	-59.949	77.310	
279.00	-61.035	51.864	
280.00	-61.558	34.942	
281.00	-61.261	11.747	
282.00	-61.286	-10.453	
283.00	-60.629	-38.287	
284.00	-60.136	-59.048	
285.00	-58.747	-76.662	
286.00	-57.662	-94.241	
287.00	-57.107	-117.595	
288.00	-56.302	-134.967	
289.00	-56.022	-151.383	
290.00	-55.736	-163.267	
291.00	-55.887	-175.529	
292.00	-56.083	166.657	
293.00	-56.096	152.455	
294.00	-56.416	136.709	
295.00	-56.742	129.617	
296.00	-57.056	110.667	
297.00	-57.271	92.041	
298.00	-58.069	75.328	
299.00	-58.047	61.101	
300.00	-57.697	37.785	
301.00	-57.836	27.832	
302.00	-57.819	5.460	
303.00	-57.408	-8.433	
304.00	-57.217	-22.438	
305.00	-57.180	-37.056	
306.00	-57.221	-50.536	
307.00	-57.151	-67.721	
308.00	-56.910	-78.798	
309.00	-56.828	-92.993	
310.00	-56.492	-105.868	
311.00	-56.197	-117.774	
312.00	-55.664	-130.819	
313.00	-55.813	-139.556	
314.00	-55.351	-146.972	
315.00	-55.886	-155.703	
316.00	-55.603	-159.056	
317.00	-56.036	-167.392	
318.00	-56.006	-170.062	
319.00	-55.952	-174.721	
320.00	-56.929	-172.729	
321.00	-55.136	-179.828	
322.00	-56.602	172.025	
323.00	-57.828	176.407	
324.00	-58.422	178.072	
325.00	-58.665	-178.275	
326.00	-58.030	178.938	
327.00	-59.285	-175.425	
328.00	-59.408	-168.232	
329.00	-59.624	-161.345	
330.00	-58.878	-164.859	
331.00	-59.137	-161.417	
332.00	-58.448	-164.083	
333.00	-58.850	-161.813	
334.00	-59.554	-166.086	
335.00	-59.473	-165.077	
336.00	-59.066	-163.289	
337.00	-59.245	-160.381	
338.00	-58.439	-163.575	
339.00	-58.142	-163.861	
340.00	-57.675	-169.935	
341.00	-57.391	-168.342	
342.00	-57.477	-172.325	
343.00	-57.194	-174.473	
344.00	-56.980	-179.778	
345.00	-57.253	174.576	
346.00	-57.611	-178.656	
347.00	-57.842	-179.760	
348.00	-58.049	-177.525	
349.00	-57.554	175.940	
350.00	-58.240	174.870	
351.00	-58.608	176.486	
352.00	-58.482	179.699	
353.00	-59.264	-178.064	
354.00	-59.496	-172.197	
355.00	-59.568	-168.591	
356.00	-59.210	-165.725	
357.00	-59.278	-160.258	
358.00	-59.446	-152.299	
359.00	-58.997	-147.549	
Frequency	2170.00	MHz	
Channel	test		
Scan Axis name	Azimuth  [deg]		
Scan Axis	Amplitude	Phase	
			
0.00	-67.733	141.762	
1.00	-70.235	130.874	
2.00	-73.765	87.154	
3.00	-72.160	42.791	
4.00	-67.376	26.811	
5.00	-64.057	12.624	
6.00	-61.922	1.491	
7.00	-59.272	4.596	
8.00	-58.250	3.618	
9.00	-56.511	5.324	
10.00	-55.833	7.393	
11.00	-55.000	9.787	
12.00	-54.658	10.351	
13.00	-54.408	12.421	
14.00	-54.153	20.364	
15.00	-54.255	26.336	
16.00	-53.845	32.691	
17.00	-53.934	36.919	
18.00	-53.981	43.640	
19.00	-54.431	54.912	
20.00	-54.432	62.946	
21.00	-54.761	75.531	
22.00	-54.878	82.121	
23.00	-55.867	93.168	
24.00	-56.678	113.427	
25.00	-56.640	128.859	
26.00	-57.312	150.443	
27.00	-55.697	164.332	
28.00	-54.011	-170.226	
29.00	-54.012	-164.111	
30.00	-52.888	-153.269	
31.00	-52.875	-144.802	
32.00	-52.845	-135.748	
33.00	-52.160	-127.811	
34.00	-52.486	-118.419	
35.00	-53.151	-108.587	
36.00	-54.056	-97.741	
37.00	-55.084	-86.806	
38.00	-57.346	-64.755	
39.00	-57.375	-44.904	
40.00	-60.080	-12.126	
41.00	-59.594	-6.451	
42.00	-58.740	20.818	
43.00	-56.941	43.190	
44.00	-56.138	61.245	
45.00	-55.356	72.729	
46.00	-55.038	82.872	
47.00	-55.905	93.310	
48.00	-56.711	104.548	
49.00	-58.910	116.526	
50.00	-60.722	135.651	
51.00	-63.278	164.868	
52.00	-65.721	-167.921	
53.00	-60.987	-104.834	
54.00	-62.887	-61.763	
55.00	-62.808	-64.262	
56.00	-60.316	-64.979	
57.00	-58.474	-46.680	
58.00	-57.336	-36.252	
59.00	-59.080	-10.207	
60.00	-57.588	-2.365	
61.00	-59.145	11.804	
62.00	-60.760	38.664	
63.00	-59.509	69.658	
64.00	-60.779	85.337	
65.00	-59.784	114.085	
66.00	-60.205	135.277	
67.00	-59.146	165.383	
68.00	-56.886	174.949	
69.00	-56.970	-164.962	
70.00	-55.213	-160.551	
71.00	-55.607	-134.799	
72.00	-55.902	-124.899	
73.00	-56.381	-103.136	
74.00	-56.389	-90.311	
75.00	-56.840	-67.521	
76.00	-57.374	-52.734	
77.00	-57.797	-34.965	
78.00	-58.519	-11.948	
79.00	-58.753	19.924	
80.00	-58.086	43.322	
81.00	-57.918	66.013	
82.00	-55.516	76.406	
83.00	-57.411	97.964	
84.00	-55.866	123.306	
85.00	-55.677	144.834	
86.00	-55.964	159.552	
87.00	-55.619	165.807	
88.00	-55.957	-176.589	
89.00	-56.140	-159.465	
90.00	-57.995	-144.156	
91.00	-57.332	-138.346	
92.00	-58.801	-118.087	
93.00	-61.617	-103.165	
94.00	-61.223	-70.899	
95.00	-62.297	-35.799	
96.00	-61.302	20.209	
97.00	-59.539	32.992	
98.00	-57.576	57.090	
99.00	-56.862	65.451	
100.00	-54.949	85.444	
101.00	-54.552	95.169	
102.00	-54.110	108.167	
103.00	-53.626	124.796	
104.00	-53.565	141.757	
105.00	-53.727	156.231	
106.00	-54.756	169.788	
107.00	-54.820	-161.008	
108.00	-54.258	-146.212	
109.00	-54.346	-129.622	
110.00	-53.664	-118.664	
111.00	-54.431	-97.279	
112.00	-54.605	-78.857	
113.00	-55.363	-63.623	
114.00	-55.880	-46.313	
115.00	-56.065	-25.827	
116.00	-55.781	2.266	
117.00	-54.904	5.093	
118.00	-54.548	31.918	
119.00	-53.922	39.216	
120.00	-53.386	61.055	
121.00	-52.346	69.040	
122.00	-52.939	83.896	
123.00	-52.039	93.280	
124.00	-52.134	103.575	
125.00	-51.778	114.406	
126.00	-52.446	122.021	
127.00	-52.658	137.847	
128.00	-53.216	148.157	
129.00	-53.224	169.319	
130.00	-53.391	177.095	
131.00	-53.219	-168.745	
132.00	-52.869	-157.720	
133.00	-53.091	-142.055	
134.00	-52.550	-137.727	
135.00	-52.405	-127.239	
136.00	-52.020	-118.247	
137.00	-51.579	-105.540	
138.00	-51.334	-101.635	
139.00	-51.201	-88.030	
140.00	-50.812	-77.698	
141.00	-50.643	-67.931	
142.00	-50.198	-61.509	
143.00	-49.967	-59.706	
144.00	-50.122	-45.785	
145.00	-49.868	-42.025	
146.00	-49.409	-26.731	
147.00	-49.528	-20.533	
148.00	-49.236	-8.154	
149.00	-49.183	-1.038	
150.00	-48.947	14.378	
151.00	-48.706	20.297	
152.00	-48.218	27.226	
153.00	-47.764	34.552	
154.00	-47.130	45.375	
155.00	-46.583	51.793	
156.00	-46.180	57.482	
157.00	-45.931	60.525	
158.00	-45.506	68.703	
159.00	-45.384	77.661	
160.00	-45.155	78.971	
161.00	-45.154	84.055	
162.00	-45.074	86.642	
163.00	-45.178	94.542	
164.00	-45.284	98.220	
165.00	-45.191	100.983	
166.00	-45.593	101.952	
167.00	-45.878	106.659	
168.00	-46.225	113.912	
169.00	-46.365	116.480	
170.00	-46.385	118.802	
171.00	-46.542	119.009	
172.00	-46.615	128.515	
173.00	-46.879	127.326	
174.00	-46.967	132.408	
175.00	-47.048	129.724	
176.00	-47.121	132.945	
177.00	-47.089	137.299	
178.00	-46.925	132.952	
179.00	-46.859	136.583	
180.00	-46.936	130.826	
181.00	-46.879	131.468	
182.00	-46.662	129.571	
183.00	-46.897	128.578	
184.00	-46.927	118.924	
185.00	-46.898	118.846	
186.00	-47.082	109.705	
187.00	-47.117	107.544	
188.00	-47.119	101.663	
189.00	-47.297	93.058	
190.00	-47.416	91.094	
191.00	-47.514	81.454	
192.00	-47.659	77.941	
193.00	-47.686	64.456	
194.00	-47.736	63.724	
195.00	-47.916	51.718	
196.00	-47.809	47.445	
197.00	-47.949	36.190	
198.00	-47.948	27.065	
199.00	-47.795	17.940	
200.00	-48.065	8.389	
201.00	-47.958	1.711	
202.00	-48.072	-9.868	
203.00	-48.350	-15.997	
204.00	-48.401	-26.141	
205.00	-48.720	-31.553	
206.00	-48.846	-45.353	
207.00	-49.268	-52.566	
208.00	-49.556	-66.489	
209.00	-50.119	-72.611	
210.00	-50.363	-85.270	
211.00	-51.006	-98.883	
212.00	-51.540	-109.168	
213.00	-52.206	-122.791	
214.00	-52.614	-135.369	
215.00	-53.258	-149.172	
216.00	-54.347	-164.871	
217.00	-55.065	176.554	
218.00	-56.173	167.354	
219.00	-56.704	149.739	
220.00	-57.272	129.222	
221.00	-58.412	107.889	
222.00	-58.241	90.245	
223.00	-59.815	68.680	
224.00	-59.976	48.689	
225.00	-61.070	24.979	
226.00	-61.723	-6.263	
227.00	-61.387	-39.610	
228.00	-59.837	-60.596	
229.00	-58.213	-90.901	
230.00	-56.608	-105.961	
231.00	-55.195	-127.235	
232.00	-54.092	-140.078	
233.00	-53.272	-154.315	
234.00	-52.755	-168.700	
235.00	-52.232	179.243	
236.00	-51.924	164.622	
237.00	-51.561	153.542	
238.00	-51.494	138.989	
239.00	-51.541	124.843	
240.00	-51.793	110.741	
241.00	-51.532	93.181	
242.00	-51.612	80.096	
243.00	-51.641	63.612	
244.00	-51.879	48.759	
245.00	-52.015	33.908	
246.00	-52.333	17.595	
247.00	-52.708	2.854	
248.00	-53.165	-10.411	
249.00	-53.545	-28.972	
250.00	-54.397	-45.535	
251.00	-55.089	-63.064	
252.00	-56.207	-79.108	
253.00	-56.926	-100.413	
254.00	-57.636	-123.440	
255.00	-57.487	-150.346	
256.00	-57.593	-163.976	
257.00	-56.856	169.032	
258.00	-57.030	154.939	
259.00	-57.375	142.576	
260.00	-57.320	121.668	
261.00	-57.747	109.230	
262.00	-59.040	95.095	
263.00	-59.715	81.989	
264.00	-60.592	67.729	
265.00	-61.153	46.878	
266.00	-63.244	26.984	
267.00	-66.593	2.266	
268.00	-64.465	-17.037	
269.00	-64.964	-38.858	
270.00	-64.751	-64.225	
271.00	-63.799	-82.495	
272.00	-63.097	-97.652	
273.00	-63.562	-113.497	
274.00	-63.037	-130.700	
275.00	-62.310	-137.222	
276.00	-64.623	-149.294	
277.00	-63.568	-158.158	
278.00	-64.440	-163.560	
279.00	-65.295	164.921	
280.00	-65.016	150.723	
281.00	-66.524	150.454	
282.00	-66.578	128.031	
283.00	-72.545	119.867	
284.00	-72.296	99.796	
285.00	-77.275	108.021	
286.00	-86.153	-12.779	
287.00	-74.489	-101.743	
288.00	-73.897	-119.626	
289.00	-73.324	-136.960	
290.00	-68.614	-148.829	
291.00	-67.169	-157.944	
292.00	-70.091	-170.534	
293.00	-66.926	163.093	
294.00	-66.324	149.010	
295.00	-65.316	151.749	
296.00	-64.714	134.990	
297.00	-63.248	123.495	
298.00	-65.817	113.712	
299.00	-68.540	112.782	
300.00	-69.489	108.577	
301.00	-68.049	89.530	
302.00	-70.678	64.759	
303.00	-69.751	63.502	
304.00	-69.994	38.847	
305.00	-65.991	16.470	
306.00	-67.389	9.316	
307.00	-68.131	11.020	
308.00	-66.454	-1.752	
309.00	-65.028	-0.661	
310.00	-63.313	-6.077	
311.00	-62.850	-10.499	
312.00	-62.285	-23.030	
313.00	-62.300	-22.693	
314.00	-61.611	-24.877	
315.00	-61.896	-26.297	
316.00	-61.744	-38.260	
317.00	-61.537	-43.364	
318.00	-62.543	-47.119	
319.00	-61.163	-54.872	
320.00	-63.598	-70.607	
321.00	-62.300	-71.072	
322.00	-61.983	-95.583	
323.00	-61.078	-100.443	
324.00	-60.197	-112.113	
325.00	-60.737	-109.485	
326.00	-59.951	-124.653	
327.00	-59.804	-134.089	
328.00	-61.359	-143.868	
329.00	-61.193	-145.954	
330.00	-61.557	-151.783	
331.00	-62.849	-151.425	
332.00	-61.727	-163.808	
333.00	-63.212	-169.571	
334.00	-67.364	-173.805	
335.00	-66.526	-175.467	
336.00	-70.459	-173.382	
337.00	-71.839	165.067	
338.00	-71.443	170.485	
339.00	-70.247	131.506	
340.00	-72.382	122.638	
341.00	-70.505	91.010	
342.00	-70.136	78.276	
343.00	-69.811	84.003	
344.00	-69.641	81.157	
345.00	-69.171	69.295	
346.00	-69.218	108.202	
347.00	-66.423	106.861	
348.00	-65.898	107.011	
349.00	-64.913	115.732	
350.00	-64.078	142.340	
351.00	-61.816	137.997	
352.00	-61.628	140.174	
353.00	-60.352	137.088	
354.00	-60.371	140.386	
355.00	-60.684	142.441	
356.00	-60.988	150.489	
357.00	-61.634	149.299	
358.00	-62.159	150.526	
359.00	-61.885	146.645	
Frequency	2300.00	MHz	
Channel	test		
Scan Axis name	Azimuth  [deg]		
Scan Axis	Amplitude	Phase	
			
0.00	-62.381	55.916	
1.00	-64.239	62.671	
2.00	-65.247	75.377	
3.00	-63.588	85.054	
4.00	-63.357	92.006	
5.00	-62.580	99.605	
6.00	-61.207	113.870	
7.00	-61.023	107.583	
8.00	-60.713	111.089	
9.00	-62.108	122.439	
10.00	-61.717	120.249	
11.00	-61.943	134.189	
12.00	-62.158	132.550	
13.00	-62.118	141.428	
14.00	-63.636	151.917	
15.00	-64.564	164.925	
16.00	-62.700	-176.484	
17.00	-63.734	-163.736	
18.00	-63.436	-133.976	
19.00	-60.734	-131.569	
20.00	-60.634	-114.590	
21.00	-59.767	-109.754	
22.00	-60.713	-96.737	
23.00	-58.294	-94.019	
24.00	-59.691	-71.205	
25.00	-60.550	-78.031	
26.00	-59.158	-45.616	
27.00	-62.149	-53.980	
28.00	-64.737	-39.630	
29.00	-64.154	-27.059	
30.00	-63.925	17.354	
31.00	-62.616	36.048	
32.00	-65.236	57.435	
33.00	-63.929	78.126	
34.00	-64.698	74.272	
35.00	-62.646	74.067	
36.00	-67.647	98.752	
37.00	-63.137	106.738	
38.00	-72.350	172.212	
39.00	-63.208	166.425	
40.00	-64.062	-142.678	
41.00	-66.549	-148.934	
42.00	-61.210	-100.976	
43.00	-68.637	-108.219	
44.00	-60.879	-83.060	
45.00	-61.055	-47.332	
46.00	-58.564	-43.966	
47.00	-57.656	-11.449	
48.00	-65.345	0.597	
49.00	-65.366	20.843	
50.00	-60.695	67.686	
51.00	-58.912	69.578	
52.00	-56.089	75.495	
53.00	-55.902	83.912	
54.00	-58.365	120.149	
55.00	-58.128	149.984	
56.00	-57.249	155.558	
57.00	-55.772	138.022	
58.00	-56.601	174.032	
59.00	-68.279	-132.486	
60.00	-60.320	-148.911	
61.00	-65.743	-73.841	
62.00	-59.698	-53.785	
63.00	-62.261	-16.072	
64.00	-60.909	-4.160	
65.00	-61.689	-8.762	
66.00	-58.419	4.157	
67.00	-59.555	11.160	
68.00	-58.886	8.992	
69.00	-58.272	43.638	
70.00	-57.353	66.346	
71.00	-60.558	62.326	
72.00	-59.711	89.442	
73.00	-65.897	155.314	
74.00	-58.027	159.585	
75.00	-62.272	-170.616	
76.00	-63.983	-148.712	
77.00	-57.186	-165.979	
78.00	-62.733	-128.912	
79.00	-58.671	-107.740	
80.00	-57.932	-77.926	
81.00	-55.652	-84.523	
82.00	-62.805	-89.434	
83.00	-60.389	-32.436	
84.00	-59.137	1.896	
85.00	-55.967	14.050	
86.00	-60.248	12.823	
87.00	-58.223	69.024	
88.00	-56.082	54.415	
89.00	-64.155	59.878	
90.00	-58.028	96.686	
91.00	-57.742	117.063	
92.00	-63.268	136.953	
93.00	-59.478	166.613	
94.00	-56.792	168.873	
95.00	-55.924	-168.587	
96.00	-55.100	-163.962	
97.00	-56.631	-129.073	
98.00	-60.626	-124.909	
99.00	-59.348	-89.148	
100.00	-57.695	-48.471	
101.00	-54.753	-62.395	
102.00	-56.204	-44.145	
103.00	-52.696	-32.564	
104.00	-54.820	5.135	
105.00	-53.472	8.240	
106.00	-55.613	37.015	
107.00	-54.510	45.891	
108.00	-52.489	64.033	
109.00	-54.171	85.618	
110.00	-52.697	106.125	
111.00	-54.762	122.055	
112.00	-53.289	148.309	
113.00	-52.779	156.533	
114.00	-52.722	174.015	
115.00	-54.654	-174.570	
116.00	-52.620	-157.721	
117.00	-52.672	-145.195	
118.00	-55.298	-125.299	
119.00	-53.804	-119.647	
120.00	-54.965	-86.819	
121.00	-52.867	-70.483	
122.00	-51.619	-60.186	
123.00	-52.762	-37.984	
124.00	-53.227	-31.313	
125.00	-51.878	-19.084	
126.00	-51.435	-15.977	
127.00	-51.965	-1.593	
128.00	-52.621	19.871	
129.00	-52.256	28.875	
130.00	-53.035	41.413	
131.00	-53.648	53.480	
132.00	-53.244	68.392	
133.00	-52.588	81.337	
134.00	-52.578	105.881	
135.00	-52.015	115.184	
136.00	-52.121	128.658	
137.00	-52.290	141.581	
138.00	-51.369	148.312	
139.00	-50.865	161.820	
140.00	-50.649	169.543	
141.00	-50.359	177.978	
142.00	-50.303	-174.211	
143.00	-50.268	-171.775	
144.00	-50.562	-157.833	
145.00	-51.035	-154.950	
146.00	-51.029	-140.977	
147.00	-51.211	-132.548	
148.00	-51.378	-119.096	
149.00	-51.490	-111.474	
150.00	-51.969	-92.792	
151.00	-51.198	-82.686	
152.00	-51.339	-71.729	
153.00	-51.033	-64.477	
154.00	-50.852	-51.783	
155.00	-50.074	-41.376	
156.00	-49.194	-33.972	
157.00	-49.033	-29.427	
158.00	-48.862	-17.390	
159.00	-48.587	-5.526	
160.00	-47.893	-2.906	
161.00	-47.878	5.888	
162.00	-47.527	9.658	
163.00	-47.510	19.241	
164.00	-47.141	25.717	
165.00	-47.302	29.699	
166.00	-46.965	31.677	
167.00	-46.877	36.798	
168.00	-46.654	43.624	
169.00	-46.483	44.562	
170.00	-46.441	47.034	
171.00	-46.410	44.103	
172.00	-46.223	53.929	
173.00	-46.161	50.078	
174.00	-46.237	52.912	
175.00	-46.190	49.888	
176.00	-46.188	50.721	
177.00	-46.192	54.927	
178.00	-46.003	47.590	
179.00	-45.962	51.535	
180.00	-45.906	43.457	
181.00	-45.938	44.474	
182.00	-45.909	42.926	
183.00	-45.749	41.393	
184.00	-45.709	32.108	
185.00	-45.609	32.645	
186.00	-45.544	24.416	
187.00	-45.424	22.825	
188.00	-45.308	16.539	
189.00	-45.221	6.864	
190.00	-44.980	7.178	
191.00	-44.930	-3.033	
192.00	-44.855	-5.935	
193.00	-44.786	-18.643	
194.00	-44.748	-19.217	
195.00	-44.638	-29.770	
196.00	-44.520	-34.213	
197.00	-44.431	-45.500	
198.00	-44.520	-53.644	
199.00	-44.375	-61.558	
200.00	-44.500	-71.933	
201.00	-44.575	-78.694	
202.00	-44.599	-91.113	
203.00	-44.526	-99.558	
204.00	-44.777	-107.333	
205.00	-44.883	-115.645	
206.00	-44.947	-129.287	
207.00	-45.008	-137.420	
208.00	-45.186	-149.782	
209.00	-45.396	-158.313	
210.00	-45.696	-171.771	
211.00	-45.753	174.875	
212.00	-45.850	163.700	
213.00	-46.167	151.001	
214.00	-46.350	139.479	
215.00	-46.727	126.545	
216.00	-46.967	111.762	
217.00	-47.381	99.592	
218.00	-47.750	91.741	
219.00	-48.273	75.473	
220.00	-48.663	61.099	
221.00	-48.968	46.004	
222.00	-49.818	38.558	
223.00	-50.428	20.434	
224.00	-51.284	0.866	
225.00	-52.010	-11.228	
226.00	-52.580	-29.849	
227.00	-53.118	-48.819	
228.00	-54.357	-64.485	
229.00	-55.773	-88.110	
230.00	-56.042	-105.205	
231.00	-55.891	-132.861	
232.00	-55.988	-152.709	
233.00	-56.068	-169.190	
234.00	-55.652	169.563	
235.00	-55.347	156.911	
236.00	-55.620	133.797	
237.00	-55.332	122.684	
238.00	-55.823	107.433	
239.00	-55.870	92.425	
240.00	-56.408	77.932	
241.00	-57.110	62.139	
242.00	-58.052	47.210	
243.00	-59.711	31.609	
244.00	-60.792	9.024	
245.00	-61.615	-9.295	
246.00	-62.795	-39.640	
247.00	-62.934	-61.572	
248.00	-63.957	-82.511	
249.00	-62.718	-105.714	
250.00	-63.060	-127.423	
251.00	-64.294	-145.462	
252.00	-63.472	-155.294	
253.00	-64.081	179.525	
254.00	-65.519	166.008	
255.00	-64.584	135.919	
256.00	-65.563	114.306	
257.00	-65.447	85.587	
258.00	-64.528	70.948	
259.00	-62.692	44.536	
260.00	-62.829	33.129	
261.00	-62.633	26.226	
262.00	-61.965	13.361	
263.00	-61.738	10.938	
264.00	-62.434	2.211	
265.00	-62.242	-10.254	
266.00	-63.900	-12.705	
267.00	-62.810	-27.407	
268.00	-64.210	-35.678	
269.00	-65.144	-40.264	
270.00	-65.502	-51.536	
271.00	-66.264	-52.083	
272.00	-66.711	-58.407	
273.00	-67.050	-58.458	
274.00	-69.549	-56.133	
275.00	-72.347	-49.770	
276.00	-75.425	-69.165	
277.00	-83.608	-77.201	
278.00	-81.378	154.934	
279.00	-71.177	130.262	
280.00	-69.317	127.606	
281.00	-65.639	122.341	
282.00	-62.861	112.091	
283.00	-61.164	108.726	
284.00	-59.620	99.401	
285.00	-58.253	93.809	
286.00	-57.660	87.458	
287.00	-57.385	72.222	
288.00	-57.962	63.021	
289.00	-58.691	42.918	
290.00	-60.687	29.712	
291.00	-61.390	8.414	
292.00	-61.811	-20.551	
293.00	-61.206	-50.123	
294.00	-59.987	-69.330	
295.00	-59.919	-87.509	
296.00	-58.576	-102.390	
297.00	-57.685	-118.594	
298.00	-57.384	-131.870	
299.00	-57.678	-145.617	
300.00	-57.873	-161.027	
301.00	-57.819	-174.444	
302.00	-59.139	164.428	
303.00	-59.339	149.056	
304.00	-60.433	133.393	
305.00	-61.520	115.064	
306.00	-61.064	92.440	
307.00	-61.682	65.408	
308.00	-61.102	48.415	
309.00	-60.395	27.021	
310.00	-59.808	17.672	
311.00	-59.809	1.818	
312.00	-59.462	-12.650	
313.00	-59.875	-27.649	
314.00	-60.442	-41.741	
315.00	-61.887	-55.877	
316.00	-61.975	-74.262	
317.00	-62.827	-94.991	
318.00	-63.164	-112.356	
319.00	-62.712	-137.202	
320.00	-65.316	-155.716	
321.00	-64.793	-170.967	
322.00	-65.209	170.365	
323.00	-65.541	153.084	
324.00	-65.641	142.395	
325.00	-66.235	117.022	
326.00	-66.268	91.722	
327.00	-64.786	75.449	
328.00	-67.702	54.085	
329.00	-67.519	34.481	
330.00	-68.905	18.078	
331.00	-67.003	-1.801	
332.00	-66.520	-30.637	
333.00	-64.888	-41.496	
334.00	-64.209	-63.835	
335.00	-63.053	-69.061	
336.00	-62.358	-73.383	
337.00	-61.235	-82.883	
338.00	-61.073	-87.105	
339.00	-60.425	-92.956	
340.00	-61.276	-106.558	
341.00	-61.588	-108.185	
342.00	-61.364	-105.268	
343.00	-62.723	-115.932	
344.00	-64.093	-120.998	
345.00	-66.360	-116.570	
346.00	-67.906	-112.392	
347.00	-70.244	-137.772	
348.00	-76.885	-93.838	
349.00	-85.514	-91.402	
350.00	-78.861	-19.231	
351.00	-70.953	48.513	
352.00	-70.953	26.531	
353.00	-68.348	31.503	
354.00	-66.808	24.699	
355.00	-66.436	30.550	
356.00	-65.128	19.482	
357.00	-65.161	25.543	
358.00	-65.545	24.795	
359.00	-66.343	31.757	
Frequency	2350.00	MHz	
Channel	test		
Scan Axis name	Azimuth  [deg]		
Scan Axis	Amplitude	Phase	
			
0.00	-55.892	78.678	
1.00	-56.163	79.843	
2.00	-56.436	82.534	
3.00	-56.254	86.715	
4.00	-57.473	84.872	
5.00	-58.563	92.693	
6.00	-59.032	107.622	
7.00	-59.037	112.548	
8.00	-60.699	131.742	
9.00	-59.637	146.699	
10.00	-59.818	154.112	
11.00	-58.746	164.018	
12.00	-59.218	170.034	
13.00	-58.488	-178.823	
14.00	-60.088	-168.476	
15.00	-60.391	-165.492	
16.00	-61.072	-146.661	
17.00	-60.279	-134.576	
18.00	-60.342	-114.251	
19.00	-59.429	-92.162	
20.00	-58.585	-86.620	
21.00	-58.381	-72.018	
22.00	-58.104	-58.509	
23.00	-57.196	-56.597	
24.00	-57.366	-47.251	
25.00	-55.917	-30.051	
26.00	-56.077	-21.036	
27.00	-57.117	-16.840	
28.00	-57.697	6.759	
29.00	-58.349	17.656	
30.00	-59.065	29.126	
31.00	-60.063	37.619	
32.00	-61.651	66.099	
33.00	-58.150	86.849	
34.00	-63.102	91.860	
35.00	-64.948	114.351	
36.00	-60.273	164.755	
37.00	-64.508	158.693	
38.00	-61.334	-147.251	
39.00	-60.813	-140.671	
40.00	-59.259	-131.972	
41.00	-55.587	-109.845	
42.00	-57.956	-102.509	
43.00	-55.061	-84.394	
44.00	-56.832	-67.998	
45.00	-57.199	-77.112	
46.00	-58.087	-49.183	
47.00	-59.780	-69.459	
48.00	-63.796	3.550	
49.00	-64.069	29.577	
50.00	-65.509	70.757	
51.00	-59.784	117.898	
52.00	-61.765	135.021	
53.00	-59.152	175.392	
54.00	-66.172	162.492	
55.00	-56.169	164.484	
56.00	-56.557	161.337	
57.00	-57.284	-167.629	
58.00	-58.026	-157.167	
59.00	-60.615	-155.383	
60.00	-61.256	-115.218	
61.00	-56.806	-84.145	
62.00	-64.156	-50.712	
63.00	-58.503	-92.473	
64.00	-59.277	-10.843	
65.00	-66.016	35.270	
66.00	-59.397	2.693	
67.00	-65.453	48.848	
68.00	-67.126	90.144	
69.00	-61.247	120.857	
70.00	-70.708	17.221	
71.00	-62.512	179.594	
72.00	-70.394	115.974	
73.00	-66.496	-166.682	
74.00	-60.560	-136.541	
75.00	-59.273	-118.293	
76.00	-59.219	-108.865	
77.00	-60.156	-100.087	
78.00	-69.716	-69.746	
79.00	-60.719	-58.105	
80.00	-60.136	-32.177	
81.00	-56.457	19.580	
82.00	-62.835	-15.402	
83.00	-57.842	20.723	
84.00	-62.609	46.092	
85.00	-62.663	87.832	
86.00	-65.586	4.725	
87.00	-62.536	85.716	
88.00	-65.679	97.988	
89.00	-65.782	162.943	
90.00	-62.454	134.443	
91.00	-57.498	178.013	
92.00	-62.584	-151.977	
93.00	-61.962	159.800	
94.00	-71.656	170.777	
95.00	-67.667	-93.052	
96.00	-61.386	-61.977	
97.00	-72.635	-78.715	
98.00	-71.079	-4.140	
99.00	-64.576	-31.172	
100.00	-58.590	-29.982	
101.00	-60.158	-16.914	
102.00	-59.160	1.014	
103.00	-56.603	11.497	
104.00	-63.558	41.003	
105.00	-63.945	85.817	
106.00	-64.602	76.567	
107.00	-75.214	35.469	
108.00	-65.929	122.308	
109.00	-65.966	161.138	
110.00	-66.045	-151.542	
111.00	-67.279	-140.502	
112.00	-57.884	-123.338	
113.00	-60.659	-111.318	
114.00	-65.511	-95.170	
115.00	-60.914	-68.408	
116.00	-54.971	-45.885	
117.00	-58.996	-52.803	
118.00	-56.399	-22.449	
119.00	-57.348	-24.412	
120.00	-54.833	-2.205	
121.00	-56.190	11.395	
122.00	-58.440	30.977	
123.00	-56.403	25.439	
124.00	-56.805	32.160	
125.00	-58.502	51.184	
126.00	-57.994	68.609	
127.00	-64.134	76.420	
128.00	-61.448	117.009	
129.00	-61.477	138.635	
130.00	-60.581	155.568	
131.00	-61.607	171.151	
132.00	-58.273	-173.717	
133.00	-58.401	-153.408	
134.00	-57.777	-154.813	
135.00	-57.831	-127.939	
136.00	-59.004	-119.494	
137.00	-60.355	-95.134	
138.00	-57.747	-88.862	
139.00	-57.913	-85.090	
140.00	-58.741	-60.312	
141.00	-57.239	-47.081	
142.00	-57.572	-32.014	
143.00	-57.584	-34.595	
144.00	-55.548	-23.985	
145.00	-56.257	-14.570	
146.00	-55.149	0.012	
147.00	-54.851	3.298	
148.00	-54.412	11.986	
149.00	-54.155	16.792	
150.00	-54.057	28.573	
151.00	-53.899	35.669	
152.00	-52.975	44.540	
153.00	-52.565	49.799	
154.00	-52.249	60.954	
155.00	-51.656	67.586	
156.00	-51.244	75.040	
157.00	-50.413	81.360	
158.00	-49.848	91.138	
159.00	-48.683	104.823	
160.00	-48.021	106.071	
161.00	-47.381	113.172	
162.00	-46.466	116.240	
163.00	-45.885	124.084	
164.00	-45.317	128.912	
165.00	-44.806	130.733	
166.00	-44.298	130.847	
167.00	-43.916	132.886	
168.00	-43.445	138.670	
169.00	-43.190	138.838	
170.00	-42.948	139.559	
171.00	-42.757	136.348	
172.00	-42.567	144.561	
173.00	-42.337	140.373	
174.00	-42.259	143.896	
175.00	-42.139	140.490	
176.00	-41.988	139.269	
177.00	-41.927	144.011	
178.00	-41.741	136.865	
179.00	-41.697	139.576	
180.00	-41.625	132.903	
181.00	-41.486	132.466	
182.00	-41.471	130.508	
183.00	-41.354	128.976	
184.00	-41.310	118.792	
185.00	-41.222	118.285	
186.00	-41.141	110.516	
187.00	-41.034	107.785	
188.00	-40.957	102.367	
189.00	-40.974	92.715	
190.00	-40.944	91.940	
191.00	-40.945	82.642	
192.00	-40.864	79.950	
193.00	-40.882	66.779	
194.00	-40.860	65.440	
195.00	-40.823	55.183	
196.00	-40.858	50.609	
197.00	-40.907	39.267	
198.00	-40.927	30.560	
199.00	-41.054	21.431	
200.00	-41.146	11.267	
201.00	-41.162	4.706	
202.00	-41.400	-8.288	
203.00	-41.572	-16.428	
204.00	-41.597	-26.176	
205.00	-41.750	-34.474	
206.00	-42.015	-47.920	
207.00	-42.225	-56.833	
208.00	-42.392	-70.691	
209.00	-42.644	-80.086	
210.00	-42.888	-92.652	
211.00	-43.047	-106.910	
212.00	-43.342	-119.764	
213.00	-43.573	-133.397	
214.00	-43.879	-145.635	
215.00	-44.199	-160.039	
216.00	-44.536	-174.377	
217.00	-44.872	170.866	
218.00	-45.018	160.801	
219.00	-45.452	145.610	
220.00	-45.821	130.940	
221.00	-46.103	114.469	
222.00	-46.542	103.293	
223.00	-47.021	89.142	
224.00	-47.598	73.462	
225.00	-48.289	59.559	
226.00	-48.907	41.027	
227.00	-49.753	21.688	
228.00	-50.429	8.836	
229.00	-51.470	-11.450	
230.00	-52.119	-27.465	
231.00	-53.083	-51.327	
232.00	-53.670	-67.119	
233.00	-54.415	-86.393	
234.00	-55.314	-106.478	
235.00	-55.610	-126.394	
236.00	-56.206	-155.899	
237.00	-56.487	-171.896	
238.00	-56.584	166.647	
239.00	-57.059	144.433	
240.00	-56.972	123.798	
241.00	-57.308	104.959	
242.00	-57.349	90.312	
243.00	-58.079	68.603	
244.00	-58.445	49.224	
245.00	-59.113	30.935	
246.00	-59.718	6.647	
247.00	-60.658	-10.301	
248.00	-60.476	-35.047	
249.00	-60.928	-56.423	
250.00	-61.942	-76.421	
251.00	-61.808	-97.125	
252.00	-62.022	-114.535	
253.00	-62.922	-138.333	
254.00	-63.839	-154.533	
255.00	-64.478	-173.069	
256.00	-65.888	165.522	
257.00	-69.990	141.757	
258.00	-71.732	106.856	
259.00	-73.624	40.257	
260.00	-72.185	1.868	
261.00	-68.968	-28.578	
262.00	-67.748	-34.341	
263.00	-66.654	-50.714	
264.00	-67.544	-83.855	
265.00	-66.552	-93.040	
266.00	-69.222	-118.921	
267.00	-65.489	-147.608	
268.00	-64.662	-166.402	
269.00	-64.273	168.977	
270.00	-63.123	148.681	
271.00	-61.924	131.383	
272.00	-61.064	117.741	
273.00	-60.433	100.267	
274.00	-60.401	81.919	
275.00	-60.170	68.653	
276.00	-60.381	48.881	
277.00	-60.484	35.178	
278.00	-60.808	17.387	
279.00	-60.834	-11.751	
280.00	-60.956	-23.676	
281.00	-60.770	-48.044	
282.00	-60.876	-61.720	
283.00	-61.300	-82.434	
284.00	-61.362	-110.744	
285.00	-61.041	-130.107	
286.00	-61.013	-156.488	
287.00	-61.263	169.807	
288.00	-60.794	145.247	
289.00	-60.236	114.704	
290.00	-59.086	90.163	
291.00	-58.515	76.736	
292.00	-58.017	57.148	
293.00	-57.550	41.984	
294.00	-57.533	27.116	
295.00	-57.433	16.359	
296.00	-57.681	-0.795	
297.00	-58.222	-17.252	
298.00	-59.151	-34.800	
299.00	-59.820	-47.716	
300.00	-61.900	-80.056	
301.00	-62.493	-91.679	
302.00	-61.859	-127.868	
303.00	-61.865	-145.438	
304.00	-61.698	-172.287	
305.00	-60.868	175.849	
306.00	-60.752	157.180	
307.00	-60.293	140.109	
308.00	-60.651	125.804	
309.00	-61.208	113.787	
310.00	-62.134	97.734	
311.00	-63.103	83.155	
312.00	-64.800	63.984	
313.00	-65.958	53.007	
314.00	-66.767	38.141	
315.00	-71.051	8.708	
316.00	-69.891	-35.464	
317.00	-67.550	-71.959	
318.00	-65.469	-94.311	
319.00	-63.990	-109.709	
320.00	-62.326	-121.761	
321.00	-61.441	-129.475	
322.00	-61.766	-130.039	
323.00	-61.702	-135.615	
324.00	-60.823	-144.583	
325.00	-61.239	-147.458	
326.00	-61.642	-143.355	
327.00	-62.024	-145.076	
328.00	-61.692	-138.241	
329.00	-61.353	-133.540	
330.00	-62.200	-130.639	
331.00	-62.231	-126.984	
332.00	-61.755	-119.628	
333.00	-61.709	-114.058	
334.00	-62.751	-112.426	
335.00	-61.796	-105.326	
336.00	-60.796	-108.061	
337.00	-60.875	-108.519	
338.00	-60.234	-109.469	
339.00	-60.459	-107.389	
340.00	-60.161	-110.002	
341.00	-59.574	-111.327	
342.00	-59.305	-108.224	
343.00	-59.643	-110.448	
344.00	-59.332	-116.470	
345.00	-59.396	-116.249	
346.00	-60.769	-114.828	
347.00	-61.242	-120.552	
348.00	-63.382	-123.089	
349.00	-63.648	-126.072	
350.00	-66.876	-131.723	
351.00	-72.314	-160.471	
352.00	-72.697	160.101	
353.00	-71.495	127.429	
354.00	-67.083	96.952	
355.00	-63.644	87.817	
356.00	-61.509	81.123	
357.00	-60.285	76.932	
358.00	-59.185	74.483	
359.00	-58.012	73.643	
Frequency	2400.00	MHz	
Channel	test		
Scan Axis name	Azimuth  [deg]		
Scan Axis	Amplitude	Phase	
			
0.00	-63.199	83.530	
1.00	-62.898	91.712	
2.00	-62.783	105.552	
3.00	-64.002	117.615	
4.00	-63.200	130.667	
5.00	-62.595	136.110	
6.00	-61.890	155.533	
7.00	-61.388	165.349	
8.00	-60.830	172.512	
9.00	-59.863	-174.613	
10.00	-59.692	-166.129	
11.00	-59.048	-158.544	
12.00	-59.001	-152.747	
13.00	-59.675	-147.700	
14.00	-59.441	-143.498	
15.00	-60.343	-137.211	
16.00	-61.660	-134.506	
17.00	-63.081	-122.739	
18.00	-63.509	-117.569	
19.00	-69.335	-86.517	
20.00	-70.153	-55.564	
21.00	-68.304	23.930	
22.00	-64.214	33.518	
23.00	-61.372	46.813	
24.00	-58.073	50.183	
25.00	-56.734	62.810	
26.00	-55.852	65.556	
27.00	-54.928	64.476	
28.00	-55.134	74.777	
29.00	-54.784	76.323	
30.00	-56.014	86.497	
31.00	-55.561	86.729	
32.00	-57.807	101.246	
33.00	-60.615	96.679	
34.00	-64.048	129.890	
35.00	-66.341	154.029	
36.00	-63.881	-170.171	
37.00	-63.777	-119.332	
38.00	-60.014	-94.657	
39.00	-58.407	-90.651	
40.00	-60.641	-98.930	
41.00	-58.915	-61.792	
42.00	-60.098	-42.308	
43.00	-61.252	-22.305	
44.00	-60.651	-19.208	
45.00	-62.612	28.195	
46.00	-58.335	45.094	
47.00	-57.007	65.611	
48.00	-60.107	78.757	
49.00	-56.974	107.284	
50.00	-56.655	103.566	
51.00	-57.123	133.202	
52.00	-57.620	157.221	
53.00	-57.336	161.347	
54.00	-59.981	175.743	
55.00	-61.269	-142.252	
56.00	-60.009	-129.621	
57.00	-57.183	-103.869	
58.00	-57.739	-94.517	
59.00	-57.602	-81.794	
60.00	-59.388	-71.100	
61.00	-56.564	-33.396	
62.00	-58.254	-53.407	
63.00	-57.370	-35.794	
64.00	-61.211	-7.560	
65.00	-67.853	-3.811	
66.00	-62.801	13.446	
67.00	-66.170	-9.755	
68.00	-72.445	-147.940	
69.00	-61.819	149.979	
70.00	-78.828	157.201	
71.00	-60.026	-153.092	
72.00	-59.235	-159.572	
73.00	-64.976	-153.063	
74.00	-66.332	-167.077	
75.00	-57.637	-139.772	
76.00	-62.866	-95.638	
77.00	-60.126	-110.883	
78.00	-65.329	148.212	
79.00	-75.511	161.201	
80.00	-66.240	109.268	
81.00	-71.377	-77.839	
82.00	-72.705	-63.531	
83.00	-72.408	87.035	
84.00	-68.547	-15.514	
85.00	-62.418	-11.601	
86.00	-63.914	-74.241	
87.00	-72.575	55.597	
88.00	-61.575	-20.490	
89.00	-68.212	58.146	
90.00	-70.737	-16.090	
91.00	-62.441	17.818	
92.00	-61.344	41.646	
93.00	-75.332	-75.742	
94.00	-65.226	53.982	
95.00	-74.474	59.633	
96.00	-63.219	95.788	
97.00	-69.437	110.843	
98.00	-70.814	133.975	
99.00	-62.371	129.469	
100.00	-69.884	13.347	
101.00	-86.414	-2.229	
102.00	-73.162	-80.397	
103.00	-70.676	27.010	
104.00	-60.741	-11.134	
105.00	-60.262	-10.426	
106.00	-67.519	33.145	
107.00	-66.158	31.550	
108.00	-60.513	26.457	
109.00	-56.982	41.335	
110.00	-59.696	35.144	
111.00	-63.517	51.939	
112.00	-59.676	48.860	
113.00	-59.287	69.833	
114.00	-62.591	67.547	
115.00	-61.361	77.695	
116.00	-67.846	98.706	
117.00	-62.737	92.556	
118.00	-59.264	136.156	
119.00	-61.954	123.754	
120.00	-61.049	156.338	
121.00	-62.718	166.746	
122.00	-62.617	-149.655	
123.00	-60.397	-159.726	
124.00	-61.884	-153.488	
125.00	-59.885	-138.508	
126.00	-58.946	-129.555	
127.00	-61.487	-98.907	
128.00	-59.956	-82.945	
129.00	-60.466	-62.468	
130.00	-61.776	-63.971	
131.00	-63.065	-36.322	
132.00	-61.806	-13.901	
133.00	-62.586	1.753	
134.00	-64.282	6.424	
135.00	-59.962	34.238	
136.00	-60.296	57.635	
137.00	-57.652	78.385	
138.00	-56.946	76.151	
139.00	-56.269	95.932	
140.00	-55.383	105.536	
141.00	-55.217	119.192	
142.00	-54.463	124.208	
143.00	-54.825	125.918	
144.00	-54.371	138.435	
145.00	-54.532	146.440	
146.00	-54.537	159.583	
147.00	-53.798	167.017	
148.00	-54.056	175.309	
149.00	-53.761	-177.968	
150.00	-53.363	-164.035	
151.00	-53.430	-161.371	
152.00	-53.318	-156.053	
153.00	-53.011	-148.640	
154.00	-52.380	-139.454	
155.00	-52.136	-135.576	
156.00	-51.423	-129.819	
157.00	-50.841	-129.535	
158.00	-50.180	-123.509	
159.00	-49.523	-114.864	
160.00	-49.129	-115.938	
161.00	-48.628	-114.045	
162.00	-48.238	-112.967	
163.00	-47.594	-107.943	
164.00	-47.222	-104.288	
165.00	-46.828	-104.829	
166.00	-46.501	-105.480	
167.00	-46.102	-105.311	
168.00	-45.825	-101.309	
169.00	-45.637	-101.955	
170.00	-45.286	-101.711	
171.00	-45.082	-106.378	
172.00	-44.898	-98.972	
173.00	-44.649	-104.078	
174.00	-44.495	-101.397	
175.00	-44.284	-105.465	
176.00	-44.160	-107.023	
177.00	-44.109	-103.047	
178.00	-43.895	-111.140	
179.00	-43.892	-108.359	
180.00	-43.806	-116.720	
181.00	-43.655	-117.358	
182.00	-43.816	-119.160	
183.00	-43.689	-121.275	
184.00	-43.649	-132.158	
185.00	-43.784	-133.457	
186.00	-43.713	-141.254	
187.00	-43.830	-144.921	
188.00	-43.982	-150.709	
189.00	-43.919	-160.846	
190.00	-43.911	-162.229	
191.00	-44.033	-173.391	
192.00	-44.035	-176.184	
193.00	-44.175	170.035	
194.00	-44.233	168.216	
195.00	-44.366	156.361	
196.00	-44.370	151.282	
197.00	-44.479	140.182	
198.00	-44.674	129.929	
199.00	-44.925	121.376	
200.00	-45.035	109.283	
201.00	-45.270	102.318	
202.00	-45.651	88.335	
203.00	-45.917	78.828	
204.00	-46.175	68.039	
205.00	-46.692	59.367	
206.00	-46.786	43.519	
207.00	-47.057	32.455	
208.00	-47.316	16.673	
209.00	-47.455	7.381	
210.00	-47.788	-6.032	
211.00	-47.839	-22.643	
212.00	-48.274	-34.792	
213.00	-48.199	-47.314	
214.00	-48.791	-59.484	
215.00	-49.287	-74.152	
216.00	-49.540	-87.947	
217.00	-50.210	-102.912	
218.00	-50.873	-111.849	
219.00	-51.689	-126.134	
220.00	-52.544	-141.888	
221.00	-53.678	-157.633	
222.00	-54.380	-167.653	
223.00	-55.731	174.565	
224.00	-57.282	155.550	
225.00	-59.132	136.963	
226.00	-60.862	115.745	
227.00	-61.648	85.412	
228.00	-63.613	66.758	
229.00	-65.695	34.665	
230.00	-67.840	1.280	
231.00	-66.292	-40.888	
232.00	-66.332	-79.999	
233.00	-65.170	-105.193	
234.00	-62.830	-126.065	
235.00	-61.956	-152.459	
236.00	-60.030	-167.193	
237.00	-59.346	176.752	
238.00	-58.823	157.287	
239.00	-57.910	138.311	
240.00	-57.641	122.814	
241.00	-57.524	103.970	
242.00	-57.504	92.594	
243.00	-56.901	67.543	
244.00	-56.884	57.438	
245.00	-57.282	34.204	
246.00	-57.212	19.165	
247.00	-57.759	2.085	
248.00	-58.242	-12.774	
249.00	-58.675	-33.551	
250.00	-58.709	-53.828	
251.00	-59.937	-70.417	
252.00	-60.444	-84.821	
253.00	-61.082	-106.391	
254.00	-61.957	-124.376	
255.00	-63.119	-144.758	
256.00	-64.914	-161.401	
257.00	-68.907	171.407	
258.00	-69.674	144.797	
259.00	-72.876	96.155	
260.00	-71.978	63.264	
261.00	-71.614	21.852	
262.00	-69.306	-2.838	
263.00	-68.084	-23.862	
264.00	-66.290	-46.617	
265.00	-65.928	-61.494	
266.00	-61.961	-83.140	
267.00	-62.511	-90.876	
268.00	-61.883	-103.961	
269.00	-61.975	-113.437	
270.00	-62.598	-127.705	
271.00	-62.380	-140.528	
272.00	-64.579	-150.926	
273.00	-65.480	-167.155	
274.00	-68.486	168.385	
275.00	-70.781	151.239	
276.00	-74.358	104.301	
277.00	-72.482	61.338	
278.00	-69.342	63.118	
279.00	-69.686	4.666	
280.00	-68.008	-9.118	
281.00	-67.021	-40.429	
282.00	-66.592	-48.233	
283.00	-63.631	-68.080	
284.00	-63.402	-88.166	
285.00	-62.039	-101.597	
286.00	-62.646	-118.616	
287.00	-61.696	-139.184	
288.00	-62.633	-155.367	
289.00	-63.337	-178.435	
290.00	-64.695	160.877	
291.00	-65.986	136.958	
292.00	-66.405	107.416	
293.00	-65.301	73.324	
294.00	-63.584	53.697	
295.00	-63.046	46.413	
296.00	-61.779	27.135	
297.00	-61.720	12.261	
298.00	-61.137	3.685	
299.00	-60.353	-8.054	
300.00	-61.050	-16.125	
301.00	-60.989	-27.426	
302.00	-62.519	-36.075	
303.00	-62.758	-50.177	
304.00	-64.327	-63.091	
305.00	-65.502	-68.261	
306.00	-67.161	-83.274	
307.00	-70.056	-94.069	
308.00	-72.909	-112.186	
309.00	-75.577	-157.883	
310.00	-74.202	169.967	
311.00	-71.105	165.553	
312.00	-70.142	143.214	
313.00	-73.387	127.074	
314.00	-73.553	137.096	
315.00	-71.216	124.117	
316.00	-71.639	119.268	
317.00	-72.620	98.319	
318.00	-77.228	102.626	
319.00	-74.143	97.644	
320.00	-75.487	96.949	
321.00	-75.700	71.269	
322.00	-75.129	33.129	
323.00	-75.310	17.804	
324.00	-72.114	-10.287	
325.00	-70.452	-24.962	
326.00	-68.614	-39.076	
327.00	-66.929	-49.764	
328.00	-65.851	-54.984	
329.00	-63.873	-62.334	
330.00	-63.355	-63.772	
331.00	-61.976	-66.151	
332.00	-62.145	-69.206	
333.00	-61.543	-68.277	
334.00	-61.292	-73.609	
335.00	-60.870	-74.156	
336.00	-61.606	-74.302	
337.00	-61.825	-70.554	
338.00	-61.108	-68.815	
339.00	-61.864	-71.380	
340.00	-62.715	-64.763	
341.00	-64.439	-54.821	
342.00	-63.995	-47.786	
343.00	-64.297	-42.930	
344.00	-63.689	-28.583	
345.00	-63.256	-20.211	
346.00	-62.129	-9.075	
347.00	-61.137	0.070	
348.00	-60.227	4.400	
349.00	-59.634	6.098	
350.00	-59.526	10.534	
351.00	-58.849	17.534	
352.00	-59.033	19.847	
353.00	-58.817	20.074	
354.00	-59.118	26.537	
355.00	-58.534	31.177	
356.00	-59.638	35.504	
357.00	-60.177	43.509	
358.00	-61.276	51.616	
359.00	-61.635	57.523	
Frequency	2450.00	MHz	
Channel	test		
Scan Axis name	Azimuth  [deg]		
Scan Axis	Amplitude	Phase	
			
0.00	-72.292	142.942	
1.00	-69.301	155.615	
2.00	-67.581	169.948	
3.00	-66.107	178.051	
4.00	-64.762	-175.617	
5.00	-64.376	-168.697	
6.00	-63.128	-157.789	
7.00	-62.668	-155.495	
8.00	-61.878	-145.481	
9.00	-61.079	-135.514	
10.00	-60.625	-126.108	
11.00	-60.923	-130.163	
12.00	-62.453	-114.336	
13.00	-61.550	-116.351	
14.00	-63.461	-93.823	
15.00	-63.805	-80.429	
16.00	-63.707	-59.248	
17.00	-64.001	-44.759	
18.00	-63.192	-37.994	
19.00	-60.882	-21.702	
20.00	-60.747	-7.754	
21.00	-59.050	6.565	
22.00	-58.262	11.013	
23.00	-57.881	19.123	
24.00	-57.996	22.185	
25.00	-58.625	29.318	
26.00	-59.038	31.339	
27.00	-60.370	47.599	
28.00	-65.600	75.849	
29.00	-63.320	76.508	
30.00	-68.804	114.688	
31.00	-64.825	129.024	
32.00	-62.057	172.828	
33.00	-62.426	-166.469	
34.00	-63.477	178.904	
35.00	-62.050	-160.784	
36.00	-62.144	-129.535	
37.00	-61.377	-130.899	
38.00	-64.678	-132.448	
39.00	-83.893	-23.472	
40.00	-68.959	77.643	
41.00	-68.570	-70.645	
42.00	-68.021	29.158	
43.00	-68.677	78.565	
44.00	-61.275	88.062	
45.00	-70.111	105.052	
46.00	-60.301	117.920	
47.00	-61.451	132.658	
48.00	-60.905	150.477	
49.00	-59.892	141.398	
50.00	-59.994	-169.599	
51.00	-61.489	-175.695	
52.00	-59.791	-127.032	
53.00	-61.155	-122.251	
54.00	-62.030	-112.027	
55.00	-63.485	-87.275	
56.00	-62.910	-65.756	
57.00	-60.535	-51.336	
58.00	-62.697	-17.684	
59.00	-63.744	32.528	
60.00	-64.342	48.376	
61.00	-60.527	16.668	
62.00	-71.245	26.056	
63.00	-59.151	81.739	
64.00	-61.339	144.019	
65.00	-61.020	158.895	
66.00	-58.615	157.607	
67.00	-59.149	-179.096	
68.00	-61.194	-171.596	
69.00	-58.900	175.035	
70.00	-63.179	176.008	
71.00	-64.360	-93.446	
72.00	-70.432	-61.861	
73.00	-70.620	-6.938	
74.00	-60.309	38.981	
75.00	-60.307	15.237	
76.00	-65.269	12.255	
77.00	-78.577	100.443	
78.00	-63.148	118.632	
79.00	-63.477	156.968	
80.00	-71.480	-160.586	
81.00	-58.550	-171.755	
82.00	-62.579	136.006	
83.00	-59.457	-115.252	
84.00	-63.131	-118.115	
85.00	-64.684	-100.345	
86.00	-64.686	-87.774	
87.00	-58.219	-62.900	
88.00	-64.710	-110.843	
89.00	-62.543	2.738	
90.00	-61.044	-14.206	
91.00	-59.544	-5.481	
92.00	-62.800	39.772	
93.00	-64.680	52.407	
94.00	-71.223	85.947	
95.00	-64.259	129.162	
96.00	-71.499	159.206	
97.00	-65.527	128.112	
98.00	-67.116	110.011	
99.00	-65.675	-148.214	
100.00	-83.169	-130.810	
101.00	-64.338	-146.422	
102.00	-73.683	-131.133	
103.00	-62.631	-47.633	
104.00	-61.280	-47.825	
105.00	-62.627	-62.738	
106.00	-64.208	-64.341	
107.00	-65.812	-15.910	
108.00	-66.711	-10.152	
109.00	-63.593	-4.099	
110.00	-64.809	-11.595	
111.00	-71.228	-5.428	
112.00	-64.274	5.062	
113.00	-70.388	55.503	
114.00	-67.554	106.060	
115.00	-72.171	102.897	
116.00	-64.072	110.447	
117.00	-63.574	96.782	
118.00	-66.504	109.366	
119.00	-65.011	124.244	
120.00	-66.958	-143.864	
121.00	-72.686	-106.764	
122.00	-63.791	-86.505	
123.00	-61.483	-101.927	
124.00	-60.272	-77.967	
125.00	-59.217	-76.192	
126.00	-62.964	-56.632	
127.00	-59.904	-25.071	
128.00	-60.837	-18.955	
129.00	-58.265	-4.549	
130.00	-59.856	8.176	
131.00	-63.701	30.836	
132.00	-60.244	50.161	
133.00	-60.429	68.760	
134.00	-58.400	79.136	
135.00	-58.522	89.323	
136.00	-59.518	120.097	
137.00	-58.474	125.213	
138.00	-59.151	149.951	
139.00	-58.017	166.005	
140.00	-57.575	-174.536	
141.00	-57.576	-157.868	
142.00	-55.983	-141.229	
143.00	-55.660	-138.137	
144.00	-54.300	-119.520	
145.00	-54.757	-114.691	
146.00	-54.280	-97.114	
147.00	-53.330	-88.437	
148.00	-53.010	-85.364	
149.00	-52.923	-77.867	
150.00	-53.349	-67.290	
151.00	-53.364	-62.611	
152.00	-53.450	-59.000	
153.00	-53.475	-55.026	
154.00	-54.072	-51.479	
155.00	-53.817	-43.936	
156.00	-54.026	-41.253	
157.00	-54.097	-38.145	
158.00	-53.812	-34.406	
159.00	-53.662	-28.263	
160.00	-53.487	-32.382	
161.00	-53.086	-30.194	
162.00	-52.529	-32.352	
163.00	-52.329	-29.094	
164.00	-51.803	-24.695	
165.00	-51.193	-27.067	
166.00	-50.689	-29.333	
167.00	-50.263	-30.056	
168.00	-49.771	-25.907	
169.00	-49.247	-26.909	
170.00	-49.061	-26.738	
171.00	-48.604	-31.977	
172.00	-48.334	-24.289	
173.00	-48.171	-28.238	
174.00	-48.060	-24.703	
175.00	-47.829	-27.624	
176.00	-47.613	-29.606	
177.00	-47.577	-23.403	
178.00	-47.387	-30.770	
179.00	-47.335	-26.548	
180.00	-47.118	-34.079	
181.00	-47.077	-34.072	
182.00	-47.083	-35.873	
183.00	-47.084	-37.216	
184.00	-47.273	-48.275	
185.00	-47.462	-49.918	
186.00	-47.479	-57.743	
187.00	-47.513	-62.528	
188.00	-47.604	-68.579	
189.00	-47.710	-80.380	
190.00	-47.809	-82.679	
191.00	-47.826	-94.602	
192.00	-47.898	-99.422	
193.00	-48.147	-114.860	
194.00	-48.206	-116.568	
195.00	-48.259	-130.869	
196.00	-48.238	-136.714	
197.00	-48.287	-147.631	
198.00	-48.321	-159.600	
199.00	-48.488	-168.726	
200.00	-48.563	177.249	
201.00	-48.757	172.453	
202.00	-49.023	158.384	
203.00	-48.897	150.270	
204.00	-49.305	137.857	
205.00	-49.520	132.223	
206.00	-49.868	119.287	
207.00	-50.319	108.453	
208.00	-50.595	95.727	
209.00	-51.411	88.272	
210.00	-52.084	77.038	
211.00	-52.947	63.444	
212.00	-54.338	49.186	
213.00	-55.255	35.815	
214.00	-56.628	23.165	
215.00	-57.399	2.279	
216.00	-58.806	-15.207	
217.00	-60.157	-42.442	
218.00	-61.794	-57.518	
219.00	-63.421	-72.689	
220.00	-65.097	-100.955	
221.00	-67.712	-128.012	
222.00	-68.733	-173.443	
223.00	-68.337	141.542	
224.00	-64.995	109.566	
225.00	-63.263	84.547	
226.00	-61.040	67.096	
227.00	-60.565	44.552	
228.00	-59.889	33.025	
229.00	-59.320	10.663	
230.00	-58.397	-4.084	
231.00	-58.329	-26.036	
232.00	-58.130	-40.091	
233.00	-57.926	-57.342	
234.00	-57.448	-76.412	
235.00	-57.553	-94.447	
236.00	-57.324	-116.947	
237.00	-57.351	-133.467	
238.00	-57.049	-150.880	
239.00	-57.123	-167.558	
240.00	-57.405	172.690	
241.00	-57.197	153.458	
242.00	-57.454	133.791	
243.00	-57.990	112.327	
244.00	-57.965	94.034	
245.00	-58.408	73.057	
246.00	-58.534	53.589	
247.00	-59.114	34.421	
248.00	-59.590	13.936	
249.00	-60.465	-7.581	
250.00	-60.614	-30.254	
251.00	-61.852	-49.294	
252.00	-62.677	-70.765	
253.00	-62.842	-97.525	
254.00	-63.293	-130.277	
255.00	-63.019	-159.385	
256.00	-62.340	174.609	
257.00	-61.698	151.301	
258.00	-60.996	133.069	
259.00	-60.758	112.190	
260.00	-61.001	93.965	
261.00	-61.120	76.751	
262.00	-61.992	68.748	
263.00	-63.658	57.258	
264.00	-64.957	38.887	
265.00	-66.156	10.743	
266.00	-66.585	-20.937	
267.00	-67.800	-39.885	
268.00	-67.519	-61.031	
269.00	-67.334	-74.435	
270.00	-68.485	-103.570	
271.00	-67.340	-132.435	
272.00	-67.016	-145.956	
273.00	-66.051	-166.200	
274.00	-66.768	-176.070	
275.00	-66.831	167.952	
276.00	-67.806	158.055	
277.00	-69.197	144.117	
278.00	-71.446	130.637	
279.00	-77.158	93.782	
280.00	-79.518	78.399	
281.00	-83.927	-43.959	
282.00	-74.587	-60.165	
283.00	-68.574	-76.137	
284.00	-66.758	-95.925	
285.00	-64.176	-106.650	
286.00	-63.005	-122.308	
287.00	-62.179	-143.240	
288.00	-61.138	-160.569	
289.00	-60.908	-178.825	
290.00	-60.706	164.672	
291.00	-60.333	147.395	
292.00	-60.668	132.524	
293.00	-60.927	115.192	
294.00	-61.326	103.430	
295.00	-61.441	88.117	
296.00	-63.315	63.292	
297.00	-63.200	47.811	
298.00	-63.325	22.396	
299.00	-62.658	2.189	
300.00	-63.293	-29.068	
301.00	-62.903	-46.106	
302.00	-61.989	-69.078	
303.00	-61.684	-92.260	
304.00	-60.930	-103.567	
305.00	-60.246	-121.035	
306.00	-60.253	-134.408	
307.00	-59.916	-141.336	
308.00	-59.837	-152.396	
309.00	-59.891	-157.347	
310.00	-60.042	-163.468	
311.00	-60.388	-176.752	
312.00	-62.025	176.980	
313.00	-63.447	169.861	
314.00	-67.134	161.668	
315.00	-70.907	175.644	
316.00	-74.440	-160.489	
317.00	-73.474	-103.944	
318.00	-69.192	-93.698	
319.00	-68.185	-91.227	
320.00	-66.472	-96.123	
321.00	-63.728	-105.632	
322.00	-63.300	-111.707	
323.00	-62.428	-111.395	
324.00	-63.206	-118.667	
325.00	-64.081	-121.579	
326.00	-64.269	-130.259	
327.00	-65.374	-136.995	
328.00	-65.713	-136.270	
329.00	-68.080	-127.161	
330.00	-67.976	-134.811	
331.00	-73.518	-127.869	
332.00	-83.478	-126.704	
333.00	-78.683	-113.667	
334.00	-84.619	-20.719	
335.00	-76.788	-26.177	
336.00	-73.551	3.668	
337.00	-70.999	4.035	
338.00	-68.243	-2.815	
339.00	-68.057	-1.498	
340.00	-67.780	9.516	
341.00	-66.727	13.486	
342.00	-67.098	6.182	
343.00	-64.122	-0.016	
344.00	-64.636	-7.173	
345.00	-63.852	-3.594	
346.00	-63.158	-11.418	
347.00	-63.338	-19.882	
348.00	-63.953	-18.960	
349.00	-63.319	-33.049	
350.00	-63.776	-32.226	
351.00	-64.318	-40.840	
352.00	-65.711	-36.795	
353.00	-68.439	-38.745	
354.00	-69.613	-26.681	
355.00	-73.116	-44.877	
356.00	-77.801	-23.316	
357.00	-102.945	138.516	
358.00	-85.244	-117.508	
359.00	-76.386	140.322	
Frequency	2496.00	MHz	
Channel	test		
Scan Axis name	Azimuth  [deg]		
Scan Axis	Amplitude	Phase	
			
0.00	-60.196	-175.927	
1.00	-61.530	178.970	
2.00	-62.961	-176.738	
3.00	-64.868	-179.456	
4.00	-66.330	-173.043	
5.00	-70.108	-172.190	
6.00	-72.274	-133.794	
7.00	-75.269	-59.439	
8.00	-69.465	-55.130	
9.00	-67.143	-35.771	
10.00	-64.477	-20.357	
11.00	-62.661	-29.785	
12.00	-62.640	-25.476	
13.00	-60.267	-19.547	
14.00	-60.224	-13.984	
15.00	-61.069	-7.230	
16.00	-60.870	-2.322	
17.00	-61.285	0.309	
18.00	-61.422	19.715	
19.00	-63.654	29.726	
20.00	-64.203	43.158	
21.00	-64.646	62.757	
22.00	-66.203	85.454	
23.00	-64.421	102.415	
24.00	-64.893	135.165	
25.00	-62.726	146.044	
26.00	-61.495	166.305	
27.00	-60.043	177.284	
28.00	-58.988	-160.617	
29.00	-57.462	-149.512	
30.00	-57.254	-136.141	
31.00	-57.039	-126.199	
32.00	-56.240	-114.052	
33.00	-56.026	-110.478	
34.00	-57.392	-88.988	
35.00	-57.534	-80.568	
36.00	-58.668	-58.266	
37.00	-58.388	-48.575	
38.00	-58.609	-25.670	
39.00	-59.542	-9.415	
40.00	-58.069	15.022	
41.00	-59.242	29.571	
42.00	-58.420	50.634	
43.00	-57.763	75.747	
44.00	-58.082	95.251	
45.00	-58.642	123.705	
46.00	-58.593	139.236	
47.00	-57.264	157.029	
48.00	-59.047	166.999	
49.00	-58.251	-165.179	
50.00	-58.688	-139.850	
51.00	-58.868	-118.362	
52.00	-58.442	-97.235	
53.00	-56.942	-86.573	
54.00	-58.654	-44.824	
55.00	-58.130	-24.006	
56.00	-55.116	-24.469	
57.00	-58.890	-8.902	
58.00	-59.533	51.900	
59.00	-55.400	29.178	
60.00	-58.212	60.675	
61.00	-56.662	69.417	
62.00	-71.327	54.767	
63.00	-59.993	120.506	
64.00	-60.951	137.550	
65.00	-64.047	144.011	
66.00	-65.293	154.576	
67.00	-68.624	-176.274	
68.00	-65.787	-144.215	
69.00	-70.380	-63.638	
70.00	-68.535	-50.371	
71.00	-67.301	-33.402	
72.00	-65.093	-1.569	
73.00	-65.127	10.391	
74.00	-66.885	24.577	
75.00	-64.524	35.783	
76.00	-68.159	-18.032	
77.00	-70.483	49.787	
78.00	-73.832	-60.276	
79.00	-71.109	-109.757	
80.00	-66.409	-103.491	
81.00	-62.727	-62.825	
82.00	-66.599	-48.913	
83.00	-62.406	-42.377	
84.00	-62.704	-20.005	
85.00	-60.908	10.690	
86.00	-62.656	50.316	
87.00	-62.222	45.162	
88.00	-62.544	64.778	
89.00	-61.603	99.395	
90.00	-61.147	111.869	
91.00	-64.528	103.868	
92.00	-65.044	164.005	
93.00	-65.769	140.854	
94.00	-65.091	-168.358	
95.00	-67.461	-146.860	
96.00	-64.295	-104.686	
97.00	-63.313	-102.456	
98.00	-61.815	-56.848	
99.00	-64.235	-63.508	
100.00	-64.214	-20.955	
101.00	-63.087	-13.962	
102.00	-63.216	17.293	
103.00	-65.174	-17.112	
104.00	-63.203	57.354	
105.00	-64.644	74.922	
106.00	-65.431	89.697	
107.00	-64.903	124.644	
108.00	-64.128	144.067	
109.00	-64.183	148.943	
110.00	-68.009	149.873	
111.00	-64.823	146.834	
112.00	-65.061	153.133	
113.00	-64.623	169.648	
114.00	-64.106	177.931	
115.00	-65.259	177.020	
116.00	-65.610	-160.642	
117.00	-62.555	-169.282	
118.00	-61.745	-132.254	
119.00	-60.684	-116.101	
120.00	-59.586	-104.507	
121.00	-57.794	-90.832	
122.00	-57.386	-71.352	
123.00	-57.192	-62.689	
124.00	-56.914	-44.954	
125.00	-56.005	-32.541	
126.00	-56.780	-18.703	
127.00	-55.725	-1.136	
128.00	-55.147	14.140	
129.00	-54.757	32.979	
130.00	-55.177	46.802	
131.00	-54.339	58.919	
132.00	-54.167	78.174	
133.00	-53.937	97.950	
134.00	-53.227	99.965	
135.00	-53.167	118.393	
136.00	-53.163	133.949	
137.00	-53.298	153.014	
138.00	-52.699	160.383	
139.00	-52.509	174.620	
140.00	-52.117	-172.382	
141.00	-52.125	-159.332	
142.00	-52.593	-151.802	
143.00	-52.513	-146.239	
144.00	-52.843	-132.508	
145.00	-52.987	-124.507	
146.00	-53.221	-107.466	
147.00	-53.559	-97.423	
148.00	-53.361	-86.605	
149.00	-53.765	-76.720	
150.00	-53.456	-61.547	
151.00	-53.220	-55.746	
152.00	-53.168	-46.885	
153.00	-53.089	-40.621	
154.00	-52.712	-31.154	
155.00	-52.231	-25.269	
156.00	-52.074	-20.723	
157.00	-51.508	-16.224	
158.00	-51.113	-6.531	
159.00	-50.499	2.847	
160.00	-49.955	2.308	
161.00	-49.710	7.374	
162.00	-49.084	9.269	
163.00	-48.761	15.885	
164.00	-48.297	22.027	
165.00	-48.024	22.442	
166.00	-47.715	22.688	
167.00	-47.278	25.057	
168.00	-47.007	29.760	
169.00	-46.566	31.630	
170.00	-46.309	32.248	
171.00	-45.885	27.715	
172.00	-45.629	36.493	
173.00	-45.487	32.350	
174.00	-45.175	35.496	
175.00	-44.896	32.895	
176.00	-44.840	30.460	
177.00	-44.602	36.529	
178.00	-44.476	28.750	
179.00	-44.349	32.241	
180.00	-44.297	24.461	
181.00	-44.289	23.755	
182.00	-44.227	22.168	
183.00	-44.337	20.727	
184.00	-44.324	9.646	
185.00	-44.395	8.518	
186.00	-44.428	0.346	
187.00	-44.480	-3.549	
188.00	-44.524	-8.721	
189.00	-44.617	-20.723	
190.00	-44.728	-21.957	
191.00	-44.692	-33.221	
192.00	-44.759	-35.826	
193.00	-44.812	-51.665	
194.00	-44.824	-53.644	
195.00	-44.771	-65.922	
196.00	-44.960	-71.082	
197.00	-44.958	-82.703	
198.00	-45.054	-94.370	
199.00	-45.128	-103.121	
200.00	-45.295	-116.443	
201.00	-45.356	-122.698	
202.00	-45.486	-136.933	
203.00	-45.685	-146.857	
204.00	-45.893	-157.426	
205.00	-46.063	-165.849	
206.00	-46.291	179.563	
207.00	-46.390	169.702	
208.00	-46.747	155.562	
209.00	-47.175	145.927	
210.00	-47.510	133.991	
211.00	-47.897	118.816	
212.00	-48.377	105.723	
213.00	-48.827	91.812	
214.00	-49.323	78.955	
215.00	-50.014	65.777	
216.00	-50.656	50.978	
217.00	-51.591	35.715	
218.00	-52.394	26.150	
219.00	-53.684	11.327	
220.00	-54.891	-5.615	
221.00	-56.314	-23.870	
222.00	-58.323	-37.933	
223.00	-60.292	-62.083	
224.00	-61.690	-90.083	
225.00	-63.317	-114.270	
226.00	-64.467	-151.028	
227.00	-64.814	171.227	
228.00	-64.181	148.870	
229.00	-63.005	115.147	
230.00	-62.950	93.643	
231.00	-62.136	68.365	
232.00	-61.863	48.238	
233.00	-62.255	29.285	
234.00	-62.287	1.280	
235.00	-62.376	-22.190	
236.00	-62.385	-48.638	
237.00	-62.120	-79.155	
238.00	-61.114	-104.962	
239.00	-60.101	-127.651	
240.00	-59.243	-149.184	
241.00	-58.298	-169.095	
242.00	-57.326	172.863	
243.00	-57.090	154.361	
244.00	-56.773	137.806	
245.00	-56.740	118.973	
246.00	-56.556	100.595	
247.00	-56.968	81.363	
248.00	-57.187	64.738	
249.00	-57.446	42.339	
250.00	-58.359	22.125	
251.00	-58.881	-0.615	
252.00	-59.783	-19.959	
253.00	-60.191	-47.801	
254.00	-60.493	-76.030	
255.00	-59.929	-106.571	
256.00	-59.550	-129.809	
257.00	-58.751	-152.606	
258.00	-57.933	-170.279	
259.00	-58.174	170.637	
260.00	-58.301	150.647	
261.00	-59.061	129.523	
262.00	-59.629	119.512	
263.00	-60.175	104.475	
264.00	-61.685	75.829	
265.00	-62.026	49.640	
266.00	-63.081	22.099	
267.00	-62.502	-2.807	
268.00	-61.546	-21.732	
269.00	-60.950	-40.397	
270.00	-60.173	-54.773	
271.00	-59.808	-70.629	
272.00	-59.498	-81.260	
273.00	-59.755	-93.123	
274.00	-60.070	-107.863	
275.00	-61.771	-116.500	
276.00	-63.629	-131.519	
277.00	-65.302	-137.137	
278.00	-68.839	-163.252	
279.00	-76.533	133.455	
280.00	-76.677	77.347	
281.00	-69.321	33.791	
282.00	-66.638	26.867	
283.00	-64.610	12.003	
284.00	-63.208	-0.227	
285.00	-62.174	-12.800	
286.00	-62.498	-29.941	
287.00	-62.237	-56.333	
288.00	-62.947	-83.311	
289.00	-62.747	-111.220	
290.00	-62.607	-123.222	
291.00	-62.770	-143.163	
292.00	-61.916	-160.954	
293.00	-63.661	-177.381	
294.00	-63.768	173.281	
295.00	-65.425	156.662	
296.00	-67.181	138.126	
297.00	-68.698	96.582	
298.00	-70.128	50.548	
299.00	-71.029	27.896	
300.00	-67.763	-2.831	
301.00	-68.681	-17.010	
302.00	-65.844	-43.218	
303.00	-65.300	-52.073	
304.00	-65.505	-66.018	
305.00	-65.786	-71.100	
306.00	-64.695	-86.688	
307.00	-66.631	-106.472	
308.00	-66.681	-107.881	
309.00	-73.482	-124.563	
310.00	-74.737	-122.993	
311.00	-84.008	-80.232	
312.00	-78.689	45.527	
313.00	-73.385	34.432	
314.00	-70.327	34.159	
315.00	-65.209	34.693	
316.00	-64.070	27.500	
317.00	-64.032	21.698	
318.00	-64.340	14.877	
319.00	-64.162	9.540	
320.00	-64.424	6.147	
321.00	-66.846	1.164	
322.00	-68.345	-11.102	
323.00	-68.829	0.774	
324.00	-71.755	6.297	
325.00	-71.550	12.095	
326.00	-72.100	-1.950	
327.00	-68.799	22.410	
328.00	-68.570	26.198	
329.00	-68.061	14.784	
330.00	-67.406	-2.091	
331.00	-65.498	-13.615	
332.00	-64.482	-8.533	
333.00	-65.200	-14.068	
334.00	-63.184	-14.574	
335.00	-64.279	-20.144	
336.00	-64.111	-26.031	
337.00	-65.969	-35.106	
338.00	-65.780	-39.375	
339.00	-67.193	-49.440	
340.00	-67.347	-58.224	
341.00	-69.261	-67.608	
342.00	-69.253	-80.206	
343.00	-68.636	-95.352	
344.00	-71.996	-119.129	
345.00	-70.260	-122.989	
346.00	-68.303	-152.499	
347.00	-67.067	-167.406	
348.00	-64.876	-169.917	
349.00	-65.646	-176.901	
350.00	-64.503	-177.676	
351.00	-64.070	-178.529	
352.00	-61.487	175.302	
353.00	-61.966	176.323	
354.00	-61.029	173.999	
355.00	-60.962	178.710	
356.00	-61.230	-178.064	
357.00	-60.751	-177.467	
358.00	-60.076	-176.253	
359.00	-61.277	-177.614	
Frequency	2550.00	MHz	
Channel	test		
Scan Axis name	Azimuth  [deg]		
Scan Axis	Amplitude	Phase	
			
0.00	-68.752	-169.151	
1.00	-67.153	-152.593	
2.00	-68.551	-154.698	
3.00	-66.314	-144.220	
4.00	-67.078	-143.817	
5.00	-66.716	-137.120	
6.00	-65.562	-124.142	
7.00	-65.884	-124.155	
8.00	-65.027	-119.460	
9.00	-65.009	-106.600	
10.00	-65.789	-92.871	
11.00	-65.046	-89.799	
12.00	-65.759	-75.315	
13.00	-65.391	-75.482	
14.00	-64.691	-55.197	
15.00	-67.260	-39.530	
16.00	-67.929	-28.527	
17.00	-67.513	-4.775	
18.00	-65.612	2.223	
19.00	-65.508	11.724	
20.00	-65.653	20.983	
21.00	-64.859	25.790	
22.00	-66.821	22.482	
23.00	-69.464	66.459	
24.00	-73.340	60.665	
25.00	-76.530	91.741	
26.00	-78.601	115.883	
27.00	-87.265	-175.067	
28.00	-78.033	-124.240	
29.00	-75.215	-65.082	
30.00	-74.600	-125.292	
31.00	-70.140	-81.632	
32.00	-71.979	-66.867	
33.00	-66.602	-55.910	
34.00	-66.679	-23.864	
35.00	-71.562	-5.632	
36.00	-70.050	29.778	
37.00	-66.709	44.728	
38.00	-65.398	76.171	
39.00	-66.068	83.168	
40.00	-62.459	95.065	
41.00	-61.079	127.768	
42.00	-60.703	138.965	
43.00	-60.634	152.023	
44.00	-61.298	173.147	
45.00	-61.141	-166.694	
46.00	-60.572	-144.451	
47.00	-59.945	-125.303	
48.00	-59.541	-109.774	
49.00	-58.968	-86.431	
50.00	-57.306	-68.421	
51.00	-58.025	-44.269	
52.00	-57.488	-30.749	
53.00	-56.085	-7.512	
54.00	-56.450	4.990	
55.00	-62.496	-8.756	
56.00	-60.963	33.766	
57.00	-59.992	51.904	
58.00	-68.263	118.475	
59.00	-59.186	106.478	
60.00	-58.252	149.298	
61.00	-64.186	-163.621	
62.00	-59.494	-177.905	
63.00	-58.445	-146.803	
64.00	-58.631	-124.649	
65.00	-59.592	-115.376	
66.00	-57.674	-102.965	
67.00	-59.822	-64.063	
68.00	-59.042	-46.650	
69.00	-59.623	-27.330	
70.00	-55.332	-8.302	
71.00	-61.135	10.497	
72.00	-61.671	32.316	
73.00	-60.933	84.394	
74.00	-61.843	96.972	
75.00	-63.748	126.951	
76.00	-60.548	152.391	
77.00	-60.038	175.189	
78.00	-60.561	-136.262	
79.00	-59.650	-114.642	
80.00	-60.019	-109.559	
81.00	-59.457	-95.175	
82.00	-60.698	-58.761	
83.00	-60.248	-16.555	
84.00	-64.966	-10.666	
85.00	-60.051	29.579	
86.00	-61.671	55.476	
87.00	-61.611	61.859	
88.00	-61.560	85.819	
89.00	-61.844	99.940	
90.00	-59.146	130.544	
91.00	-62.338	151.604	
92.00	-62.878	-167.022	
93.00	-61.568	-153.451	
94.00	-61.751	-137.474	
95.00	-64.493	-98.000	
96.00	-61.057	-72.812	
97.00	-61.841	-75.021	
98.00	-61.328	-29.788	
99.00	-62.854	-21.098	
100.00	-61.095	-12.083	
101.00	-61.676	12.356	
102.00	-62.830	6.214	
103.00	-72.118	53.256	
104.00	-84.048	7.042	
105.00	-77.559	103.444	
106.00	-71.231	161.411	
107.00	-86.961	48.295	
108.00	-69.244	-77.634	
109.00	-73.426	-156.232	
110.00	-84.021	-102.869	
111.00	-70.425	-95.147	
112.00	-79.537	98.895	
113.00	-70.994	-58.118	
114.00	-75.794	95.601	
115.00	-73.026	-151.567	
116.00	-68.007	103.038	
117.00	-72.503	-144.231	
118.00	-75.900	-122.183	
119.00	-67.711	-80.741	
120.00	-64.552	-50.739	
121.00	-62.401	-50.117	
122.00	-63.300	-12.181	
123.00	-63.166	-9.508	
124.00	-60.933	-6.956	
125.00	-60.676	14.224	
126.00	-60.784	35.736	
127.00	-59.096	58.974	
128.00	-59.347	75.544	
129.00	-58.124	100.720	
130.00	-57.580	114.744	
131.00	-56.401	129.608	
132.00	-55.534	146.138	
133.00	-54.845	169.478	
134.00	-54.139	174.300	
135.00	-53.745	-168.134	
136.00	-53.082	-153.548	
137.00	-52.622	-138.830	
138.00	-52.118	-129.064	
139.00	-51.865	-115.274	
140.00	-52.031	-101.634	
141.00	-51.938	-84.414	
142.00	-52.105	-74.444	
143.00	-51.940	-66.713	
144.00	-51.817	-53.149	
145.00	-51.681	-41.883	
146.00	-51.567	-25.974	
147.00	-51.433	-13.367	
148.00	-51.076	-3.856	
149.00	-50.820	5.077	
150.00	-50.653	19.610	
151.00	-50.553	25.313	
152.00	-50.497	33.526	
153.00	-50.110	38.555	
154.00	-49.958	49.706	
155.00	-50.185	55.687	
156.00	-50.000	61.367	
157.00	-49.901	64.195	
158.00	-49.828	71.165	
159.00	-49.692	81.766	
160.00	-49.675	82.362	
161.00	-49.458	88.624	
162.00	-49.288	93.373	
163.00	-49.043	99.307	
164.00	-48.705	107.805	
165.00	-48.409	107.723	
166.00	-48.065	109.137	
167.00	-47.714	110.652	
168.00	-47.331	116.255	
169.00	-46.929	118.395	
170.00	-46.556	119.074	
171.00	-46.305	113.650	
172.00	-45.835	122.356	
173.00	-45.630	117.900	
174.00	-45.346	120.421	
175.00	-45.155	117.411	
176.00	-45.018	113.949	
177.00	-44.790	120.170	
178.00	-44.797	111.803	
179.00	-44.635	116.044	
180.00	-44.599	107.364	
181.00	-44.629	106.808	
182.00	-44.617	105.005	
183.00	-44.634	102.680	
184.00	-44.736	92.032	
185.00	-44.777	89.953	
186.00	-44.866	82.525	
187.00	-44.974	77.878	
188.00	-45.145	73.113	
189.00	-45.204	61.647	
190.00	-45.294	60.590	
191.00	-45.516	48.255	
192.00	-45.541	47.002	
193.00	-45.781	30.883	
194.00	-45.919	28.796	
195.00	-46.171	16.359	
196.00	-46.210	10.062	
197.00	-46.402	-1.373	
198.00	-46.592	-13.965	
199.00	-46.680	-23.517	
200.00	-46.966	-37.389	
201.00	-47.057	-43.126	
202.00	-47.290	-58.112	
203.00	-47.311	-67.279	
204.00	-47.576	-77.654	
205.00	-47.801	-87.141	
206.00	-48.074	-100.587	
207.00	-48.339	-109.694	
208.00	-48.588	-123.675	
209.00	-48.851	-131.723	
210.00	-49.446	-142.030	
211.00	-49.953	-156.386	
212.00	-50.330	-167.972	
213.00	-51.111	-179.833	
214.00	-51.961	169.952	
215.00	-52.951	158.516	
216.00	-54.161	145.256	
217.00	-55.335	131.715	
218.00	-57.002	126.066	
219.00	-58.284	112.126	
220.00	-59.920	97.793	
221.00	-62.695	85.071	
222.00	-63.127	80.593	
223.00	-66.521	88.064	
224.00	-66.085	76.669	
225.00	-66.607	77.168	
226.00	-65.707	83.361	
227.00	-64.006	88.434	
228.00	-62.726	81.206	
229.00	-61.414	68.564	
230.00	-61.133	62.711	
231.00	-60.005	44.628	
232.00	-59.410	29.179	
233.00	-58.481	17.194	
234.00	-57.844	2.553	
235.00	-57.319	-12.834	
236.00	-56.516	-33.910	
237.00	-56.737	-46.949	
238.00	-56.424	-66.332	
239.00	-55.890	-80.997	
240.00	-56.412	-100.878	
241.00	-56.267	-123.018	
242.00	-56.087	-140.005	
243.00	-55.821	-158.147	
244.00	-55.813	-178.891	
245.00	-56.055	162.570	
246.00	-56.011	140.746	
247.00	-56.238	124.806	
248.00	-56.371	108.182	
249.00	-56.841	83.897	
250.00	-57.254	64.411	
251.00	-57.252	45.480	
252.00	-57.847	28.474	
253.00	-58.290	8.374	
254.00	-59.290	-10.404	
255.00	-60.623	-26.923	
256.00	-61.832	-43.900	
257.00	-65.176	-69.541	
258.00	-66.871	-96.124	
259.00	-70.695	-143.203	
260.00	-70.314	158.892	
261.00	-68.151	132.655	
262.00	-66.604	101.904	
263.00	-66.016	82.173	
264.00	-64.824	69.787	
265.00	-65.001	42.377	
266.00	-62.762	24.188	
267.00	-63.178	9.212	
268.00	-64.658	-6.395	
269.00	-64.948	-17.909	
270.00	-65.312	-31.162	
271.00	-66.688	-69.834	
272.00	-67.944	-86.046	
273.00	-68.283	-118.476	
274.00	-69.272	-142.603	
275.00	-66.947	-165.856	
276.00	-68.241	169.274	
277.00	-69.515	152.247	
278.00	-69.589	142.259	
279.00	-66.826	89.929	
280.00	-68.900	85.819	
281.00	-65.988	60.843	
282.00	-66.067	30.105	
283.00	-64.712	15.786	
284.00	-63.330	-10.690	
285.00	-61.575	-28.231	
286.00	-60.835	-44.817	
287.00	-59.882	-64.238	
288.00	-59.555	-80.005	
289.00	-59.447	-95.756	
290.00	-60.272	-112.422	
291.00	-60.553	-125.658	
292.00	-62.083	-148.876	
293.00	-62.947	-167.983	
294.00	-63.509	167.486	
295.00	-64.602	136.104	
296.00	-64.035	114.531	
297.00	-63.038	89.932	
298.00	-63.462	64.620	
299.00	-62.406	49.003	
300.00	-62.941	24.859	
301.00	-61.756	7.411	
302.00	-61.696	-19.969	
303.00	-61.225	-23.283	
304.00	-60.753	-42.337	
305.00	-60.891	-63.080	
306.00	-60.790	-75.107	
307.00	-61.632	-95.490	
308.00	-63.255	-113.991	
309.00	-63.516	-132.228	
310.00	-62.724	-147.401	
311.00	-61.495	-164.943	
312.00	-64.085	-178.986	
313.00	-63.609	154.770	
314.00	-63.213	151.613	
315.00	-62.600	134.725	
316.00	-62.775	123.358	
317.00	-64.201	103.374	
318.00	-63.349	93.376	
319.00	-62.956	84.949	
320.00	-65.588	84.416	
321.00	-65.431	63.319	
322.00	-64.050	49.593	
323.00	-65.305	56.837	
324.00	-65.851	46.511	
325.00	-66.177	37.388	
326.00	-66.155	32.325	
327.00	-65.869	35.748	
328.00	-66.661	34.099	
329.00	-65.915	35.723	
330.00	-65.464	34.457	
331.00	-66.059	26.886	
332.00	-65.494	18.917	
333.00	-66.029	12.918	
334.00	-64.457	11.930	
335.00	-65.417	6.574	
336.00	-65.564	1.935	
337.00	-64.891	1.176	
338.00	-65.656	-4.245	
339.00	-66.264	-12.173	
340.00	-66.033	-10.887	
341.00	-66.222	-9.580	
342.00	-67.844	-7.388	
343.00	-66.724	-2.519	
344.00	-67.800	-7.690	
345.00	-67.681	-4.155	
346.00	-69.439	-20.987	
347.00	-71.478	-20.220	
348.00	-71.236	-18.747	
349.00	-73.964	-5.022	
350.00	-75.777	-32.001	
351.00	-78.474	-66.418	
352.00	-84.525	-135.201	
353.00	-77.629	142.931	
354.00	-75.401	143.058	
355.00	-73.918	177.083	
356.00	-71.941	165.296	
357.00	-69.659	170.302	
358.00	-71.809	169.312	
359.00	-70.225	167.432	
Frequency	2600.00	MHz	
Channel	test		
Scan Axis name	Azimuth  [deg]		
Scan Axis	Amplitude	Phase	
			
0.00	-66.522	-124.586	
1.00	-63.592	-108.038	
2.00	-61.597	-104.491	
3.00	-59.620	-93.893	
4.00	-58.642	-94.570	
5.00	-57.716	-91.166	
6.00	-57.028	-87.559	
7.00	-56.658	-85.556	
8.00	-56.497	-82.808	
9.00	-56.647	-79.537	
10.00	-56.946	-74.905	
11.00	-57.381	-68.566	
12.00	-58.122	-61.360	
13.00	-59.179	-51.929	
14.00	-60.222	-44.398	
15.00	-62.095	-37.158	
16.00	-63.248	-25.643	
17.00	-65.199	-17.483	
18.00	-67.667	-1.978	
19.00	-69.675	30.425	
20.00	-72.524	60.636	
21.00	-68.608	106.306	
22.00	-65.999	134.260	
23.00	-63.591	145.169	
24.00	-61.995	155.263	
25.00	-61.090	165.060	
26.00	-59.368	178.078	
27.00	-59.507	-179.455	
28.00	-60.327	-168.671	
29.00	-60.889	-163.676	
30.00	-62.637	-158.781	
31.00	-64.856	-152.235	
32.00	-70.118	-128.267	
33.00	-78.205	-90.135	
34.00	-72.655	11.482	
35.00	-67.438	22.541	
36.00	-64.544	36.724	
37.00	-61.894	37.730	
38.00	-60.521	45.405	
39.00	-59.161	48.275	
40.00	-59.831	58.102	
41.00	-59.695	62.087	
42.00	-60.780	64.782	
43.00	-63.043	67.067	
44.00	-64.477	70.283	
45.00	-68.212	61.380	
46.00	-67.751	32.469	
47.00	-67.062	10.681	
48.00	-64.481	5.032	
49.00	-62.994	8.969	
50.00	-61.008	14.296	
51.00	-60.353	24.541	
52.00	-59.552	37.412	
53.00	-59.738	52.184	
54.00	-59.285	60.012	
55.00	-60.250	77.191	
56.00	-61.625	88.414	
57.00	-62.628	98.629	
58.00	-64.405	116.433	
59.00	-67.848	145.668	
60.00	-71.937	-176.735	
61.00	-69.757	-108.750	
62.00	-65.224	-67.126	
63.00	-62.028	-45.601	
64.00	-59.190	-25.545	
65.00	-57.937	-17.863	
66.00	-57.138	-9.954	
67.00	-56.850	9.020	
68.00	-56.811	17.355	
69.00	-57.904	30.857	
70.00	-59.141	37.281	
71.00	-60.871	55.676	
72.00	-64.711	73.321	
73.00	-70.508	160.683	
74.00	-69.710	-175.719	
75.00	-63.950	-123.540	
76.00	-62.575	-106.020	
77.00	-61.485	-87.199	
78.00	-61.458	-65.815	
79.00	-61.121	-38.748	
80.00	-60.550	-12.204	
81.00	-60.813	19.024	
82.00	-60.492	37.356	
83.00	-60.321	65.927	
84.00	-58.932	97.983	
85.00	-58.721	123.933	
86.00	-58.003	152.480	
87.00	-57.633	161.567	
88.00	-57.138	-173.011	
89.00	-57.742	-157.644	
90.00	-57.495	-132.185	
91.00	-58.146	-125.863	
92.00	-59.936	-90.363	
93.00	-58.865	-69.216	
94.00	-58.998	-37.905	
95.00	-58.388	-11.605	
96.00	-57.206	23.375	
97.00	-57.125	35.243	
98.00	-55.581	63.718	
99.00	-55.770	73.510	
100.00	-56.187	97.289	
101.00	-56.283	107.661	
102.00	-56.833	126.354	
103.00	-57.492	148.574	
104.00	-58.702	176.421	
105.00	-59.493	-159.530	
106.00	-60.074	-142.943	
107.00	-60.746	-103.120	
108.00	-61.452	-84.250	
109.00	-62.123	-58.380	
110.00	-62.398	-44.468	
111.00	-63.182	-13.778	
112.00	-62.556	-0.293	
113.00	-63.315	15.335	
114.00	-63.949	28.912	
115.00	-65.593	34.322	
116.00	-69.056	53.032	
117.00	-71.590	39.908	
118.00	-76.268	76.156	
119.00	-81.325	85.720	
120.00	-79.548	167.405	
121.00	-91.173	-41.863	
122.00	-77.873	146.560	
123.00	-75.798	126.837	
124.00	-68.992	154.020	
125.00	-64.965	146.042	
126.00	-63.477	157.909	
127.00	-61.403	172.566	
128.00	-59.305	-178.742	
129.00	-58.231	-164.945	
130.00	-56.910	-156.563	
131.00	-56.187	-142.973	
132.00	-55.650	-128.712	
133.00	-55.062	-108.742	
134.00	-54.689	-102.548	
135.00	-54.347	-88.265	
136.00	-54.122	-71.224	
137.00	-53.416	-52.942	
138.00	-53.197	-40.839	
139.00	-52.733	-24.062	
140.00	-52.317	-5.814	
141.00	-51.839	12.965	
142.00	-51.477	21.129	
143.00	-51.055	31.272	
144.00	-50.726	44.254	
145.00	-50.502	53.360	
146.00	-50.236	71.437	
147.00	-50.223	81.997	
148.00	-50.050	90.348	
149.00	-49.926	101.234	
150.00	-50.017	115.860	
151.00	-50.016	124.251	
152.00	-50.125	132.937	
153.00	-50.149	140.696	
154.00	-50.029	154.482	
155.00	-49.883	166.580	
156.00	-49.856	172.372	
157.00	-49.739	178.210	
158.00	-49.656	-174.486	
159.00	-49.511	-161.286	
160.00	-49.518	-158.532	
161.00	-49.315	-152.139	
162.00	-49.339	-149.118	
163.00	-49.114	-142.263	
164.00	-48.916	-134.706	
165.00	-48.509	-134.236	
166.00	-48.330	-133.291	
167.00	-48.080	-132.906	
168.00	-47.676	-127.760	
169.00	-47.442	-126.316	
170.00	-47.049	-126.588	
171.00	-46.864	-131.933	
172.00	-46.465	-123.664	
173.00	-46.159	-128.349	
174.00	-45.934	-125.652	
175.00	-45.751	-128.295	
176.00	-45.592	-132.059	
177.00	-45.373	-125.658	
178.00	-45.312	-133.460	
179.00	-45.217	-128.771	
180.00	-45.171	-137.240	
181.00	-45.185	-137.577	
182.00	-45.264	-138.121	
183.00	-45.339	-138.449	
184.00	-45.606	-148.352	
185.00	-45.777	-149.071	
186.00	-46.051	-155.436	
187.00	-46.333	-158.894	
188.00	-46.625	-162.639	
189.00	-47.125	-174.045	
190.00	-47.503	-173.639	
191.00	-48.003	174.275	
192.00	-48.402	172.721	
193.00	-49.062	156.030	
194.00	-49.529	153.303	
195.00	-50.029	139.494	
196.00	-50.600	132.520	
197.00	-50.998	119.974	
198.00	-51.583	104.112	
199.00	-52.019	92.726	
200.00	-52.311	74.555	
201.00	-52.484	66.593	
202.00	-52.851	48.376	
203.00	-52.879	35.284	
204.00	-52.905	21.543	
205.00	-53.016	10.217	
206.00	-52.794	-6.293	
207.00	-52.690	-16.370	
208.00	-52.521	-31.132	
209.00	-52.463	-41.585	
210.00	-52.678	-51.665	
211.00	-52.768	-64.944	
212.00	-52.808	-76.303	
213.00	-52.927	-87.618	
214.00	-53.218	-97.281	
215.00	-53.590	-106.938	
216.00	-53.901	-118.226	
217.00	-54.322	-126.084	
218.00	-54.743	-129.597	
219.00	-55.113	-138.251	
220.00	-55.456	-147.634	
221.00	-55.942	-155.216	
222.00	-56.223	-159.527	
223.00	-56.345	-166.476	
224.00	-56.387	-176.759	
225.00	-56.266	177.266	
226.00	-56.024	162.653	
227.00	-55.839	149.995	
228.00	-55.366	141.535	
229.00	-55.194	125.545	
230.00	-54.760	116.421	
231.00	-54.511	96.480	
232.00	-54.227	82.732	
233.00	-53.737	70.200	
234.00	-53.413	54.113	
235.00	-53.093	40.493	
236.00	-52.832	22.264	
237.00	-52.772	8.552	
238.00	-52.646	-7.978	
239.00	-52.657	-23.852	
240.00	-52.934	-39.364	
241.00	-53.064	-59.505	
242.00	-53.250	-77.328	
243.00	-53.422	-95.633	
244.00	-53.668	-114.415	
245.00	-53.684	-135.049	
246.00	-53.957	-153.337	
247.00	-54.275	-171.464	
248.00	-54.644	172.658	
249.00	-55.165	150.470	
250.00	-55.834	132.057	
251.00	-56.381	111.803	
252.00	-57.513	96.761	
253.00	-58.448	71.646	
254.00	-59.497	47.850	
255.00	-60.412	22.315	
256.00	-61.313	-1.096	
257.00	-62.701	-32.790	
258.00	-63.258	-62.023	
259.00	-63.089	-93.482	
260.00	-62.784	-119.548	
261.00	-62.910	-146.421	
262.00	-62.966	-153.637	
263.00	-62.565	-176.782	
264.00	-63.147	163.851	
265.00	-63.596	141.776	
266.00	-64.072	132.475	
267.00	-66.188	122.750	
268.00	-67.990	110.515	
269.00	-70.681	95.909	
270.00	-74.535	74.502	
271.00	-80.216	23.012	
272.00	-79.936	-98.557	
273.00	-74.393	-116.285	
274.00	-69.150	-137.230	
275.00	-67.401	-144.301	
276.00	-64.638	-163.436	
277.00	-63.469	-172.294	
278.00	-63.345	178.630	
279.00	-62.188	158.485	
280.00	-62.363	143.540	
281.00	-61.684	134.839	
282.00	-62.132	118.770	
283.00	-62.067	101.440	
284.00	-62.660	80.348	
285.00	-63.671	61.869	
286.00	-63.988	42.086	
287.00	-62.753	5.824	
288.00	-62.604	-16.996	
289.00	-62.334	-43.588	
290.00	-61.754	-60.634	
291.00	-62.113	-72.841	
292.00	-62.482	-94.568	
293.00	-63.106	-116.391	
294.00	-63.604	-142.650	
295.00	-63.356	-159.449	
296.00	-63.988	168.253	
297.00	-63.652	149.976	
298.00	-63.280	130.546	
299.00	-63.282	111.788	
300.00	-63.134	93.333	
301.00	-63.336	86.503	
302.00	-62.911	63.700	
303.00	-63.430	44.869	
304.00	-64.159	32.805	
305.00	-64.198	17.730	
306.00	-65.398	10.181	
307.00	-68.214	-2.942	
308.00	-71.100	-7.474	
309.00	-75.178	-24.066	
310.00	-83.233	-13.143	
311.00	-87.189	122.009	
312.00	-81.774	-163.761	
313.00	-82.523	87.459	
314.00	-82.148	59.111	
315.00	-76.032	44.792	
316.00	-78.523	48.190	
317.00	-77.144	6.884	
318.00	-74.931	-1.367	
319.00	-74.446	-16.234	
320.00	-75.338	-33.800	
321.00	-80.416	-40.975	
322.00	-74.265	-85.022	
323.00	-75.954	-48.520	
324.00	-80.979	-78.966	
325.00	-90.070	34.324	
326.00	-83.193	93.248	
327.00	-73.666	78.941	
328.00	-71.203	68.517	
329.00	-68.847	83.213	
330.00	-66.402	77.180	
331.00	-65.305	66.703	
332.00	-63.901	58.200	
333.00	-64.173	51.462	
334.00	-63.200	49.871	
335.00	-63.840	42.256	
336.00	-63.343	36.572	
337.00	-63.261	35.989	
338.00	-63.337	31.113	
339.00	-63.163	26.766	
340.00	-63.785	30.936	
341.00	-65.420	33.388	
342.00	-67.019	21.458	
343.00	-67.214	38.400	
344.00	-67.063	47.639	
345.00	-68.735	51.417	
346.00	-67.630	85.705	
347.00	-67.147	95.272	
348.00	-65.113	100.705	
349.00	-65.089	97.581	
350.00	-64.161	110.235	
351.00	-63.474	102.828	
352.00	-63.033	112.640	
353.00	-64.021	114.700	
354.00	-64.691	115.223	
355.00	-65.015	117.569	
356.00	-67.211	130.089	
357.00	-70.468	143.279	
358.00	-72.605	176.415	
359.00	-72.073	-158.062	
Frequency	2650.00	MHz	
Channel	test		
Scan Axis name	Azimuth  [deg]		
Scan Axis	Amplitude	Phase	
			
0.00	-65.840	125.609	
1.00	-66.658	112.822	
2.00	-68.809	99.678	
3.00	-68.531	89.261	
4.00	-69.558	81.553	
5.00	-68.444	60.941	
6.00	-67.499	52.456	
7.00	-65.752	37.626	
8.00	-65.391	37.877	
9.00	-65.362	35.231	
10.00	-65.247	36.128	
11.00	-64.220	39.149	
12.00	-64.448	41.490	
13.00	-65.391	47.242	
14.00	-66.676	59.823	
15.00	-67.326	61.054	
16.00	-67.502	78.005	
17.00	-69.833	90.254	
18.00	-72.473	85.494	
19.00	-73.287	143.632	
20.00	-71.127	-175.100	
21.00	-71.667	-129.666	
22.00	-66.692	-112.774	
23.00	-65.644	-105.187	
24.00	-63.215	-94.355	
25.00	-61.860	-93.031	
26.00	-60.489	-64.154	
27.00	-60.137	-66.106	
28.00	-58.760	-44.772	
29.00	-59.047	-42.903	
30.00	-59.809	-32.220	
31.00	-60.225	-14.864	
32.00	-60.136	16.674	
33.00	-61.727	27.655	
34.00	-59.729	59.119	
35.00	-59.421	78.028	
36.00	-57.653	97.702	
37.00	-56.257	106.524	
38.00	-55.484	128.147	
39.00	-54.763	133.195	
40.00	-54.133	155.053	
41.00	-54.642	164.914	
42.00	-54.090	176.497	
43.00	-54.320	-164.560	
44.00	-54.304	-146.217	
45.00	-54.569	-125.655	
46.00	-55.318	-110.392	
47.00	-54.640	-95.832	
48.00	-55.613	-75.957	
49.00	-56.780	-63.165	
50.00	-58.049	-38.598	
51.00	-60.414	-8.679	
52.00	-61.037	17.427	
53.00	-61.694	41.022	
54.00	-61.307	67.897	
55.00	-60.139	95.725	
56.00	-58.633	115.603	
57.00	-59.147	134.131	
58.00	-58.422	153.872	
59.00	-58.051	160.155	
60.00	-59.335	178.437	
61.00	-59.843	-171.920	
62.00	-61.559	-155.704	
63.00	-62.290	-144.875	
64.00	-66.715	-107.968	
65.00	-68.451	-148.734	
66.00	-76.251	-19.699	
67.00	-73.562	72.933	
68.00	-73.751	73.975	
69.00	-68.939	112.985	
70.00	-68.160	142.845	
71.00	-66.089	169.491	
72.00	-64.765	-179.146	
73.00	-66.452	-146.182	
74.00	-64.874	-124.108	
75.00	-65.795	-91.537	
76.00	-63.721	-53.637	
77.00	-61.847	-36.721	
78.00	-60.688	-8.795	
79.00	-58.818	17.315	
80.00	-58.576	35.202	
81.00	-58.301	60.538	
82.00	-58.457	69.146	
83.00	-58.594	98.008	
84.00	-59.686	124.806	
85.00	-59.674	163.488	
86.00	-59.742	-168.780	
87.00	-60.743	-158.706	
88.00	-60.046	-123.736	
89.00	-57.984	-109.679	
90.00	-58.987	-82.284	
91.00	-60.074	-78.912	
92.00	-60.476	-38.147	
93.00	-58.783	-16.603	
94.00	-60.115	9.410	
95.00	-58.240	24.662	
96.00	-59.300	65.996	
97.00	-59.711	67.685	
98.00	-59.019	99.051	
99.00	-60.504	118.785	
100.00	-60.671	138.961	
101.00	-62.884	164.385	
102.00	-63.337	-169.542	
103.00	-62.156	-143.847	
104.00	-63.521	-97.035	
105.00	-61.464	-70.305	
106.00	-62.563	-33.331	
107.00	-62.664	2.846	
108.00	-62.041	15.022	
109.00	-60.619	36.266	
110.00	-60.887	53.353	
111.00	-60.637	72.597	
112.00	-58.718	110.761	
113.00	-60.524	105.451	
114.00	-58.713	138.743	
115.00	-59.895	143.281	
116.00	-59.591	161.929	
117.00	-61.534	160.327	
118.00	-62.352	-177.528	
119.00	-64.637	173.800	
120.00	-64.320	-171.273	
121.00	-68.078	-169.653	
122.00	-71.463	177.622	
123.00	-72.282	178.040	
124.00	-74.014	-147.338	
125.00	-71.782	-169.102	
126.00	-74.007	-142.403	
127.00	-69.873	-152.877	
128.00	-69.747	-99.309	
129.00	-70.454	-95.419	
130.00	-66.386	-72.694	
131.00	-62.702	-69.039	
132.00	-61.750	-42.630	
133.00	-60.728	-27.035	
134.00	-59.875	-22.512	
135.00	-59.121	-9.159	
136.00	-57.896	6.436	
137.00	-57.748	25.726	
138.00	-56.918	40.465	
139.00	-56.025	53.689	
140.00	-55.599	72.105	
141.00	-54.655	91.872	
142.00	-53.698	101.443	
143.00	-53.193	109.266	
144.00	-52.886	120.036	
145.00	-52.872	128.789	
146.00	-52.113	143.398	
147.00	-52.076	155.441	
148.00	-51.821	162.797	
149.00	-51.880	172.166	
150.00	-51.889	-173.511	
151.00	-51.989	-165.502	
152.00	-51.695	-157.723	
153.00	-51.930	-151.106	
154.00	-52.029	-139.132	
155.00	-51.826	-128.956	
156.00	-52.045	-124.660	
157.00	-51.969	-117.983	
158.00	-52.255	-110.197	
159.00	-52.090	-99.161	
160.00	-52.078	-97.144	
161.00	-52.129	-90.811	
162.00	-51.940	-89.179	
163.00	-52.051	-84.793	
164.00	-52.200	-77.930	
165.00	-52.079	-78.995	
166.00	-52.129	-76.652	
167.00	-51.858	-78.055	
168.00	-51.928	-72.925	
169.00	-51.778	-73.143	
170.00	-51.433	-71.652	
171.00	-51.428	-79.171	
172.00	-51.092	-71.031	
173.00	-50.903	-77.560	
174.00	-50.791	-72.740	
175.00	-50.895	-76.377	
176.00	-50.719	-81.281	
177.00	-50.715	-73.434	
178.00	-50.629	-81.465	
179.00	-50.649	-74.565	
180.00	-50.663	-82.138	
181.00	-50.468	-82.714	
182.00	-50.844	-80.898	
183.00	-50.964	-80.123	
184.00	-50.878	-88.136	
185.00	-51.398	-87.066	
186.00	-51.547	-91.750	
187.00	-51.893	-94.700	
188.00	-52.387	-95.324	
189.00	-52.866	-108.012	
190.00	-53.564	-106.092	
191.00	-54.220	-118.357	
192.00	-55.011	-120.488	
193.00	-55.434	-139.203	
194.00	-56.321	-140.458	
195.00	-57.436	-157.221	
196.00	-57.398	-163.286	
197.00	-58.341	176.561	
198.00	-58.714	162.803	
199.00	-58.620	146.295	
200.00	-59.087	123.934	
201.00	-58.778	113.621	
202.00	-58.096	95.109	
203.00	-57.448	79.996	
204.00	-57.284	68.597	
205.00	-56.836	61.639	
206.00	-56.756	47.672	
207.00	-56.464	40.909	
208.00	-56.108	29.662	
209.00	-56.321	23.782	
210.00	-56.080	10.404	
211.00	-56.957	-1.073	
212.00	-57.748	-7.877	
213.00	-57.699	-23.648	
214.00	-57.149	-33.264	
215.00	-57.313	-40.615	
216.00	-57.056	-56.166	
217.00	-57.231	-61.077	
218.00	-58.280	-68.395	
219.00	-56.686	-70.679	
220.00	-56.918	-77.986	
221.00	-57.194	-87.829	
222.00	-56.634	-96.710	
223.00	-55.574	-109.778	
224.00	-55.323	-119.156	
225.00	-54.884	-131.595	
226.00	-54.568	-145.514	
227.00	-53.745	-159.667	
228.00	-52.902	-167.496	
229.00	-52.796	176.272	
230.00	-52.611	166.208	
231.00	-52.655	149.976	
232.00	-52.316	136.562	
233.00	-52.316	123.014	
234.00	-52.381	107.173	
235.00	-52.491	92.994	
236.00	-52.277	72.422	
237.00	-52.409	56.055	
238.00	-52.472	41.913	
239.00	-52.879	21.210	
240.00	-52.989	5.353	
241.00	-53.571	-16.618	
242.00	-53.547	-32.468	
243.00	-53.977	-51.530	
244.00	-53.912	-72.166	
245.00	-53.989	-96.156	
246.00	-54.815	-117.693	
247.00	-54.791	-137.188	
248.00	-55.209	-152.515	
249.00	-55.390	-178.325	
250.00	-56.666	161.241	
251.00	-57.360	140.404	
252.00	-57.582	120.748	
253.00	-60.073	92.377	
254.00	-60.767	61.835	
255.00	-59.682	30.104	
256.00	-58.880	10.897	
257.00	-60.131	-22.072	
258.00	-62.061	-39.111	
259.00	-62.738	-76.983	
260.00	-59.779	-93.758	
261.00	-62.318	-126.352	
262.00	-63.843	-138.458	
263.00	-63.435	-167.884	
264.00	-63.546	179.378	
265.00	-63.689	148.069	
266.00	-60.971	121.094	
267.00	-59.999	111.950	
268.00	-61.500	82.633	
269.00	-61.324	68.775	
270.00	-61.375	58.932	
271.00	-61.743	33.742	
272.00	-61.277	17.068	
273.00	-62.245	11.550	
274.00	-64.010	-15.643	
275.00	-62.362	-24.199	
276.00	-63.753	-34.548	
277.00	-64.703	-53.472	
278.00	-67.067	-78.438	
279.00	-70.870	-79.426	
280.00	-67.771	-144.808	
281.00	-68.305	-122.184	
282.00	-70.399	-144.139	
283.00	-70.017	171.551	
284.00	-74.100	-169.791	
285.00	-72.756	118.482	
286.00	-72.395	85.082	
287.00	-69.264	93.743	
288.00	-73.466	75.072	
289.00	-70.808	27.487	
290.00	-86.713	126.234	
291.00	-75.842	20.319	
292.00	-92.962	30.020	
293.00	-75.282	97.581	
294.00	-70.446	169.664	
295.00	-73.325	-151.827	
296.00	-66.015	167.386	
297.00	-67.128	131.236	
298.00	-70.212	145.159	
299.00	-66.498	116.920	
300.00	-68.789	116.145	
301.00	-73.127	128.974	
302.00	-67.984	77.085	
303.00	-74.367	41.232	
304.00	-68.939	-7.014	
305.00	-70.268	-11.698	
306.00	-68.733	-5.426	
307.00	-64.621	-55.450	
308.00	-63.848	-54.656	
309.00	-64.150	-72.798	
310.00	-64.018	-78.721	
311.00	-64.918	-84.946	
312.00	-65.489	-98.081	
313.00	-65.489	-112.193	
314.00	-67.100	-105.582	
315.00	-67.992	-126.099	
316.00	-72.501	-139.202	
317.00	-73.923	168.916	
318.00	-73.373	142.084	
319.00	-76.339	84.024	
320.00	-70.250	60.958	
321.00	-68.963	51.376	
322.00	-67.883	55.684	
323.00	-66.706	51.003	
324.00	-66.870	34.871	
325.00	-66.839	45.491	
326.00	-65.969	33.511	
327.00	-64.991	32.143	
328.00	-65.290	34.367	
329.00	-64.931	40.394	
330.00	-64.512	25.347	
331.00	-65.700	31.337	
332.00	-66.571	35.408	
333.00	-65.063	38.639	
334.00	-67.486	35.268	
335.00	-68.394	35.193	
336.00	-69.667	40.112	
337.00	-68.111	62.112	
338.00	-72.265	65.357	
339.00	-68.762	95.769	
340.00	-68.331	96.421	
341.00	-67.822	100.980	
342.00	-68.561	121.531	
343.00	-65.941	121.234	
344.00	-63.468	127.238	
345.00	-63.260	136.650	
346.00	-62.278	132.727	
347.00	-62.374	138.656	
348.00	-61.346	142.752	
349.00	-60.765	134.140	
350.00	-60.112	138.282	
351.00	-60.741	138.650	
352.00	-60.693	146.817	
353.00	-61.117	134.416	
354.00	-61.731	128.241	
355.00	-61.871	134.572	
356.00	-62.668	124.066	
357.00	-63.765	132.472	
358.00	-64.498	127.088	
359.00	-65.438	121.790	
Frequency	2700.00	MHz	
Channel	test		
Scan Axis name	Azimuth  [deg]		
Scan Axis	Amplitude	Phase	
			
0.00	-65.932	-150.068	
1.00	-70.395	-142.375	
2.00	-73.619	-148.954	
3.00	-81.399	-59.395	
4.00	-75.024	-81.632	
5.00	-88.151	-60.097	
6.00	-76.378	-25.545	
7.00	-79.056	8.893	
8.00	-75.934	28.292	
9.00	-72.174	51.944	
10.00	-72.485	44.545	
11.00	-76.316	77.425	
12.00	-73.723	65.708	
13.00	-71.165	67.969	
14.00	-70.815	122.200	
15.00	-69.182	133.605	
16.00	-70.517	154.462	
17.00	-69.627	157.202	
18.00	-70.493	151.254	
19.00	-67.859	170.247	
20.00	-71.642	-156.241	
21.00	-67.989	-126.891	
22.00	-70.477	-115.791	
23.00	-67.475	-120.081	
24.00	-67.528	-102.056	
25.00	-73.762	-108.119	
26.00	-70.094	-32.610	
27.00	-70.842	-79.156	
28.00	-70.859	28.860	
29.00	-70.220	65.347	
30.00	-69.523	89.520	
31.00	-65.933	65.832	
32.00	-64.965	107.136	
33.00	-62.628	83.451	
34.00	-64.440	113.198	
35.00	-61.932	128.794	
36.00	-61.385	145.680	
37.00	-62.575	176.438	
38.00	-59.528	-152.421	
39.00	-61.069	-148.331	
40.00	-59.864	-103.067	
41.00	-59.972	-100.682	
42.00	-57.166	-71.285	
43.00	-56.889	-45.201	
44.00	-56.560	-39.340	
45.00	-55.259	-26.034	
46.00	-57.869	1.689	
47.00	-55.347	19.604	
48.00	-57.037	21.760	
49.00	-55.675	64.528	
50.00	-56.442	107.318	
51.00	-57.612	98.798	
52.00	-58.326	134.343	
53.00	-55.634	151.230	
54.00	-55.472	164.885	
55.00	-57.353	174.705	
56.00	-52.590	-149.151	
57.00	-53.279	-147.551	
58.00	-51.453	-120.984	
59.00	-54.650	-91.981	
60.00	-58.961	-107.548	
61.00	-53.040	-65.672	
62.00	-56.154	-56.986	
63.00	-52.907	32.343	
64.00	-58.793	0.541	
65.00	-57.373	0.858	
66.00	-60.901	33.517	
67.00	-57.443	81.003	
68.00	-57.907	68.042	
69.00	-54.860	137.376	
70.00	-56.176	169.008	
71.00	-58.335	170.840	
72.00	-57.786	-150.476	
73.00	-57.853	-94.218	
74.00	-59.630	-110.499	
75.00	-56.693	-63.554	
76.00	-54.372	-50.080	
77.00	-62.075	-17.656	
78.00	-60.152	80.585	
79.00	-54.610	46.582	
80.00	-58.139	71.385	
81.00	-54.646	127.316	
82.00	-60.542	105.408	
83.00	-59.257	131.198	
84.00	-61.394	162.124	
85.00	-54.728	-164.995	
86.00	-58.994	-118.519	
87.00	-57.127	170.074	
88.00	-58.840	-85.729	
89.00	-60.447	-82.438	
90.00	-57.757	7.577	
91.00	-55.713	-5.571	
92.00	-61.416	-9.115	
93.00	-57.318	62.148	
94.00	-57.496	82.638	
95.00	-55.993	59.744	
96.00	-61.074	98.534	
97.00	-57.404	105.480	
98.00	-61.548	144.401	
99.00	-56.063	175.398	
100.00	-61.143	-131.326	
101.00	-63.631	162.894	
102.00	-65.121	-141.697	
103.00	-62.303	-91.175	
104.00	-55.788	-95.273	
105.00	-68.611	9.350	
106.00	-63.458	31.895	
107.00	-60.995	60.791	
108.00	-63.144	101.625	
109.00	-60.669	88.860	
110.00	-60.301	118.051	
111.00	-59.097	163.388	
112.00	-61.550	-159.083	
113.00	-63.105	165.097	
114.00	-63.212	-131.235	
115.00	-61.815	-118.519	
116.00	-62.614	-96.878	
117.00	-62.558	-89.995	
118.00	-63.845	-90.473	
119.00	-61.315	-24.313	
120.00	-60.969	-43.091	
121.00	-74.580	46.897	
122.00	-64.303	30.644	
123.00	-67.243	31.178	
124.00	-63.054	29.573	
125.00	-61.309	25.913	
126.00	-61.154	46.884	
127.00	-63.179	58.518	
128.00	-61.881	56.083	
129.00	-72.566	-0.127	
130.00	-65.672	74.963	
131.00	-72.587	115.103	
132.00	-69.978	105.846	
133.00	-62.563	97.415	
134.00	-64.336	64.433	
135.00	-62.212	87.903	
136.00	-60.091	120.017	
137.00	-60.866	134.904	
138.00	-60.148	137.219	
139.00	-57.383	153.928	
140.00	-56.019	164.559	
141.00	-55.603	-176.618	
142.00	-54.763	-174.734	
143.00	-53.944	-159.603	
144.00	-53.987	-157.935	
145.00	-52.306	-148.414	
146.00	-52.894	-130.591	
147.00	-52.178	-119.165	
148.00	-51.774	-113.230	
149.00	-51.726	-103.672	
150.00	-51.196	-89.187	
151.00	-50.682	-84.806	
152.00	-50.804	-76.434	
153.00	-50.631	-70.565	
154.00	-50.344	-61.531	
155.00	-50.114	-53.041	
156.00	-49.951	-46.463	
157.00	-50.323	-42.695	
158.00	-49.622	-36.781	
159.00	-49.883	-24.050	
160.00	-49.644	-22.648	
161.00	-49.638	-18.127	
162.00	-49.901	-15.544	
163.00	-49.484	-11.338	
164.00	-49.976	-3.690	
165.00	-49.819	-3.951	
166.00	-49.770	-2.062	
167.00	-49.873	-2.529	
168.00	-49.526	1.849	
169.00	-49.954	2.850	
170.00	-49.378	4.045	
171.00	-49.141	-4.658	
172.00	-49.176	4.669	
173.00	-48.833	0.087	
174.00	-48.869	3.191	
175.00	-48.673	0.304	
176.00	-48.395	-5.383	
177.00	-48.319	3.598	
178.00	-48.178	-4.073	
179.00	-47.981	2.003	
180.00	-48.066	-5.791	
181.00	-47.963	-6.960	
182.00	-47.899	-6.055	
183.00	-47.982	-5.996	
184.00	-48.017	-15.349	
185.00	-48.212	-16.085	
186.00	-48.291	-20.698	
187.00	-48.497	-23.862	
188.00	-48.907	-25.597	
189.00	-49.365	-35.928	
190.00	-49.456	-37.676	
191.00	-49.814	-47.749	
192.00	-50.591	-48.571	
193.00	-50.766	-63.000	
194.00	-51.209	-62.117	
195.00	-51.967	-76.370	
196.00	-52.298	-81.731	
197.00	-53.184	-94.229	
198.00	-53.212	-107.317	
199.00	-53.318	-114.219	
200.00	-54.414	-137.865	
201.00	-54.269	-138.205	
202.00	-54.680	-160.317	
203.00	-54.814	-166.411	
204.00	-55.359	-174.403	
205.00	-55.287	169.582	
206.00	-55.688	159.760	
207.00	-55.497	148.640	
208.00	-55.914	135.124	
209.00	-57.166	130.285	
210.00	-56.119	115.230	
211.00	-57.259	97.871	
212.00	-57.433	94.223	
213.00	-58.310	84.193	
214.00	-57.833	63.638	
215.00	-58.013	50.885	
216.00	-58.820	39.167	
217.00	-57.746	27.955	
218.00	-58.471	23.149	
219.00	-57.377	10.127	
220.00	-56.678	-4.328	
221.00	-56.797	-15.880	
222.00	-56.241	-22.790	
223.00	-56.593	-34.189	
224.00	-56.735	-42.937	
225.00	-55.949	-50.809	
226.00	-56.025	-66.374	
227.00	-55.870	-86.176	
228.00	-55.361	-96.533	
229.00	-55.771	-118.245	
230.00	-54.531	-129.731	
231.00	-54.727	-154.968	
232.00	-54.197	-165.752	
233.00	-54.466	178.732	
234.00	-53.890	162.076	
235.00	-53.278	145.152	
236.00	-53.626	122.981	
237.00	-53.159	108.019	
238.00	-53.381	90.612	
239.00	-53.892	69.240	
240.00	-53.779	52.764	
241.00	-53.739	34.746	
242.00	-53.817	17.401	
243.00	-53.759	-4.419	
244.00	-53.950	-23.769	
245.00	-54.746	-50.195	
246.00	-54.116	-71.769	
247.00	-53.763	-94.201	
248.00	-54.490	-106.512	
249.00	-54.835	-130.976	
250.00	-54.978	-150.571	
251.00	-56.344	-174.756	
252.00	-56.300	176.478	
253.00	-57.167	148.850	
254.00	-58.201	116.595	
255.00	-59.898	87.745	
256.00	-59.961	66.726	
257.00	-61.476	37.941	
258.00	-62.266	14.005	
259.00	-62.408	-32.229	
260.00	-63.566	-54.227	
261.00	-61.774	-76.841	
262.00	-61.376	-104.090	
263.00	-62.997	-129.966	
264.00	-63.977	-139.358	
265.00	-62.385	-174.030	
266.00	-63.274	163.902	
267.00	-63.415	127.962	
268.00	-63.585	116.305	
269.00	-65.850	81.402	
270.00	-68.461	68.925	
271.00	-67.652	7.305	
272.00	-68.575	20.110	
273.00	-69.042	-33.969	
274.00	-65.998	-60.205	
275.00	-65.068	-64.140	
276.00	-64.728	-100.535	
277.00	-65.973	-109.413	
278.00	-65.358	-123.863	
279.00	-66.547	-161.797	
280.00	-66.252	-170.622	
281.00	-67.744	148.252	
282.00	-68.121	148.490	
283.00	-71.310	105.848	
284.00	-68.409	77.916	
285.00	-66.914	75.696	
286.00	-69.041	42.502	
287.00	-69.470	8.382	
288.00	-70.831	-29.616	
289.00	-69.870	-23.816	
290.00	-70.652	-60.573	
291.00	-69.586	-115.400	
292.00	-67.837	-114.322	
293.00	-66.202	-148.073	
294.00	-65.474	-153.657	
295.00	-63.588	-167.587	
296.00	-63.202	-176.185	
297.00	-61.636	154.838	
298.00	-63.409	142.350	
299.00	-61.038	144.580	
300.00	-63.063	139.673	
301.00	-63.663	133.630	
302.00	-66.718	129.983	
303.00	-67.963	120.803	
304.00	-72.007	132.488	
305.00	-73.448	139.801	
306.00	-71.932	-174.850	
307.00	-69.949	177.503	
308.00	-72.172	-176.048	
309.00	-70.540	-167.342	
310.00	-69.763	-167.387	
311.00	-66.502	-163.932	
312.00	-67.022	-174.500	
313.00	-64.978	176.776	
314.00	-67.777	-169.673	
315.00	-67.869	164.890	
316.00	-67.764	156.988	
317.00	-71.863	151.653	
318.00	-72.968	134.823	
319.00	-68.924	134.914	
320.00	-76.943	120.232	
321.00	-72.870	135.869	
322.00	-89.346	-146.538	
323.00	-87.650	-150.470	
324.00	-76.149	-163.857	
325.00	-77.696	172.265	
326.00	-78.831	126.910	
327.00	-73.702	152.906	
328.00	-75.799	125.036	
329.00	-77.146	140.983	
330.00	-71.912	120.315	
331.00	-69.911	97.407	
332.00	-70.736	100.282	
333.00	-71.465	95.101	
334.00	-71.311	82.864	
335.00	-72.828	80.766	
336.00	-72.073	83.570	
337.00	-71.348	42.263	
338.00	-71.950	36.616	
339.00	-78.579	34.074	
340.00	-83.848	-7.189	
341.00	-80.279	-91.720	
342.00	-75.106	-168.606	
343.00	-76.457	-158.188	
344.00	-70.729	-145.481	
345.00	-66.279	-158.985	
346.00	-65.527	-153.954	
347.00	-63.151	-155.367	
348.00	-62.437	-156.052	
349.00	-62.234	-171.574	
350.00	-61.645	-173.673	
351.00	-61.231	-169.330	
352.00	-61.797	-176.445	
353.00	-62.311	-177.870	
354.00	-62.015	176.790	
355.00	-62.492	173.906	
356.00	-64.203	-173.350	
357.00	-63.596	-178.791	
358.00	-65.452	-172.390	
359.00	-68.085	-169.710	
