Test Title:	Alpha Wireless Indoor Range						
Date:	03/11/2017						
Time:	09:26						
Operator Name:	FL						
Comment:	Version 2 Run 2
Cable length changed						
Caib. File Name:	C:\Program Files\Midas 2.01d\Calibration Files\test sigma 180900.cal						
							
[Scan Axis] Name: 	Azimuth  [deg]Start: 	0.000000	Stop	359.000000	Increment	1.000000[Step Axis] Name: 	Start: 	0.000000	Stop	0.000000	Increment	0.000000[Tert] Name: 	None [Forth] Name: 	None  [ Freq.]  (List) 	MHz.	1694.000000	1710.000000	1800.000000	1850.000000	1950.000000	2050.000000	2170.000000	2300.000000	2350.000000	2400.000000	2450.000000	2496.000000	2550.000000	2600.000000	2650.000000	2700.000000
 [Switch]  	None [Channel]  	test			 [ Beam] 	None			
Database:			
First Question			
2nd			
3rd			
4th			
			
Frequency	1694.00	MHz	
Channel	test		
Scan Axis name	Azimuth  [deg]		
Scan Axis	Amplitude	Phase	
			
0.00	-71.179	-148.422	
1.00	-65.687	-141.949	
2.00	-64.422	-165.563	
3.00	-63.714	-171.277	
4.00	-62.600	178.880	
5.00	-61.673	172.735	
6.00	-60.336	166.949	
7.00	-59.194	170.479	
8.00	-58.765	171.305	
9.00	-58.546	166.929	
10.00	-57.617	173.638	
11.00	-57.291	172.821	
12.00	-58.258	-179.880	
13.00	-57.704	-177.939	
14.00	-58.284	-167.523	
15.00	-58.266	-160.553	
16.00	-58.185	-152.830	
17.00	-57.509	-143.429	
18.00	-57.759	-127.712	
19.00	-57.270	-113.681	
20.00	-56.923	-108.265	
21.00	-55.451	-97.522	
22.00	-54.778	-85.074	
23.00	-53.989	-76.849	
24.00	-53.215	-67.484	
25.00	-52.618	-58.938	
26.00	-52.076	-55.101	
27.00	-51.239	-45.625	
28.00	-51.070	-36.677	
29.00	-50.770	-29.787	
30.00	-50.379	-22.115	
31.00	-50.382	-11.830	
32.00	-49.931	-5.064	
33.00	-49.982	7.596	
34.00	-49.625	14.473	
35.00	-49.277	25.594	
36.00	-49.293	35.179	
37.00	-49.313	45.339	
38.00	-49.103	55.946	
39.00	-48.943	67.038	
40.00	-48.979	75.818	
41.00	-49.042	86.745	
42.00	-49.284	98.991	
43.00	-49.242	110.903	
44.00	-49.403	122.111	
45.00	-49.262	141.125	
46.00	-49.378	149.897	
47.00	-49.443	165.700	
48.00	-49.220	178.049	
49.00	-49.085	-168.032	
50.00	-48.985	-152.926	
51.00	-49.132	-140.904	
52.00	-48.871	-126.099	
53.00	-49.275	-117.813	
54.00	-49.198	-101.809	
55.00	-49.393	-89.537	
56.00	-49.584	-75.984	
57.00	-49.253	-56.384	
58.00	-49.469	-40.351	
59.00	-49.243	-23.619	
60.00	-48.943	-12.205	
61.00	-48.254	3.408	
62.00	-47.771	15.634	
63.00	-47.868	24.837	
64.00	-47.658	37.342	
65.00	-46.989	48.064	
66.00	-47.054	58.556	
67.00	-46.989	73.627	
68.00	-47.378	81.830	
69.00	-47.265	104.767	
70.00	-47.964	105.175	
71.00	-48.315	119.972	
72.00	-48.241	132.385	
73.00	-49.753	146.559	
74.00	-49.877	159.032	
75.00	-50.654	174.692	
76.00	-51.649	-177.252	
77.00	-52.939	-161.218	
78.00	-55.495	-149.686	
79.00	-56.042	-127.799	
80.00	-58.592	-124.115	
81.00	-60.000	-97.793	
82.00	-66.934	-59.939	
83.00	-63.452	-5.328	
84.00	-60.392	21.466	
85.00	-59.175	49.284	
86.00	-56.277	68.765	
87.00	-54.803	78.738	
88.00	-53.977	83.743	
89.00	-53.520	97.170	
90.00	-52.193	105.745	
91.00	-52.746	119.178	
92.00	-52.740	124.102	
93.00	-53.158	129.552	
94.00	-54.381	142.181	
95.00	-54.022	151.355	
96.00	-55.597	156.936	
97.00	-55.981	170.169	
98.00	-58.768	-174.652	
99.00	-58.058	179.295	
100.00	-60.117	-172.942	
101.00	-62.554	178.488	
102.00	-63.121	175.706	
103.00	-60.025	152.977	
104.00	-59.800	167.615	
105.00	-57.296	162.661	
106.00	-56.270	167.110	
107.00	-54.971	175.862	
108.00	-53.217	-168.407	
109.00	-52.813	-158.862	
110.00	-51.602	-147.777	
111.00	-50.965	-140.539	
112.00	-50.019	-125.727	
113.00	-49.610	-113.394	
114.00	-48.616	-98.250	
115.00	-48.282	-90.237	
116.00	-47.628	-70.857	
117.00	-46.342	-60.926	
118.00	-45.611	-48.387	
119.00	-45.148	-33.464	
120.00	-44.592	-21.894	
121.00	-43.917	-10.219	
122.00	-43.421	4.306	
123.00	-42.793	15.046	
124.00	-42.266	28.637	
125.00	-41.755	38.584	
126.00	-41.197	49.721	
127.00	-40.537	60.866	
128.00	-40.129	72.365	
129.00	-39.532	83.431	
130.00	-39.207	92.714	
131.00	-38.710	101.937	
132.00	-38.223	112.257	
133.00	-37.774	121.152	
134.00	-37.409	130.077	
135.00	-37.044	138.508	
136.00	-36.671	146.150	
137.00	-36.397	155.388	
138.00	-36.098	162.904	
139.00	-35.836	170.666	
140.00	-35.573	177.212	
141.00	-35.318	-176.204	
142.00	-35.099	-169.593	
143.00	-34.946	-162.031	
144.00	-34.754	-156.485	
145.00	-34.569	-149.736	
146.00	-34.382	-144.342	
147.00	-34.218	-138.093	
148.00	-33.923	-133.585	
149.00	-33.823	-128.801	
150.00	-33.590	-124.225	
151.00	-33.396	-119.501	
152.00	-33.159	-113.477	
153.00	-32.894	-109.551	
154.00	-32.606	-105.145	
155.00	-32.321	-101.397	
156.00	-32.049	-97.684	
157.00	-31.743	-95.220	
158.00	-31.439	-92.187	
159.00	-31.144	-90.067	
160.00	-30.856	-88.135	
161.00	-30.558	-86.298	
162.00	-30.294	-84.306	
163.00	-29.990	-82.300	
164.00	-29.739	-81.332	
165.00	-29.454	-80.299	
166.00	-29.207	-77.872	
167.00	-28.981	-77.447	
168.00	-28.753	-76.256	
169.00	-28.534	-78.072	
170.00	-28.344	-77.980	
171.00	-28.157	-77.038	
172.00	-27.968	-77.113	
173.00	-27.798	-76.101	
174.00	-27.650	-76.286	
175.00	-27.514	-76.987	
176.00	-27.382	-77.298	
177.00	-27.257	-78.903	
178.00	-27.157	-79.590	
179.00	-27.051	-82.542	
180.00	-26.960	-82.477	
181.00	-26.874	-85.404	
182.00	-26.803	-85.609	
183.00	-26.754	-90.138	
184.00	-26.705	-90.123	
185.00	-26.665	-96.383	
186.00	-26.628	-97.712	
187.00	-26.596	-104.990	
188.00	-26.594	-107.645	
189.00	-26.598	-115.336	
190.00	-26.597	-118.147	
191.00	-26.623	-122.385	
192.00	-26.624	-128.098	
193.00	-26.654	-132.357	
194.00	-26.696	-139.617	
195.00	-26.717	-142.931	
196.00	-26.776	-150.956	
197.00	-26.844	-155.320	
198.00	-26.895	-162.647	
199.00	-26.944	-169.489	
200.00	-27.052	-177.267	
201.00	-27.099	178.228	
202.00	-27.179	167.478	
203.00	-27.251	162.256	
204.00	-27.309	151.991	
205.00	-27.391	145.105	
206.00	-27.464	136.918	
207.00	-27.530	126.568	
208.00	-27.672	118.761	
209.00	-27.686	106.723	
210.00	-27.756	99.486	
211.00	-27.809	88.319	
212.00	-27.863	81.085	
213.00	-27.921	67.703	
214.00	-28.013	60.914	
215.00	-28.071	48.986	
216.00	-28.119	40.104	
217.00	-28.196	26.681	
218.00	-28.280	18.844	
219.00	-28.345	7.453	
220.00	-28.432	-1.094	
221.00	-28.517	-13.884	
222.00	-28.616	-24.730	
223.00	-28.718	-34.639	
224.00	-28.823	-45.822	
225.00	-28.925	-55.321	
226.00	-29.063	-70.438	
227.00	-29.201	-80.768	
228.00	-29.364	-93.539	
229.00	-29.526	-104.072	
230.00	-29.679	-116.888	
231.00	-29.861	-128.742	
232.00	-30.072	-140.065	
233.00	-30.320	-152.957	
234.00	-30.558	-166.088	
235.00	-30.771	-176.849	
236.00	-31.068	170.669	
237.00	-31.323	159.816	
238.00	-31.626	145.948	
239.00	-31.932	132.874	
240.00	-32.234	119.519	
241.00	-32.544	105.737	
242.00	-32.891	93.019	
243.00	-33.221	78.496	
244.00	-33.546	64.038	
245.00	-33.882	48.688	
246.00	-34.230	36.349	
247.00	-34.539	20.749	
248.00	-34.835	5.295	
249.00	-35.153	-8.870	
250.00	-35.411	-24.362	
251.00	-35.676	-39.878	
252.00	-35.888	-55.193	
253.00	-36.089	-69.816	
254.00	-36.277	-84.289	
255.00	-36.472	-99.615	
256.00	-36.672	-113.478	
257.00	-36.807	-129.690	
258.00	-37.010	-142.851	
259.00	-37.210	-159.064	
260.00	-37.466	-174.682	
261.00	-37.714	173.688	
262.00	-38.123	155.989	
263.00	-38.519	143.379	
264.00	-38.929	128.940	
265.00	-39.407	113.984	
266.00	-39.961	104.221	
267.00	-40.638	85.535	
268.00	-41.080	77.311	
269.00	-41.849	57.719	
270.00	-42.537	43.957	
271.00	-43.276	27.554	
272.00	-44.012	9.325	
273.00	-44.642	-7.853	
274.00	-45.090	-26.353	
275.00	-45.628	-46.197	
276.00	-46.028	-62.953	
277.00	-46.498	-81.841	
278.00	-46.631	-100.186	
279.00	-46.869	-117.788	
280.00	-46.993	-138.385	
281.00	-46.894	-151.442	
282.00	-47.183	-170.492	
283.00	-46.941	174.094	
284.00	-47.080	155.586	
285.00	-47.097	142.403	
286.00	-47.080	120.394	
287.00	-47.300	100.084	
288.00	-47.296	85.655	
289.00	-47.470	66.926	
290.00	-47.850	54.971	
291.00	-48.035	42.280	
292.00	-48.305	25.263	
293.00	-48.698	12.595	
294.00	-49.401	0.073	
295.00	-49.594	-13.985	
296.00	-50.239	-27.425	
297.00	-50.930	-44.966	
298.00	-51.128	-61.098	
299.00	-52.002	-75.894	
300.00	-52.838	-90.833	
301.00	-54.107	-103.929	
302.00	-54.745	-124.942	
303.00	-54.881	-149.844	
304.00	-55.833	-163.034	
305.00	-56.481	176.102	
306.00	-57.413	154.028	
307.00	-56.918	134.853	
308.00	-57.072	117.057	
309.00	-57.063	94.867	
310.00	-56.940	79.061	
311.00	-55.573	62.475	
312.00	-55.392	45.561	
313.00	-55.373	34.609	
314.00	-55.624	20.995	
315.00	-54.267	7.907	
316.00	-54.656	-4.945	
317.00	-55.411	-23.134	
318.00	-54.682	-27.168	
319.00	-56.000	-47.675	
320.00	-55.594	-57.683	
321.00	-55.198	-69.884	
322.00	-55.783	-87.238	
323.00	-56.052	-96.430	
324.00	-55.594	-114.821	
325.00	-55.671	-118.287	
326.00	-54.581	-129.297	
327.00	-55.061	-138.344	
328.00	-56.259	-160.588	
329.00	-55.817	-165.939	
330.00	-55.370	-161.407	
331.00	-55.500	-169.799	
332.00	-57.468	178.387	
333.00	-57.732	178.822	
334.00	-58.888	175.778	
335.00	-57.700	164.380	
336.00	-61.424	162.454	
337.00	-64.329	-179.427	
338.00	-67.502	167.765	
339.00	-69.212	-160.533	
340.00	-68.772	-156.911	
341.00	-67.975	-98.374	
342.00	-69.904	-128.335	
343.00	-68.490	-103.541	
344.00	-66.333	-95.859	
345.00	-65.660	-97.508	
346.00	-64.803	-82.543	
347.00	-64.727	-98.922	
348.00	-64.676	-90.834	
349.00	-62.667	-89.633	
350.00	-63.970	-94.795	
351.00	-62.702	-102.603	
352.00	-65.366	-99.636	
353.00	-64.709	-110.377	
354.00	-66.461	-125.045	
355.00	-67.960	-129.761	
356.00	-69.320	-149.397	
357.00	-70.707	-157.880	
358.00	-68.544	-178.411	
359.00	-71.234	166.983	
Frequency	1710.00	MHz	
Channel	test		
Scan Axis name	Azimuth  [deg]		
Scan Axis	Amplitude	Phase	
			
0.00	-58.193	150.746	
1.00	-59.138	146.871	
2.00	-60.396	150.780	
3.00	-60.381	151.036	
4.00	-60.553	128.620	
5.00	-63.362	154.109	
6.00	-63.147	160.449	
7.00	-65.472	176.266	
8.00	-62.353	169.905	
9.00	-62.500	-178.506	
10.00	-63.618	-151.380	
11.00	-58.886	-146.724	
12.00	-59.356	-144.558	
13.00	-57.382	-139.650	
14.00	-54.445	-143.634	
15.00	-55.449	-131.908	
16.00	-52.988	-140.117	
17.00	-51.992	-136.362	
18.00	-51.210	-134.907	
19.00	-50.969	-135.852	
20.00	-49.667	-128.629	
21.00	-49.667	-125.592	
22.00	-49.287	-121.365	
23.00	-49.030	-115.601	
24.00	-48.812	-110.911	
25.00	-48.281	-107.128	
26.00	-48.455	-103.504	
27.00	-48.308	-93.401	
28.00	-48.414	-87.293	
29.00	-48.443	-81.260	
30.00	-48.123	-74.822	
31.00	-48.292	-64.738	
32.00	-48.713	-58.468	
33.00	-48.736	-46.735	
34.00	-49.254	-34.734	
35.00	-49.048	-26.870	
36.00	-49.208	-16.237	
37.00	-49.405	-3.617	
38.00	-50.629	7.649	
39.00	-50.484	22.599	
40.00	-50.760	36.206	
41.00	-50.610	54.625	
42.00	-51.049	70.412	
43.00	-50.553	88.937	
44.00	-49.948	101.363	
45.00	-49.048	115.533	
46.00	-48.476	126.801	
47.00	-47.992	138.286	
48.00	-47.541	150.808	
49.00	-47.257	161.682	
50.00	-47.035	174.159	
51.00	-46.871	-175.820	
52.00	-46.992	-162.009	
53.00	-47.065	-151.993	
54.00	-47.359	-139.582	
55.00	-47.571	-126.648	
56.00	-47.794	-115.934	
57.00	-47.812	-98.731	
58.00	-47.642	-81.859	
59.00	-47.576	-67.439	
60.00	-47.308	-53.588	
61.00	-47.538	-40.394	
62.00	-47.282	-29.887	
63.00	-47.316	-17.444	
64.00	-47.436	-4.832	
65.00	-47.369	7.321	
66.00	-47.801	15.274	
67.00	-48.224	35.149	
68.00	-48.126	45.931	
69.00	-48.484	66.823	
70.00	-49.069	80.779	
71.00	-49.485	97.147	
72.00	-49.445	113.054	
73.00	-49.961	132.895	
74.00	-50.331	147.629	
75.00	-50.225	171.901	
76.00	-50.487	-177.578	
77.00	-50.952	-157.748	
78.00	-50.780	-140.106	
79.00	-50.876	-115.826	
80.00	-50.590	-102.532	
81.00	-50.415	-77.842	
82.00	-49.645	-63.431	
83.00	-49.193	-50.447	
84.00	-49.006	-33.002	
85.00	-48.223	-20.901	
86.00	-48.255	-8.322	
87.00	-48.270	4.379	
88.00	-48.046	13.346	
89.00	-47.879	30.979	
90.00	-48.207	39.193	
91.00	-48.305	53.815	
92.00	-48.417	62.685	
93.00	-49.284	80.835	
94.00	-49.399	83.683	
95.00	-50.823	100.516	
96.00	-51.031	103.462	
97.00	-51.470	125.092	
98.00	-52.541	135.886	
99.00	-54.165	143.683	
100.00	-58.351	149.460	
101.00	-57.273	144.006	
102.00	-61.849	174.350	
103.00	-67.363	170.869	
104.00	-66.768	121.311	
105.00	-66.270	126.678	
106.00	-63.850	143.675	
107.00	-61.182	151.338	
108.00	-61.833	168.321	
109.00	-58.286	-171.295	
110.00	-56.059	-172.292	
111.00	-54.486	-154.892	
112.00	-51.755	-141.421	
113.00	-50.542	-125.726	
114.00	-48.557	-119.374	
115.00	-47.217	-102.828	
116.00	-45.452	-94.349	
117.00	-44.604	-84.910	
118.00	-43.720	-72.475	
119.00	-42.888	-60.971	
120.00	-41.944	-52.033	
121.00	-41.385	-41.699	
122.00	-40.418	-31.955	
123.00	-40.012	-21.739	
124.00	-39.403	-10.444	
125.00	-38.950	-0.625	
126.00	-38.352	9.412	
127.00	-38.068	20.019	
128.00	-37.735	30.973	
129.00	-37.249	42.122	
130.00	-36.976	52.243	
131.00	-36.542	61.687	
132.00	-36.192	72.955	
133.00	-35.712	83.391	
134.00	-35.404	93.404	
135.00	-35.076	101.930	
136.00	-34.618	111.180	
137.00	-34.351	120.918	
138.00	-33.617	128.795	
139.00	-33.496	138.372	
140.00	-33.070	145.414	
141.00	-32.735	152.344	
142.00	-32.435	159.582	
143.00	-32.145	167.343	
144.00	-31.944	173.132	
145.00	-31.719	179.693	
146.00	-31.699	-174.465	
147.00	-31.373	-168.438	
148.00	-31.316	-163.495	
149.00	-31.180	-158.599	
150.00	-30.956	-153.913	
151.00	-30.835	-149.196	
152.00	-30.700	-143.129	
153.00	-30.539	-139.117	
154.00	-30.387	-134.458	
155.00	-30.258	-130.855	
156.00	-30.102	-126.765	
157.00	-29.912	-124.136	
158.00	-29.728	-121.297	
159.00	-29.553	-118.953	
160.00	-29.408	-116.868	
161.00	-29.183	-115.476	
162.00	-28.961	-113.599	
163.00	-28.817	-111.643	
164.00	-28.582	-110.936	
165.00	-28.395	-110.283	
166.00	-28.233	-108.005	
167.00	-28.032	-108.211	
168.00	-27.852	-107.055	
169.00	-27.671	-109.064	
170.00	-27.465	-109.384	
171.00	-27.327	-108.800	
172.00	-27.136	-109.127	
173.00	-26.975	-108.396	
174.00	-26.859	-108.808	
175.00	-26.675	-109.747	
176.00	-26.566	-110.322	
177.00	-26.413	-112.163	
178.00	-26.301	-112.922	
179.00	-26.194	-116.023	
180.00	-26.055	-116.098	
181.00	-25.960	-119.166	
182.00	-25.864	-119.656	
183.00	-25.778	-124.380	
184.00	-25.727	-124.105	
185.00	-25.658	-130.904	
186.00	-25.598	-132.046	
187.00	-25.579	-139.418	
188.00	-25.552	-142.247	
189.00	-25.522	-150.015	
190.00	-25.529	-152.995	
191.00	-25.530	-157.205	
192.00	-25.537	-163.116	
193.00	-25.566	-167.263	
194.00	-25.584	-174.759	
195.00	-25.622	-178.146	
196.00	-25.657	173.918	
197.00	-25.708	169.586	
198.00	-25.763	162.161	
199.00	-25.824	155.270	
200.00	-25.856	147.439	
201.00	-25.919	143.321	
202.00	-25.988	132.513	
203.00	-26.050	127.406	
204.00	-26.110	117.634	
205.00	-26.206	110.719	
206.00	-26.282	102.912	
207.00	-26.369	92.982	
208.00	-26.473	85.561	
209.00	-26.561	73.878	
210.00	-26.674	66.782	
211.00	-26.802	56.108	
212.00	-26.921	49.144	
213.00	-27.054	35.996	
214.00	-27.178	29.303	
215.00	-27.337	17.388	
216.00	-27.490	8.438	
217.00	-27.645	-5.045	
218.00	-27.792	-13.129	
219.00	-27.934	-24.626	
220.00	-28.093	-33.504	
221.00	-28.257	-46.578	
222.00	-28.410	-57.745	
223.00	-28.593	-67.950	
224.00	-28.748	-79.667	
225.00	-28.932	-89.212	
226.00	-29.153	-104.888	
227.00	-29.297	-115.641	
228.00	-29.545	-129.058	
229.00	-29.755	-139.914	
230.00	-30.013	-153.669	
231.00	-30.204	-165.772	
232.00	-30.386	-177.835	
233.00	-30.695	167.820	
234.00	-30.903	154.419	
235.00	-31.202	142.874	
236.00	-31.450	129.592	
237.00	-31.641	118.068	
238.00	-31.958	103.833	
239.00	-32.240	90.179	
240.00	-32.430	76.428	
241.00	-32.696	62.292	
242.00	-33.020	49.012	
243.00	-33.276	34.329	
244.00	-33.594	19.476	
245.00	-33.853	4.323	
246.00	-34.205	-8.658	
247.00	-34.380	-23.676	
248.00	-34.759	-38.296	
249.00	-35.212	-52.931	
250.00	-35.723	-67.818	
251.00	-35.964	-83.953	
252.00	-36.243	-99.546	
253.00	-36.666	-114.429	
254.00	-36.949	-129.966	
255.00	-37.314	-146.433	
256.00	-37.486	-161.180	
257.00	-37.690	-178.618	
258.00	-38.140	167.131	
259.00	-38.280	147.349	
260.00	-38.435	129.030	
261.00	-38.768	115.740	
262.00	-39.068	95.259	
263.00	-39.180	81.064	
264.00	-39.503	64.779	
265.00	-39.896	46.869	
266.00	-40.054	37.126	
267.00	-40.164	16.019	
268.00	-40.453	6.638	
269.00	-40.688	-13.154	
270.00	-40.898	-26.829	
271.00	-41.200	-42.473	
272.00	-41.585	-60.190	
273.00	-42.001	-75.079	
274.00	-42.176	-92.177	
275.00	-42.432	-111.858	
276.00	-42.863	-127.042	
277.00	-43.012	-143.508	
278.00	-42.991	-160.946	
279.00	-42.786	-176.307	
280.00	-42.935	166.464	
281.00	-42.944	152.919	
282.00	-42.813	138.530	
283.00	-42.930	124.991	
284.00	-42.890	108.931	
285.00	-43.134	97.337	
286.00	-43.284	77.655	
287.00	-44.051	60.102	
288.00	-43.971	48.181	
289.00	-44.930	30.875	
290.00	-45.249	17.682	
291.00	-45.650	3.757	
292.00	-46.708	-9.527	
293.00	-47.293	-25.363	
294.00	-47.605	-39.897	
295.00	-48.438	-59.256	
296.00	-48.623	-67.370	
297.00	-49.366	-88.470	
298.00	-49.392	-103.299	
299.00	-50.247	-117.312	
300.00	-49.915	-129.925	
301.00	-50.539	-148.629	
302.00	-51.066	-160.158	
303.00	-51.262	-177.287	
304.00	-51.995	174.357	
305.00	-52.834	154.898	
306.00	-53.834	142.428	
307.00	-54.262	129.177	
308.00	-55.804	114.073	
309.00	-55.707	90.258	
310.00	-56.347	86.059	
311.00	-56.280	67.132	
312.00	-56.794	53.872	
313.00	-58.076	44.301	
314.00	-59.178	35.327	
315.00	-58.531	22.176	
316.00	-59.778	33.953	
317.00	-61.507	21.297	
318.00	-62.717	16.782	
319.00	-64.409	16.095	
320.00	-69.038	-3.352	
321.00	-79.615	19.234	
322.00	-78.068	137.395	
323.00	-69.456	137.023	
324.00	-69.048	134.151	
325.00	-66.677	132.301	
326.00	-65.772	120.397	
327.00	-63.516	124.193	
328.00	-65.715	128.601	
329.00	-63.545	118.036	
330.00	-61.836	119.464	
331.00	-61.278	110.118	
332.00	-61.541	101.587	
333.00	-61.645	119.069	
334.00	-61.780	121.733	
335.00	-59.814	117.773	
336.00	-60.342	124.464	
337.00	-61.725	132.838	
338.00	-62.418	133.531	
339.00	-60.899	144.905	
340.00	-61.017	149.491	
341.00	-59.712	153.165	
342.00	-60.056	157.322	
343.00	-60.133	151.619	
344.00	-57.565	166.373	
345.00	-57.333	162.347	
346.00	-57.514	161.802	
347.00	-56.253	168.421	
348.00	-57.338	168.408	
349.00	-57.687	165.008	
350.00	-58.258	164.306	
351.00	-57.346	163.988	
352.00	-56.873	165.473	
353.00	-57.691	160.849	
354.00	-57.057	154.269	
355.00	-58.261	157.785	
356.00	-57.465	147.493	
357.00	-58.309	141.966	
358.00	-58.933	142.997	
359.00	-58.652	139.029	
Frequency	1800.00	MHz	
Channel	test		
Scan Axis name	Azimuth  [deg]		
Scan Axis	Amplitude	Phase	
			
0.00	-55.828	-174.130	
1.00	-56.525	-174.488	
2.00	-58.410	-166.039	
3.00	-59.705	-163.272	
4.00	-60.604	-151.830	
5.00	-61.953	-137.963	
6.00	-61.582	-118.583	
7.00	-62.663	-95.959	
8.00	-60.180	-79.109	
9.00	-59.464	-71.223	
10.00	-57.859	-61.186	
11.00	-56.290	-51.047	
12.00	-55.246	-52.104	
13.00	-54.429	-45.679	
14.00	-53.748	-39.260	
15.00	-53.221	-40.372	
16.00	-52.994	-38.454	
17.00	-53.359	-31.571	
18.00	-53.098	-29.633	
19.00	-53.011	-23.149	
20.00	-53.345	-22.716	
21.00	-53.943	-17.165	
22.00	-54.248	-9.329	
23.00	-55.160	-5.549	
24.00	-55.881	6.163	
25.00	-56.704	15.158	
26.00	-57.245	18.919	
27.00	-58.272	32.981	
28.00	-59.256	36.712	
29.00	-58.857	42.971	
30.00	-60.715	48.468	
31.00	-62.034	58.508	
32.00	-62.827	71.912	
33.00	-65.803	91.093	
34.00	-70.583	97.607	
35.00	-73.561	169.722	
36.00	-68.257	-162.606	
37.00	-66.876	-111.944	
38.00	-64.776	-107.435	
39.00	-61.195	-95.550	
40.00	-60.711	-98.943	
41.00	-59.774	-75.746	
42.00	-58.906	-65.827	
43.00	-57.883	-67.185	
44.00	-58.006	-60.530	
45.00	-57.840	-44.650	
46.00	-58.203	-34.256	
47.00	-59.224	-18.800	
48.00	-57.888	-11.980	
49.00	-58.841	4.718	
50.00	-59.560	20.442	
51.00	-59.048	38.265	
52.00	-59.999	60.896	
53.00	-58.580	71.896	
54.00	-58.550	83.457	
55.00	-57.295	100.784	
56.00	-57.906	110.550	
57.00	-57.297	128.298	
58.00	-57.110	139.682	
59.00	-56.974	149.440	
60.00	-56.778	162.245	
61.00	-56.185	179.027	
62.00	-55.556	-165.075	
63.00	-55.912	-160.402	
64.00	-55.374	-152.994	
65.00	-57.143	-138.055	
66.00	-56.518	-131.768	
67.00	-57.161	-111.114	
68.00	-58.317	-100.600	
69.00	-58.652	-90.661	
70.00	-58.609	-69.878	
71.00	-60.532	-64.016	
72.00	-62.812	-26.276	
73.00	-63.645	-17.608	
74.00	-63.541	-4.168	
75.00	-63.380	25.597	
76.00	-62.015	34.688	
77.00	-62.045	68.668	
78.00	-61.514	74.092	
79.00	-62.301	90.307	
80.00	-61.651	111.533	
81.00	-59.962	127.130	
82.00	-60.439	143.594	
83.00	-59.878	164.325	
84.00	-61.046	174.208	
85.00	-60.632	-176.178	
86.00	-61.281	-161.918	
87.00	-60.013	-148.777	
88.00	-60.120	-132.639	
89.00	-60.112	-111.613	
90.00	-60.294	-101.683	
91.00	-59.137	-89.409	
92.00	-57.908	-74.446	
93.00	-57.802	-63.427	
94.00	-57.567	-53.423	
95.00	-56.037	-39.947	
96.00	-55.846	-33.018	
97.00	-56.686	-20.887	
98.00	-55.784	-5.253	
99.00	-55.877	5.686	
100.00	-55.648	16.335	
101.00	-55.006	27.502	
102.00	-56.006	43.673	
103.00	-54.986	55.637	
104.00	-55.258	73.388	
105.00	-54.669	78.453	
106.00	-54.780	97.919	
107.00	-54.385	112.794	
108.00	-53.303	129.938	
109.00	-53.293	141.959	
110.00	-52.016	153.933	
111.00	-51.468	173.629	
112.00	-51.002	-173.573	
113.00	-49.910	-157.647	
114.00	-48.959	-146.169	
115.00	-48.260	-134.845	
116.00	-47.566	-120.738	
117.00	-46.469	-108.974	
118.00	-46.030	-99.169	
119.00	-45.125	-86.390	
120.00	-44.404	-76.185	
121.00	-43.846	-64.181	
122.00	-43.380	-54.526	
123.00	-42.757	-43.132	
124.00	-42.627	-31.794	
125.00	-42.212	-23.035	
126.00	-41.790	-11.711	
127.00	-41.573	-0.851	
128.00	-41.272	11.311	
129.00	-40.814	21.479	
130.00	-40.505	33.595	
131.00	-40.089	43.479	
132.00	-39.655	56.253	
133.00	-39.114	66.216	
134.00	-38.594	76.906	
135.00	-38.145	85.715	
136.00	-37.514	94.326	
137.00	-37.061	104.514	
138.00	-36.564	113.307	
139.00	-36.120	121.431	
140.00	-35.677	128.633	
141.00	-35.275	135.866	
142.00	-34.946	143.111	
143.00	-34.619	151.185	
144.00	-34.312	157.461	
145.00	-34.017	163.984	
146.00	-33.750	170.553	
147.00	-33.487	177.319	
148.00	-33.263	-177.141	
149.00	-33.033	-171.611	
150.00	-32.783	-166.453	
151.00	-32.564	-160.903	
152.00	-32.359	-153.784	
153.00	-32.099	-148.928	
154.00	-31.878	-143.322	
155.00	-31.670	-138.642	
156.00	-31.412	-133.739	
157.00	-31.179	-130.444	
158.00	-30.954	-126.230	
159.00	-30.710	-123.019	
160.00	-30.464	-120.120	
161.00	-30.250	-117.550	
162.00	-30.050	-114.573	
163.00	-29.820	-111.969	
164.00	-29.642	-110.421	
165.00	-29.457	-108.869	
166.00	-29.284	-106.025	
167.00	-29.140	-105.156	
168.00	-29.024	-103.844	
169.00	-28.909	-105.172	
170.00	-28.758	-105.264	
171.00	-28.661	-103.966	
172.00	-28.597	-104.003	
173.00	-28.519	-102.857	
174.00	-28.459	-102.772	
175.00	-28.407	-103.694	
176.00	-28.336	-104.006	
177.00	-28.321	-105.851	
178.00	-28.279	-106.205	
179.00	-28.250	-109.490	
180.00	-28.240	-109.626	
181.00	-28.218	-112.871	
182.00	-28.228	-113.179	
183.00	-28.243	-118.334	
184.00	-28.249	-117.960	
185.00	-28.259	-125.359	
186.00	-28.298	-126.723	
187.00	-28.309	-134.718	
188.00	-28.358	-137.857	
189.00	-28.409	-146.303	
190.00	-28.437	-149.877	
191.00	-28.471	-154.516	
192.00	-28.516	-161.051	
193.00	-28.568	-165.682	
194.00	-28.619	-173.800	
195.00	-28.668	-177.551	
196.00	-28.720	173.665	
197.00	-28.770	168.938	
198.00	-28.823	160.755	
199.00	-28.886	153.255	
200.00	-28.943	144.955	
201.00	-28.991	140.598	
202.00	-29.023	129.039	
203.00	-29.110	123.446	
204.00	-29.163	113.285	
205.00	-29.239	106.170	
206.00	-29.320	98.222	
207.00	-29.393	87.902	
208.00	-29.519	80.332	
209.00	-29.625	68.104	
210.00	-29.747	60.966	
211.00	-29.938	50.031	
212.00	-30.083	43.075	
213.00	-30.257	29.506	
214.00	-30.443	22.613	
215.00	-30.629	10.397	
216.00	-30.877	1.311	
217.00	-31.056	-12.626	
218.00	-31.278	-21.006	
219.00	-31.521	-32.801	
220.00	-31.744	-42.136	
221.00	-32.005	-55.343	
222.00	-32.252	-67.157	
223.00	-32.516	-77.958	
224.00	-32.764	-90.081	
225.00	-33.052	-100.494	
226.00	-33.319	-116.855	
227.00	-33.603	-128.677	
228.00	-33.868	-142.456	
229.00	-34.158	-154.435	
230.00	-34.449	-168.242	
231.00	-34.716	178.323	
232.00	-35.043	165.936	
233.00	-35.350	151.642	
234.00	-35.729	137.416	
235.00	-36.084	125.612	
236.00	-36.438	111.224	
237.00	-36.800	98.572	
238.00	-37.221	83.734	
239.00	-37.529	68.931	
240.00	-37.899	53.645	
241.00	-38.229	38.019	
242.00	-38.557	23.946	
243.00	-38.831	8.345	
244.00	-39.140	-7.670	
245.00	-39.458	-23.996	
246.00	-39.807	-36.697	
247.00	-40.140	-53.630	
248.00	-40.497	-68.873	
249.00	-40.812	-83.974	
250.00	-41.075	-100.372	
251.00	-41.493	-116.434	
252.00	-41.779	-131.565	
253.00	-42.015	-147.277	
254.00	-42.368	-162.121	
255.00	-42.783	-177.677	
256.00	-42.992	167.560	
257.00	-43.474	150.320	
258.00	-43.939	136.776	
259.00	-44.336	119.060	
260.00	-44.989	101.247	
261.00	-45.579	88.343	
262.00	-46.137	65.820	
263.00	-46.649	51.864	
264.00	-47.157	34.681	
265.00	-47.450	16.926	
266.00	-47.573	5.122	
267.00	-48.338	-14.662	
268.00	-48.533	-23.563	
269.00	-49.004	-44.884	
270.00	-49.446	-55.178	
271.00	-50.756	-72.713	
272.00	-51.787	-93.520	
273.00	-52.401	-108.670	
274.00	-54.306	-132.873	
275.00	-54.250	-152.608	
276.00	-55.266	-173.726	
277.00	-54.368	160.550	
278.00	-55.863	143.008	
279.00	-54.833	126.402	
280.00	-53.867	105.301	
281.00	-53.425	90.058	
282.00	-53.282	80.422	
283.00	-53.110	67.842	
284.00	-53.528	52.925	
285.00	-53.284	45.568	
286.00	-54.429	25.790	
287.00	-54.604	9.973	
288.00	-55.665	0.875	
289.00	-56.729	-14.341	
290.00	-58.029	-19.423	
291.00	-58.937	-30.580	
292.00	-60.154	-30.618	
293.00	-62.731	-50.425	
294.00	-67.491	-38.724	
295.00	-68.705	-54.432	
296.00	-72.089	-48.350	
297.00	-70.332	-6.946	
298.00	-71.357	20.305	
299.00	-67.240	7.662	
300.00	-64.499	-2.520	
301.00	-61.599	-1.330	
302.00	-61.265	-13.367	
303.00	-60.469	-21.578	
304.00	-59.293	-22.755	
305.00	-59.721	-35.049	
306.00	-60.359	-40.139	
307.00	-61.220	-47.288	
308.00	-62.351	-66.670	
309.00	-63.821	-75.613	
310.00	-65.372	-96.399	
311.00	-68.168	-138.757	
312.00	-68.194	176.194	
313.00	-63.291	157.394	
314.00	-61.056	146.262	
315.00	-57.813	124.013	
316.00	-56.757	112.297	
317.00	-55.630	107.240	
318.00	-54.012	105.554	
319.00	-53.234	99.799	
320.00	-52.872	91.834	
321.00	-52.953	93.334	
322.00	-52.643	83.111	
323.00	-53.276	80.221	
324.00	-53.294	70.474	
325.00	-53.870	67.781	
326.00	-54.041	59.303	
327.00	-55.154	54.050	
328.00	-55.644	44.248	
329.00	-57.126	42.541	
330.00	-59.376	28.617	
331.00	-61.633	14.637	
332.00	-62.191	1.556	
333.00	-64.187	-20.406	
334.00	-64.427	-45.380	
335.00	-63.041	-67.755	
336.00	-62.514	-81.738	
337.00	-61.197	-95.850	
338.00	-60.913	-104.130	
339.00	-60.427	-113.546	
340.00	-59.252	-119.954	
341.00	-59.143	-124.037	
342.00	-58.244	-134.647	
343.00	-57.603	-138.888	
344.00	-58.219	-143.059	
345.00	-57.370	-151.028	
346.00	-56.801	-154.549	
347.00	-56.198	-160.850	
348.00	-56.207	-167.521	
349.00	-55.040	-168.883	
350.00	-54.844	-176.815	
351.00	-54.070	-177.048	
352.00	-53.808	-178.925	
353.00	-53.678	177.918	
354.00	-53.153	178.015	
355.00	-53.422	173.794	
356.00	-53.604	170.056	
357.00	-53.417	171.457	
358.00	-53.753	171.157	
359.00	-54.171	170.569	
Frequency	1850.00	MHz	
Channel	test		
Scan Axis name	Azimuth  [deg]		
Scan Axis	Amplitude	Phase	
			
0.00	-60.884	-83.334	
1.00	-61.309	-85.532	
2.00	-61.745	-88.300	
3.00	-62.693	-89.539	
4.00	-63.575	-97.022	
5.00	-67.787	-90.946	
6.00	-70.810	-85.579	
7.00	-73.214	8.383	
8.00	-72.281	80.082	
9.00	-70.247	71.139	
10.00	-65.828	61.457	
11.00	-63.557	58.835	
12.00	-61.795	67.295	
13.00	-58.909	72.274	
14.00	-57.767	73.602	
15.00	-57.514	80.980	
16.00	-53.221	105.378	
17.00	-57.680	66.965	
18.00	-55.759	79.347	
19.00	-57.627	86.974	
20.00	-55.736	77.232	
21.00	-56.118	82.394	
22.00	-55.780	86.569	
23.00	-56.271	92.811	
24.00	-56.835	96.719	
25.00	-55.491	84.660	
26.00	-56.953	108.184	
27.00	-60.097	119.875	
28.00	-61.628	127.049	
29.00	-59.945	134.714	
30.00	-61.069	141.247	
31.00	-61.597	162.732	
32.00	-62.100	162.949	
33.00	-62.577	174.210	
34.00	-63.663	167.462	
35.00	-64.818	-168.981	
36.00	-67.078	-156.773	
37.00	-71.881	138.129	
38.00	-70.483	-132.751	
39.00	-72.802	164.219	
40.00	-73.440	-97.301	
41.00	-73.324	-65.253	
42.00	-75.444	-5.217	
43.00	-72.508	107.739	
44.00	-75.027	33.973	
45.00	-70.478	87.652	
46.00	-71.442	88.269	
47.00	-68.128	104.150	
48.00	-65.804	125.736	
49.00	-64.241	113.953	
50.00	-63.699	156.664	
51.00	-62.995	133.814	
52.00	-62.253	137.859	
53.00	-61.871	136.504	
54.00	-64.803	144.587	
55.00	-65.628	144.905	
56.00	-77.183	64.193	
57.00	-71.455	158.389	
58.00	-75.423	113.032	
59.00	-70.434	35.437	
60.00	-71.089	13.231	
61.00	-64.463	-26.799	
62.00	-68.358	50.028	
63.00	-63.650	37.705	
64.00	-63.007	38.079	
65.00	-62.295	50.536	
66.00	-61.393	56.456	
67.00	-60.988	64.186	
68.00	-60.074	78.188	
69.00	-59.308	120.388	
70.00	-59.472	110.555	
71.00	-58.394	126.861	
72.00	-57.997	133.947	
73.00	-57.187	139.420	
74.00	-54.590	152.932	
75.00	-56.935	170.186	
76.00	-56.489	-175.056	
77.00	-56.437	-161.168	
78.00	-56.332	-152.474	
79.00	-55.596	-125.915	
80.00	-56.386	-123.511	
81.00	-56.294	-106.350	
82.00	-55.859	-104.490	
83.00	-55.779	-78.478	
84.00	-54.924	-60.491	
85.00	-54.734	-52.369	
86.00	-53.872	-40.325	
87.00	-53.245	-27.797	
88.00	-53.296	-19.652	
89.00	-52.434	-6.252	
90.00	-52.417	-0.126	
91.00	-52.463	14.891	
92.00	-52.173	23.752	
93.00	-51.962	35.994	
94.00	-51.898	45.846	
95.00	-51.340	56.564	
96.00	-51.379	61.021	
97.00	-50.682	82.060	
98.00	-49.997	101.318	
99.00	-49.279	108.333	
100.00	-49.043	119.016	
101.00	-48.600	129.255	
102.00	-48.208	143.930	
103.00	-47.714	152.578	
104.00	-47.341	163.789	
105.00	-46.678	171.220	
106.00	-46.443	-177.079	
107.00	-46.073	-166.987	
108.00	-45.674	-157.725	
109.00	-45.289	-143.943	
110.00	-44.558	-132.266	
111.00	-44.020	-118.361	
112.00	-43.625	-109.580	
113.00	-43.299	-95.577	
114.00	-42.804	-84.108	
115.00	-42.433	-70.708	
116.00	-41.858	-59.192	
117.00	-41.434	-47.637	
118.00	-40.938	-36.082	
119.00	-40.422	-22.741	
120.00	-40.016	-12.352	
121.00	-39.588	-0.479	
122.00	-39.211	11.687	
123.00	-38.811	22.570	
124.00	-38.335	34.762	
125.00	-37.980	44.061	
126.00	-37.586	54.736	
127.00	-37.248	65.677	
128.00	-36.806	77.407	
129.00	-36.477	87.931	
130.00	-36.083	98.701	
131.00	-35.750	106.984	
132.00	-35.353	117.697	
133.00	-35.078	126.932	
134.00	-34.756	137.170	
135.00	-34.502	145.873	
136.00	-34.041	154.311	
137.00	-33.898	164.627	
138.00	-33.546	173.530	
139.00	-33.303	-176.895	
140.00	-32.984	-169.024	
141.00	-32.692	-160.698	
142.00	-32.360	-152.958	
143.00	-32.067	-144.245	
144.00	-31.797	-136.375	
145.00	-31.452	-129.321	
146.00	-31.120	-122.320	
147.00	-30.789	-114.987	
148.00	-30.481	-109.492	
149.00	-30.176	-104.144	
150.00	-29.876	-98.869	
151.00	-29.616	-93.537	
152.00	-29.320	-86.694	
153.00	-29.091	-82.185	
154.00	-28.850	-76.768	
155.00	-28.608	-72.446	
156.00	-28.406	-67.946	
157.00	-28.201	-64.792	
158.00	-27.991	-60.888	
159.00	-27.826	-57.796	
160.00	-27.664	-55.054	
161.00	-27.494	-52.111	
162.00	-27.333	-49.207	
163.00	-27.165	-46.301	
164.00	-27.021	-44.353	
165.00	-26.887	-42.670	
166.00	-26.747	-39.316	
167.00	-26.609	-38.330	
168.00	-26.480	-36.420	
169.00	-26.360	-37.557	
170.00	-26.246	-37.262	
171.00	-26.127	-35.711	
172.00	-26.016	-35.559	
173.00	-25.922	-34.150	
174.00	-25.833	-33.951	
175.00	-25.756	-34.861	
176.00	-25.686	-35.022	
177.00	-25.625	-36.847	
178.00	-25.578	-37.334	
179.00	-25.536	-40.687	
180.00	-25.503	-40.787	
181.00	-25.487	-44.310	
182.00	-25.475	-44.528	
183.00	-25.475	-49.862	
184.00	-25.481	-49.504	
185.00	-25.510	-57.142	
186.00	-25.528	-58.645	
187.00	-25.575	-66.761	
188.00	-25.604	-69.752	
189.00	-25.642	-78.362	
190.00	-25.677	-82.071	
191.00	-25.764	-86.348	
192.00	-25.820	-93.004	
193.00	-25.876	-97.393	
194.00	-25.946	-105.838	
195.00	-26.013	-109.324	
196.00	-26.088	-118.094	
197.00	-26.163	-122.634	
198.00	-26.240	-130.710	
199.00	-26.322	-138.260	
200.00	-26.409	-146.501	
201.00	-26.494	-150.789	
202.00	-26.578	-162.526	
203.00	-26.686	-168.005	
204.00	-26.783	-178.353	
205.00	-26.913	174.181	
206.00	-27.026	166.173	
207.00	-27.169	155.187	
208.00	-27.300	147.340	
209.00	-27.448	134.379	
210.00	-27.607	126.966	
211.00	-27.777	115.220	
212.00	-27.943	107.809	
213.00	-28.076	93.544	
214.00	-28.243	86.050	
215.00	-28.397	73.214	
216.00	-28.552	63.485	
217.00	-28.680	49.206	
218.00	-28.840	40.402	
219.00	-29.005	28.386	
220.00	-29.176	19.026	
221.00	-29.321	5.836	
222.00	-29.510	-6.198	
223.00	-29.706	-16.783	
224.00	-29.923	-28.692	
225.00	-30.165	-38.599	
226.00	-30.409	-54.969	
227.00	-30.691	-66.465	
228.00	-30.964	-79.818	
229.00	-31.291	-91.720	
230.00	-31.574	-105.422	
231.00	-31.916	-118.639	
232.00	-32.233	-131.267	
233.00	-32.575	-145.616	
234.00	-32.936	-159.671	
235.00	-33.287	-171.604	
236.00	-33.670	174.524	
237.00	-34.089	162.117	
238.00	-34.426	147.503	
239.00	-34.937	133.326	
240.00	-35.356	118.815	
241.00	-35.817	103.677	
242.00	-36.285	89.872	
243.00	-36.778	74.138	
244.00	-37.309	58.415	
245.00	-37.800	40.827	
246.00	-38.308	27.382	
247.00	-38.754	9.166	
248.00	-39.205	-7.058	
249.00	-39.613	-22.576	
250.00	-39.930	-39.711	
251.00	-40.232	-56.741	
252.00	-40.571	-72.193	
253.00	-40.965	-88.027	
254.00	-41.338	-102.393	
255.00	-41.799	-118.364	
256.00	-42.360	-132.743	
257.00	-43.054	-150.400	
258.00	-43.724	-165.066	
259.00	-44.504	175.010	
260.00	-45.200	154.986	
261.00	-45.968	138.007	
262.00	-46.316	115.894	
263.00	-46.674	97.646	
264.00	-47.001	79.568	
265.00	-47.205	60.803	
266.00	-47.644	49.154	
267.00	-48.093	27.173	
268.00	-48.604	16.834	
269.00	-49.216	-5.289	
270.00	-49.931	-20.108	
271.00	-50.195	-39.099	
272.00	-49.993	-58.423	
273.00	-50.919	-77.389	
274.00	-51.445	-97.253	
275.00	-51.781	-112.792	
276.00	-51.720	-131.539	
277.00	-51.814	-145.881	
278.00	-52.610	-164.595	
279.00	-52.774	-173.969	
280.00	-53.961	160.740	
281.00	-55.412	144.853	
282.00	-56.323	125.845	
283.00	-54.993	96.438	
284.00	-57.066	77.701	
285.00	-56.925	55.451	
286.00	-56.137	27.930	
287.00	-56.386	1.784	
288.00	-56.241	-15.608	
289.00	-56.195	-39.518	
290.00	-56.186	-68.526	
291.00	-55.653	-76.867	
292.00	-54.651	-94.480	
293.00	-54.380	-117.768	
294.00	-54.124	-135.916	
295.00	-53.338	-150.655	
296.00	-53.488	-166.200	
297.00	-52.313	-177.087	
298.00	-52.025	167.926	
299.00	-51.721	152.071	
300.00	-51.396	140.050	
301.00	-51.314	124.829	
302.00	-51.230	112.395	
303.00	-51.766	96.797	
304.00	-51.831	79.975	
305.00	-52.247	69.006	
306.00	-52.234	57.316	
307.00	-52.711	43.969	
308.00	-53.097	27.298	
309.00	-53.457	12.720	
310.00	-53.002	-6.560	
311.00	-53.890	-18.548	
312.00	-53.289	-39.184	
313.00	-53.449	-55.638	
314.00	-52.220	-66.897	
315.00	-52.420	-85.203	
316.00	-51.929	-97.375	
317.00	-51.032	-107.370	
318.00	-50.601	-115.669	
319.00	-50.356	-126.458	
320.00	-50.095	-134.344	
321.00	-49.973	-139.194	
322.00	-50.060	-150.985	
323.00	-49.990	-153.431	
324.00	-50.347	-162.486	
325.00	-50.925	-168.977	
326.00	-51.149	-173.725	
327.00	-51.432	-174.428	
328.00	-52.511	167.665	
329.00	-52.682	171.111	
330.00	-54.644	166.405	
331.00	-54.678	161.073	
332.00	-57.572	161.746	
333.00	-58.082	151.618	
334.00	-60.344	146.162	
335.00	-62.231	149.469	
336.00	-66.814	136.784	
337.00	-81.006	107.548	
338.00	-73.859	51.566	
339.00	-76.980	-47.147	
340.00	-70.751	-34.310	
341.00	-69.088	-28.541	
342.00	-68.903	-48.091	
343.00	-64.439	-41.776	
344.00	-61.752	-45.895	
345.00	-62.201	-51.258	
346.00	-62.301	-52.882	
347.00	-61.144	-63.613	
348.00	-60.748	-60.611	
349.00	-59.899	-60.431	
350.00	-58.962	-73.073	
351.00	-59.359	-66.124	
352.00	-58.969	-68.714	
353.00	-58.298	-72.677	
354.00	-58.088	-76.258	
355.00	-58.194	-77.453	
356.00	-58.406	-85.581	
357.00	-58.372	-85.990	
358.00	-58.715	-85.566	
359.00	-58.191	-91.412	
Frequency	1950.00	MHz	
Channel	test		
Scan Axis name	Azimuth  [deg]		
Scan Axis	Amplitude	Phase	
			
0.00	-64.870	-11.032	
1.00	-64.222	-21.757	
2.00	-66.227	-19.348	
3.00	-65.681	-16.490	
4.00	-69.024	-18.356	
5.00	-70.652	-28.744	
6.00	-72.960	-5.357	
7.00	-73.500	2.117	
8.00	-71.458	-23.389	
9.00	-69.808	7.436	
10.00	-70.520	11.646	
11.00	-67.261	33.463	
12.00	-66.865	31.099	
13.00	-65.325	40.007	
14.00	-62.137	67.139	
15.00	-63.832	30.914	
16.00	-63.956	42.545	
17.00	-60.555	47.668	
18.00	-58.330	47.081	
19.00	-58.410	26.889	
20.00	-58.785	24.566	
21.00	-59.729	34.521	
22.00	-59.811	26.719	
23.00	-60.127	18.204	
24.00	-60.752	11.395	
25.00	-60.356	-0.167	
26.00	-61.706	-5.574	
27.00	-62.189	-20.019	
28.00	-62.074	-28.846	
29.00	-60.997	-39.850	
30.00	-59.676	-39.230	
31.00	-59.105	-67.770	
32.00	-58.841	-65.484	
33.00	-58.385	-64.565	
34.00	-58.000	-66.401	
35.00	-57.191	-68.166	
36.00	-57.202	-66.976	
37.00	-56.454	-68.722	
38.00	-57.299	-61.223	
39.00	-57.978	-55.864	
40.00	-58.203	-51.197	
41.00	-59.143	-38.730	
42.00	-58.965	-29.286	
43.00	-60.197	-24.534	
44.00	-59.630	-5.747	
45.00	-59.901	5.722	
46.00	-60.239	21.477	
47.00	-60.380	29.894	
48.00	-59.306	46.634	
49.00	-60.500	55.476	
50.00	-58.940	64.054	
51.00	-61.377	71.712	
52.00	-60.727	89.540	
53.00	-61.733	97.244	
54.00	-63.085	117.159	
55.00	-63.001	139.539	
56.00	-64.670	-165.380	
57.00	-63.986	-155.154	
58.00	-62.103	-125.391	
59.00	-59.496	-120.765	
60.00	-58.097	-108.017	
61.00	-57.619	-99.225	
62.00	-56.750	-82.310	
63.00	-56.313	-79.782	
64.00	-55.776	-68.409	
65.00	-56.091	-57.216	
66.00	-55.564	-50.952	
67.00	-56.783	-39.467	
68.00	-56.212	-20.205	
69.00	-58.293	-1.984	
70.00	-57.284	14.974	
71.00	-57.521	35.319	
72.00	-56.768	51.139	
73.00	-56.517	73.041	
74.00	-56.308	85.696	
75.00	-56.441	100.934	
76.00	-57.501	115.801	
77.00	-57.074	132.080	
78.00	-56.852	140.205	
79.00	-57.940	165.572	
80.00	-57.425	166.344	
81.00	-60.384	-150.250	
82.00	-59.567	-133.890	
83.00	-58.550	-104.074	
84.00	-58.702	-86.554	
85.00	-58.657	-68.002	
86.00	-56.377	-46.810	
87.00	-57.610	-24.661	
88.00	-55.435	-7.211	
89.00	-54.363	12.345	
90.00	-53.266	27.865	
91.00	-52.406	41.341	
92.00	-51.241	59.688	
93.00	-50.946	73.220	
94.00	-50.175	85.371	
95.00	-50.031	101.372	
96.00	-48.661	107.752	
97.00	-48.268	126.759	
98.00	-48.298	148.491	
99.00	-48.388	157.304	
100.00	-48.635	176.990	
101.00	-48.538	-170.531	
102.00	-48.367	-153.342	
103.00	-48.598	-138.774	
104.00	-48.234	-118.440	
105.00	-47.905	-103.315	
106.00	-47.419	-86.603	
107.00	-47.146	-69.894	
108.00	-46.597	-50.651	
109.00	-45.930	-35.896	
110.00	-45.534	-20.814	
111.00	-44.929	-3.641	
112.00	-44.389	8.967	
113.00	-43.786	27.993	
114.00	-43.140	42.309	
115.00	-42.658	56.890	
116.00	-42.048	71.341	
117.00	-41.423	85.958	
118.00	-40.930	98.893	
119.00	-40.322	115.208	
120.00	-39.798	127.213	
121.00	-39.050	139.532	
122.00	-38.517	153.396	
123.00	-38.162	164.677	
124.00	-37.661	177.979	
125.00	-37.285	-171.632	
126.00	-36.779	-160.106	
127.00	-36.411	-149.319	
128.00	-36.145	-136.743	
129.00	-35.780	-125.674	
130.00	-35.380	-113.868	
131.00	-35.116	-103.714	
132.00	-34.832	-92.119	
133.00	-34.569	-82.691	
134.00	-34.175	-70.938	
135.00	-33.806	-60.889	
136.00	-33.511	-50.788	
137.00	-33.019	-41.421	
138.00	-32.872	-32.260	
139.00	-32.433	-21.511	
140.00	-32.103	-14.338	
141.00	-31.712	-5.514	
142.00	-31.403	2.401	
143.00	-31.123	11.450	
144.00	-30.756	17.978	
145.00	-30.520	25.590	
146.00	-30.232	32.425	
147.00	-29.973	39.790	
148.00	-29.656	45.597	
149.00	-29.480	51.220	
150.00	-29.254	56.854	
151.00	-29.085	61.935	
152.00	-28.766	70.054	
153.00	-28.513	74.363	
154.00	-28.288	80.800	
155.00	-28.055	85.587	
156.00	-27.866	90.260	
157.00	-27.666	93.849	
158.00	-27.423	98.140	
159.00	-27.226	101.636	
160.00	-27.067	104.163	
161.00	-26.835	107.592	
162.00	-26.654	110.438	
163.00	-26.482	113.539	
164.00	-26.273	115.643	
165.00	-26.188	117.450	
166.00	-26.070	120.603	
167.00	-25.917	121.510	
168.00	-25.811	123.500	
169.00	-25.714	122.280	
170.00	-25.624	122.520	
171.00	-25.536	124.216	
172.00	-25.490	124.268	
173.00	-25.422	125.674	
174.00	-25.367	126.274	
175.00	-25.334	125.254	
176.00	-25.304	125.169	
177.00	-25.283	123.313	
178.00	-25.283	123.007	
179.00	-25.255	119.659	
180.00	-25.258	119.589	
181.00	-25.276	115.808	
182.00	-25.292	115.898	
183.00	-25.306	110.195	
184.00	-25.351	110.693	
185.00	-25.387	102.734	
186.00	-25.425	101.135	
187.00	-25.480	92.790	
188.00	-25.550	89.735	
189.00	-25.625	80.750	
190.00	-25.670	76.797	
191.00	-25.811	72.623	
192.00	-25.864	65.557	
193.00	-25.944	61.233	
194.00	-26.038	52.347	
195.00	-26.136	48.774	
196.00	-26.249	39.544	
197.00	-26.383	35.045	
198.00	-26.508	26.412	
199.00	-26.628	18.524	
200.00	-26.766	9.947	
201.00	-26.903	5.209	
202.00	-27.047	-6.914	
203.00	-27.202	-13.054	
204.00	-27.326	-23.741	
205.00	-27.510	-31.904	
206.00	-27.656	-40.231	
207.00	-27.830	-52.057	
208.00	-27.968	-60.133	
209.00	-28.164	-73.830	
210.00	-28.324	-81.550	
211.00	-28.526	-93.748	
212.00	-28.715	-101.346	
213.00	-28.912	-116.228	
214.00	-29.139	-124.108	
215.00	-29.327	-137.350	
216.00	-29.549	-147.516	
217.00	-29.754	-161.971	
218.00	-29.971	-171.374	
219.00	-30.195	176.191	
220.00	-30.446	166.192	
221.00	-30.708	152.764	
222.00	-30.998	139.998	
223.00	-31.303	128.790	
224.00	-31.639	116.177	
225.00	-31.978	105.733	
226.00	-32.359	88.426	
227.00	-32.748	76.108	
228.00	-33.155	61.845	
229.00	-33.567	48.768	
230.00	-34.008	34.433	
231.00	-34.437	19.736	
232.00	-34.863	6.493	
233.00	-35.348	-9.270	
234.00	-35.823	-24.598	
235.00	-36.303	-37.435	
236.00	-36.737	-52.355	
237.00	-37.267	-66.644	
238.00	-37.701	-82.760	
239.00	-38.301	-98.611	
240.00	-38.711	-114.608	
241.00	-39.202	-131.242	
242.00	-39.708	-145.914	
243.00	-40.225	-163.146	
244.00	-40.758	-179.702	
245.00	-41.220	162.286	
246.00	-42.054	147.173	
247.00	-42.505	129.128	
248.00	-42.872	111.967	
249.00	-43.470	94.432	
250.00	-43.823	77.638	
251.00	-44.208	58.626	
252.00	-44.729	41.620	
253.00	-45.003	25.300	
254.00	-45.260	9.353	
255.00	-45.645	-8.059	
256.00	-46.508	-18.855	
257.00	-47.005	-38.704	
258.00	-48.052	-52.587	
259.00	-48.972	-71.865	
260.00	-50.517	-94.626	
261.00	-51.340	-109.973	
262.00	-51.431	-135.850	
263.00	-52.416	-157.289	
264.00	-52.289	-175.348	
265.00	-52.191	164.926	
266.00	-53.169	151.941	
267.00	-52.583	129.698	
268.00	-52.995	123.099	
269.00	-53.984	100.928	
270.00	-53.826	89.513	
271.00	-55.471	76.669	
272.00	-56.354	59.324	
273.00	-57.979	54.904	
274.00	-60.269	35.383	
275.00	-60.478	13.026	
276.00	-63.761	4.243	
277.00	-65.194	-13.472	
278.00	-71.632	-64.800	
279.00	-74.321	-85.293	
280.00	-73.903	-158.553	
281.00	-68.855	171.262	
282.00	-69.290	145.291	
283.00	-65.863	128.522	
284.00	-63.133	117.877	
285.00	-64.028	86.427	
286.00	-63.167	82.647	
287.00	-64.554	70.642	
288.00	-65.443	53.521	
289.00	-65.776	38.863	
290.00	-69.181	10.216	
291.00	-70.434	-49.617	
292.00	-71.621	-77.940	
293.00	-68.142	-107.945	
294.00	-64.822	-134.764	
295.00	-61.066	-132.307	
296.00	-57.946	-144.496	
297.00	-57.274	-156.710	
298.00	-56.305	177.339	
299.00	-56.423	-165.311	
300.00	-55.735	-178.717	
301.00	-56.450	170.944	
302.00	-56.171	165.872	
303.00	-56.917	157.950	
304.00	-59.046	149.477	
305.00	-58.765	132.053	
306.00	-60.885	115.523	
307.00	-62.340	95.059	
308.00	-62.541	76.048	
309.00	-64.258	53.068	
310.00	-64.012	27.896	
311.00	-62.468	4.324	
312.00	-59.713	-19.978	
313.00	-62.383	-32.231	
314.00	-59.457	-50.364	
315.00	-59.966	-73.186	
316.00	-59.852	-70.364	
317.00	-61.680	-88.234	
318.00	-60.256	-100.255	
319.00	-60.404	-113.742	
320.00	-59.436	-123.712	
321.00	-60.179	-134.051	
322.00	-60.377	-149.658	
323.00	-61.665	-168.294	
324.00	-59.804	-170.355	
325.00	-59.780	177.855	
326.00	-60.141	172.429	
327.00	-61.886	157.206	
328.00	-62.250	150.388	
329.00	-63.044	142.903	
330.00	-63.865	134.425	
331.00	-65.134	88.597	
332.00	-64.964	105.442	
333.00	-65.910	100.306	
334.00	-66.079	93.526	
335.00	-69.035	78.125	
336.00	-68.726	64.033	
337.00	-71.305	37.667	
338.00	-71.783	42.097	
339.00	-69.429	25.246	
340.00	-69.981	14.160	
341.00	-74.985	5.549	
342.00	-75.068	10.049	
343.00	-69.065	12.130	
344.00	-68.369	31.063	
345.00	-69.742	27.888	
346.00	-71.522	15.801	
347.00	-72.015	8.138	
348.00	-67.365	24.195	
349.00	-65.846	22.161	
350.00	-64.249	27.593	
351.00	-63.732	13.043	
352.00	-63.609	22.482	
353.00	-65.742	17.709	
354.00	-63.252	17.254	
355.00	-64.199	19.225	
356.00	-64.991	12.105	
357.00	-63.971	6.194	
358.00	-65.485	6.998	
359.00	-65.580	-7.117	
Frequency	2050.00	MHz	
Channel	test		
Scan Axis name	Azimuth  [deg]		
Scan Axis	Amplitude	Phase	
			
0.00	-62.068	-12.651	
1.00	-60.826	-4.474	
2.00	-61.936	-15.781	
3.00	-60.139	-18.365	
4.00	-60.187	-18.475	
5.00	-60.649	-23.186	
6.00	-60.098	-18.909	
7.00	-60.558	-24.693	
8.00	-60.699	-23.788	
9.00	-60.546	-24.538	
10.00	-61.749	-25.573	
11.00	-62.118	-25.259	
12.00	-63.193	-29.204	
13.00	-66.714	-29.329	
14.00	-66.305	-23.014	
15.00	-64.991	-20.170	
16.00	-64.789	-21.341	
17.00	-64.348	0.713	
18.00	-65.698	-33.398	
19.00	-66.239	-39.111	
20.00	-72.896	-39.361	
21.00	-67.805	-36.199	
22.00	-67.898	-39.190	
23.00	-68.393	-51.754	
24.00	-70.909	-56.051	
25.00	-67.982	-73.535	
26.00	-65.542	-88.306	
27.00	-67.052	-88.608	
28.00	-67.758	-104.586	
29.00	-65.944	-108.128	
30.00	-66.628	-113.325	
31.00	-66.657	-124.340	
32.00	-65.316	-144.256	
33.00	-66.557	-138.637	
34.00	-65.977	-138.346	
35.00	-64.692	-142.584	
36.00	-65.808	-155.837	
37.00	-65.130	-150.527	
38.00	-66.042	-151.541	
39.00	-65.393	-168.916	
40.00	-66.097	-175.046	
41.00	-64.244	-170.577	
42.00	-65.456	-172.151	
43.00	-66.493	-166.645	
44.00	-65.601	-173.081	
45.00	-66.083	-161.297	
46.00	-65.969	-170.874	
47.00	-65.731	-170.965	
48.00	-66.554	-176.283	
49.00	-66.593	-160.280	
50.00	-63.241	-170.543	
51.00	-68.203	-165.244	
52.00	-69.004	-166.569	
53.00	-69.121	-167.542	
54.00	-72.488	-138.398	
55.00	-76.207	-136.092	
56.00	-60.726	165.058	
57.00	-79.128	-154.998	
58.00	-64.470	-1.660	
59.00	-77.507	-167.802	
60.00	-80.692	75.348	
61.00	-76.907	68.555	
62.00	-76.394	120.261	
63.00	-73.224	105.911	
64.00	-72.561	122.642	
65.00	-68.708	168.247	
66.00	-68.341	-172.835	
67.00	-68.594	166.823	
68.00	-63.131	-177.369	
69.00	-62.492	-150.467	
70.00	-62.998	177.477	
71.00	-59.260	-119.256	
72.00	-60.812	-112.856	
73.00	-58.173	-103.476	
74.00	-57.679	-86.809	
75.00	-57.478	-79.098	
76.00	-56.875	-76.898	
77.00	-56.324	-59.294	
78.00	-56.657	-46.297	
79.00	-56.139	-28.765	
80.00	-56.504	-23.422	
81.00	-56.366	-7.429	
82.00	-56.602	0.896	
83.00	-56.964	16.549	
84.00	-57.088	35.250	
85.00	-57.198	49.980	
86.00	-58.220	78.428	
87.00	-57.683	89.906	
88.00	-56.561	106.981	
89.00	-55.915	126.447	
90.00	-55.170	142.304	
91.00	-54.975	155.191	
92.00	-55.294	171.160	
93.00	-53.278	-176.952	
94.00	-54.113	-164.900	
95.00	-54.159	-146.539	
96.00	-54.259	-132.997	
97.00	-54.386	-107.353	
98.00	-53.181	-79.322	
99.00	-52.812	-68.431	
100.00	-51.492	-42.907	
101.00	-50.600	-30.466	
102.00	-50.385	-20.926	
103.00	-49.323	1.906	
104.00	-49.014	18.295	
105.00	-48.866	30.872	
106.00	-47.742	47.210	
107.00	-47.557	62.862	
108.00	-47.080	79.540	
109.00	-46.213	95.491	
110.00	-45.604	109.455	
111.00	-44.933	127.582	
112.00	-44.309	140.199	
113.00	-43.721	158.919	
114.00	-42.621	171.610	
115.00	-42.303	-172.065	
116.00	-41.935	-159.134	
117.00	-41.363	-142.908	
118.00	-40.625	-130.462	
119.00	-40.128	-114.563	
120.00	-39.592	-101.781	
121.00	-39.132	-88.111	
122.00	-38.623	-74.700	
123.00	-38.173	-61.811	
124.00	-37.629	-46.419	
125.00	-37.261	-36.538	
126.00	-36.817	-22.681	
127.00	-36.299	-10.555	
128.00	-36.055	2.242	
129.00	-35.470	15.289	
130.00	-35.360	26.859	
131.00	-34.921	37.440	
132.00	-34.724	50.696	
133.00	-34.294	61.253	
134.00	-33.945	73.508	
135.00	-33.712	83.522	
136.00	-33.252	93.691	
137.00	-32.691	104.751	
138.00	-32.638	116.902	
139.00	-32.153	124.932	
140.00	-31.914	134.065	
141.00	-31.635	142.699	
142.00	-31.266	151.314	
143.00	-31.021	160.421	
144.00	-30.754	168.229	
145.00	-30.524	176.216	
146.00	-30.272	-176.400	
147.00	-30.053	-168.529	
148.00	-29.873	-162.261	
149.00	-29.677	-156.007	
150.00	-29.474	-149.317	
151.00	-29.298	-144.017	
152.00	-29.078	-135.393	
153.00	-28.845	-130.406	
154.00	-28.627	-124.011	
155.00	-28.422	-118.981	
156.00	-28.166	-113.926	
157.00	-27.941	-109.934	
158.00	-27.718	-105.742	
159.00	-27.519	-102.047	
160.00	-27.321	-99.224	
161.00	-27.106	-95.810	
162.00	-26.943	-93.171	
163.00	-26.748	-90.081	
164.00	-26.573	-88.029	
165.00	-26.452	-86.465	
166.00	-26.272	-82.791	
167.00	-26.131	-82.149	
168.00	-26.014	-80.115	
169.00	-25.893	-81.517	
170.00	-25.754	-81.396	
171.00	-25.689	-79.580	
172.00	-25.591	-79.664	
173.00	-25.505	-78.335	
174.00	-25.458	-77.872	
175.00	-25.404	-78.942	
176.00	-25.361	-79.175	
177.00	-25.345	-81.218	
178.00	-25.316	-81.419	
179.00	-25.338	-85.072	
180.00	-25.338	-85.024	
181.00	-25.366	-88.857	
182.00	-25.388	-88.821	
183.00	-25.426	-94.864	
184.00	-25.479	-94.073	
185.00	-25.544	-102.720	
186.00	-25.604	-104.130	
187.00	-25.662	-113.145	
188.00	-25.732	-116.355	
189.00	-25.823	-125.763	
190.00	-25.904	-129.862	
191.00	-25.983	-134.768	
192.00	-26.082	-142.353	
193.00	-26.192	-146.724	
194.00	-26.280	-156.149	
195.00	-26.398	-160.153	
196.00	-26.514	-169.747	
197.00	-26.621	-174.662	
198.00	-26.733	176.401	
199.00	-26.865	168.083	
200.00	-27.006	159.017	
201.00	-27.142	154.012	
202.00	-27.310	141.371	
203.00	-27.439	134.896	
204.00	-27.597	123.678	
205.00	-27.756	115.112	
206.00	-27.955	106.635	
207.00	-28.139	94.190	
208.00	-28.325	85.787	
209.00	-28.529	71.458	
210.00	-28.735	63.343	
211.00	-28.979	50.717	
212.00	-29.212	42.625	
213.00	-29.458	27.137	
214.00	-29.710	18.649	
215.00	-29.960	4.849	
216.00	-30.228	-5.968	
217.00	-30.486	-21.198	
218.00	-30.763	-31.369	
219.00	-31.036	-44.891	
220.00	-31.304	-55.632	
221.00	-31.570	-69.876	
222.00	-31.873	-83.538	
223.00	-32.193	-95.556	
224.00	-32.502	-108.923	
225.00	-32.864	-119.958	
226.00	-33.255	-137.905	
227.00	-33.648	-151.073	
228.00	-34.090	-165.776	
229.00	-34.535	-179.365	
230.00	-35.033	165.504	
231.00	-35.546	149.918	
232.00	-36.025	135.907	
233.00	-36.530	119.142	
234.00	-36.978	103.117	
235.00	-37.461	89.449	
236.00	-37.959	73.021	
237.00	-38.460	58.482	
238.00	-38.947	42.400	
239.00	-39.415	25.874	
240.00	-39.954	9.457	
241.00	-40.408	-7.633	
242.00	-40.921	-22.677	
243.00	-41.419	-39.779	
244.00	-41.946	-56.069	
245.00	-42.529	-74.806	
246.00	-43.087	-88.421	
247.00	-43.779	-105.845	
248.00	-44.468	-122.079	
249.00	-45.244	-137.177	
250.00	-46.107	-155.830	
251.00	-47.089	-173.666	
252.00	-48.101	169.280	
253.00	-48.776	150.106	
254.00	-49.461	132.338	
255.00	-50.000	113.519	
256.00	-51.295	93.412	
257.00	-51.118	75.490	
258.00	-51.670	59.826	
259.00	-52.652	43.636	
260.00	-53.465	26.328	
261.00	-54.279	11.469	
262.00	-55.940	-9.046	
263.00	-56.482	-23.290	
264.00	-57.585	-40.664	
265.00	-59.122	-64.316	
266.00	-59.762	-73.380	
267.00	-60.544	-94.324	
268.00	-61.490	-95.323	
269.00	-63.411	-111.933	
270.00	-62.707	-111.238	
271.00	-63.697	-119.428	
272.00	-65.060	-122.381	
273.00	-67.055	-115.485	
274.00	-66.973	-111.156	
275.00	-69.244	-100.946	
276.00	-67.375	-97.075	
277.00	-66.292	-75.989	
278.00	-67.847	-88.563	
279.00	-67.328	-86.735	
280.00	-67.300	-87.062	
281.00	-67.313	-79.994	
282.00	-66.823	-79.830	
283.00	-65.724	-83.421	
284.00	-66.170	-76.231	
285.00	-64.666	-86.290	
286.00	-62.485	-86.215	
287.00	-60.775	-95.624	
288.00	-59.752	-99.069	
289.00	-59.343	-112.114	
290.00	-58.676	-113.520	
291.00	-58.152	-113.566	
292.00	-57.917	-124.033	
293.00	-57.651	-127.288	
294.00	-56.312	-115.656	
295.00	-57.224	-128.390	
296.00	-57.720	-137.874	
297.00	-58.390	-126.200	
298.00	-60.697	-140.593	
299.00	-59.936	-161.071	
300.00	-61.134	-146.081	
301.00	-62.608	-152.990	
302.00	-64.721	-135.830	
303.00	-67.305	-106.018	
304.00	-67.113	-94.155	
305.00	-64.583	-69.785	
306.00	-63.513	-60.028	
307.00	-60.288	-74.524	
308.00	-58.823	-65.249	
309.00	-57.337	-71.174	
310.00	-55.873	-74.919	
311.00	-55.792	-81.954	
312.00	-54.764	-85.109	
313.00	-54.755	-89.421	
314.00	-54.469	-101.782	
315.00	-54.810	-105.838	
316.00	-54.281	-115.279	
317.00	-56.063	-117.645	
318.00	-55.624	-122.220	
319.00	-56.157	-129.010	
320.00	-57.846	-140.729	
321.00	-57.412	-143.367	
322.00	-58.948	-162.356	
323.00	-57.561	-167.443	
324.00	-59.064	177.921	
325.00	-60.545	170.004	
326.00	-60.186	160.454	
327.00	-60.731	151.725	
328.00	-61.950	143.608	
329.00	-61.871	140.540	
330.00	-61.778	135.722	
331.00	-64.103	130.930	
332.00	-66.602	137.342	
333.00	-66.513	142.953	
334.00	-69.149	150.725	
335.00	-69.340	156.319	
336.00	-73.780	-179.612	
337.00	-70.758	-179.779	
338.00	-65.707	-159.523	
339.00	-64.282	-159.045	
340.00	-65.813	-168.724	
341.00	-63.362	-155.553	
342.00	-62.497	-158.846	
343.00	-61.921	-168.561	
344.00	-62.950	-158.501	
345.00	-61.046	-165.663	
346.00	-62.522	-171.343	
347.00	-62.840	-176.678	
348.00	-62.675	-176.871	
349.00	-64.969	-175.566	
350.00	-67.358	-178.283	
351.00	-67.501	167.132	
352.00	-69.601	146.467	
353.00	-74.285	122.120	
354.00	-87.247	107.395	
355.00	-75.637	28.441	
356.00	-71.845	19.602	
357.00	-66.105	9.300	
358.00	-65.112	3.222	
359.00	-65.198	-8.164	
Frequency	2170.00	MHz	
Channel	test		
Scan Axis name	Azimuth  [deg]		
Scan Axis	Amplitude	Phase	
			
0.00	-57.179	12.747	
1.00	-58.669	14.284	
2.00	-58.882	26.429	
3.00	-59.421	26.494	
4.00	-60.923	33.389	
5.00	-61.473	44.878	
6.00	-60.236	65.375	
7.00	-62.402	49.424	
8.00	-64.332	62.857	
9.00	-66.616	57.985	
10.00	-73.588	85.535	
11.00	-74.233	145.474	
12.00	-73.597	137.446	
13.00	-65.579	174.089	
14.00	-65.010	-141.469	
15.00	-65.367	-142.930	
16.00	-63.320	-142.446	
17.00	-59.567	-146.815	
18.00	-60.125	-124.940	
19.00	-58.922	-121.271	
20.00	-57.309	-121.323	
21.00	-56.549	-120.967	
22.00	-56.692	-115.225	
23.00	-56.670	-108.841	
24.00	-56.149	-102.403	
25.00	-56.464	-101.385	
26.00	-57.118	-92.079	
27.00	-58.012	-84.644	
28.00	-58.025	-84.149	
29.00	-59.639	-73.056	
30.00	-61.383	-63.876	
31.00	-61.910	-42.943	
32.00	-62.142	-29.349	
33.00	-64.564	5.324	
34.00	-62.571	23.615	
35.00	-61.800	55.106	
36.00	-61.307	62.212	
37.00	-59.894	79.311	
38.00	-58.971	92.847	
39.00	-58.150	101.996	
40.00	-57.402	109.175	
41.00	-57.092	121.776	
42.00	-56.235	130.917	
43.00	-56.514	135.097	
44.00	-56.398	149.441	
45.00	-55.946	159.327	
46.00	-56.156	169.606	
47.00	-56.217	-179.620	
48.00	-56.512	-169.631	
49.00	-57.393	-161.667	
50.00	-59.086	-148.667	
51.00	-58.367	-136.877	
52.00	-60.318	-117.836	
53.00	-62.178	-115.311	
54.00	-63.333	-84.609	
55.00	-66.728	-74.542	
56.00	-73.843	-51.420	
57.00	-67.792	-4.087	
58.00	-68.791	21.452	
59.00	-65.579	36.674	
60.00	-65.682	63.730	
61.00	-64.881	72.059	
62.00	-64.770	91.094	
63.00	-64.895	96.729	
64.00	-64.220	119.147	
65.00	-64.709	120.637	
66.00	-66.247	130.019	
67.00	-68.889	127.055	
68.00	-72.869	119.358	
69.00	-76.768	107.159	
70.00	-75.974	20.815	
71.00	-68.781	-0.441	
72.00	-65.059	22.464	
73.00	-62.907	38.423	
74.00	-61.043	41.698	
75.00	-60.579	64.081	
76.00	-59.906	64.024	
77.00	-58.956	86.072	
78.00	-60.236	101.238	
79.00	-58.280	118.386	
80.00	-56.801	136.335	
81.00	-57.477	152.414	
82.00	-56.997	160.134	
83.00	-55.890	175.630	
84.00	-56.062	-172.338	
85.00	-54.819	-156.534	
86.00	-55.371	-142.916	
87.00	-56.643	-129.167	
88.00	-56.311	-122.976	
89.00	-57.380	-106.225	
90.00	-57.638	-98.277	
91.00	-59.111	-82.428	
92.00	-59.261	-77.026	
93.00	-62.639	-50.907	
94.00	-62.481	-47.501	
95.00	-61.965	-19.154	
96.00	-62.092	10.297	
97.00	-59.874	16.257	
98.00	-61.616	29.331	
99.00	-58.232	38.140	
100.00	-58.225	59.297	
101.00	-57.092	65.774	
102.00	-57.455	73.328	
103.00	-56.016	86.937	
104.00	-54.147	106.322	
105.00	-53.235	115.690	
106.00	-51.986	128.765	
107.00	-50.636	146.472	
108.00	-49.390	156.208	
109.00	-48.527	172.548	
110.00	-47.638	-178.460	
111.00	-46.476	-161.444	
112.00	-46.011	-149.855	
113.00	-45.652	-133.496	
114.00	-44.792	-121.436	
115.00	-44.346	-105.027	
116.00	-43.724	-89.148	
117.00	-43.173	-73.059	
118.00	-42.667	-57.960	
119.00	-41.951	-39.308	
120.00	-41.243	-26.194	
121.00	-40.743	-11.314	
122.00	-40.260	4.825	
123.00	-39.480	18.101	
124.00	-38.864	35.044	
125.00	-38.373	47.024	
126.00	-37.781	62.220	
127.00	-37.154	75.323	
128.00	-36.580	91.224	
129.00	-36.001	103.454	
130.00	-35.429	117.229	
131.00	-34.993	127.705	
132.00	-34.440	141.010	
133.00	-33.912	152.660	
134.00	-33.498	164.607	
135.00	-33.059	175.059	
136.00	-32.718	-175.060	
137.00	-32.317	-163.379	
138.00	-32.057	-152.842	
139.00	-31.827	-141.251	
140.00	-31.624	-131.554	
141.00	-31.364	-122.134	
142.00	-31.142	-111.820	
143.00	-30.898	-101.251	
144.00	-30.664	-91.399	
145.00	-30.442	-82.235	
146.00	-30.163	-73.270	
147.00	-29.909	-63.915	
148.00	-29.627	-56.556	
149.00	-29.331	-49.550	
150.00	-29.092	-42.157	
151.00	-28.812	-35.817	
152.00	-28.597	-27.075	
153.00	-28.380	-21.634	
154.00	-28.163	-14.989	
155.00	-27.963	-9.293	
156.00	-27.792	-3.723	
157.00	-27.621	0.210	
158.00	-27.500	4.987	
159.00	-27.322	8.804	
160.00	-27.187	12.247	
161.00	-27.068	15.762	
162.00	-26.909	19.276	
163.00	-26.800	22.882	
164.00	-26.663	25.352	
165.00	-26.536	27.272	
166.00	-26.427	31.352	
167.00	-26.311	32.425	
168.00	-26.176	34.785	
169.00	-26.067	33.512	
170.00	-25.979	33.695	
171.00	-25.889	35.688	
172.00	-25.792	35.744	
173.00	-25.711	37.434	
174.00	-25.637	38.126	
175.00	-25.580	36.793	
176.00	-25.533	36.683	
177.00	-25.502	34.543	
178.00	-25.481	34.262	
179.00	-25.470	30.682	
180.00	-25.470	30.791	
181.00	-25.508	26.460	
182.00	-25.531	26.872	
183.00	-25.590	20.565	
184.00	-25.626	21.642	
185.00	-25.722	12.456	
186.00	-25.804	11.113	
187.00	-25.909	1.688	
188.00	-26.015	-1.560	
189.00	-26.133	-11.538	
190.00	-26.273	-15.910	
191.00	-26.377	-20.629	
192.00	-26.555	-28.886	
193.00	-26.672	-33.424	
194.00	-26.818	-43.700	
195.00	-26.971	-48.040	
196.00	-27.107	-58.353	
197.00	-27.235	-63.773	
198.00	-27.378	-73.612	
199.00	-27.531	-82.504	
200.00	-27.645	-92.446	
201.00	-27.787	-97.868	
202.00	-27.915	-111.507	
203.00	-28.073	-118.404	
204.00	-28.226	-130.131	
205.00	-28.371	-139.593	
206.00	-28.532	-148.368	
207.00	-28.704	-161.764	
208.00	-28.889	-170.512	
209.00	-29.084	174.328	
210.00	-29.290	165.903	
211.00	-29.492	152.378	
212.00	-29.709	144.017	
213.00	-29.956	127.897	
214.00	-30.199	119.015	
215.00	-30.430	104.847	
216.00	-30.716	93.579	
217.00	-31.002	78.192	
218.00	-31.324	67.571	
219.00	-31.659	53.793	
220.00	-31.999	42.488	
221.00	-32.333	27.958	
222.00	-32.764	13.170	
223.00	-33.172	0.588	
224.00	-33.532	-13.728	
225.00	-33.989	-25.984	
226.00	-34.393	-45.553	
227.00	-34.766	-59.784	
228.00	-35.201	-75.159	
229.00	-35.679	-89.787	
230.00	-36.073	-104.815	
231.00	-36.511	-120.847	
232.00	-37.003	-134.747	
233.00	-37.658	-151.731	
234.00	-38.265	-167.886	
235.00	-38.975	177.955	
236.00	-39.562	162.014	
237.00	-40.432	146.409	
238.00	-41.061	129.686	
239.00	-41.743	111.535	
240.00	-42.528	93.324	
241.00	-43.152	75.941	
242.00	-43.754	60.552	
243.00	-44.580	41.963	
244.00	-45.466	23.223	
245.00	-46.203	3.515	
246.00	-47.309	-12.593	
247.00	-48.381	-31.746	
248.00	-49.417	-52.663	
249.00	-50.200	-69.629	
250.00	-51.596	-95.042	
251.00	-51.612	-124.241	
252.00	-51.288	-145.375	
253.00	-51.183	-163.641	
254.00	-51.796	-176.513	
255.00	-51.082	161.771	
256.00	-51.988	153.380	
257.00	-52.778	134.985	
258.00	-53.343	126.737	
259.00	-54.723	115.800	
260.00	-56.389	100.313	
261.00	-58.173	92.021	
262.00	-59.568	81.642	
263.00	-64.363	63.923	
264.00	-66.114	37.189	
265.00	-69.231	-6.334	
266.00	-67.409	-2.898	
267.00	-63.309	-51.866	
268.00	-62.197	-51.835	
269.00	-61.266	-60.901	
270.00	-61.244	-66.401	
271.00	-60.441	-71.762	
272.00	-59.801	-86.848	
273.00	-59.273	-87.590	
274.00	-59.199	-99.003	
275.00	-59.652	-111.496	
276.00	-61.342	-118.023	
277.00	-60.705	-136.048	
278.00	-61.025	-152.010	
279.00	-62.240	-177.090	
280.00	-61.336	167.437	
281.00	-61.906	155.132	
282.00	-61.599	142.576	
283.00	-60.940	116.912	
284.00	-59.169	109.423	
285.00	-59.884	98.642	
286.00	-59.881	79.844	
287.00	-59.031	71.635	
288.00	-59.887	68.759	
289.00	-61.772	53.231	
290.00	-61.242	51.043	
291.00	-62.251	53.779	
292.00	-64.397	45.990	
293.00	-66.018	34.961	
294.00	-63.925	23.809	
295.00	-64.314	38.606	
296.00	-72.575	-15.710	
297.00	-70.189	2.813	
298.00	-71.258	0.028	
299.00	-71.458	99.884	
300.00	-75.682	-19.496	
301.00	-77.723	64.065	
302.00	-86.765	-46.419	
303.00	-75.868	139.966	
304.00	-70.986	129.486	
305.00	-70.262	156.429	
306.00	-65.593	140.046	
307.00	-63.325	148.941	
308.00	-62.157	143.075	
309.00	-61.446	142.880	
310.00	-59.452	140.680	
311.00	-59.051	130.857	
312.00	-58.041	124.469	
313.00	-57.827	123.500	
314.00	-57.570	113.325	
315.00	-57.685	108.765	
316.00	-57.340	100.237	
317.00	-57.365	95.896	
318.00	-57.987	92.905	
319.00	-58.210	86.947	
320.00	-59.003	76.635	
321.00	-59.136	71.177	
322.00	-60.132	61.277	
323.00	-60.785	54.587	
324.00	-61.854	42.926	
325.00	-63.668	41.131	
326.00	-62.498	17.983	
327.00	-66.460	18.329	
328.00	-68.721	-8.085	
329.00	-70.140	-30.261	
330.00	-71.682	-46.638	
331.00	-65.457	-74.892	
332.00	-70.025	-90.693	
333.00	-72.416	-99.167	
334.00	-69.016	-119.655	
335.00	-67.288	-147.273	
336.00	-65.255	170.244	
337.00	-77.983	-171.765	
338.00	-70.866	152.907	
339.00	-72.046	139.998	
340.00	-68.397	119.275	
341.00	-67.322	111.261	
342.00	-66.577	88.358	
343.00	-63.521	60.137	
344.00	-62.165	68.627	
345.00	-63.404	40.150	
346.00	-63.422	41.123	
347.00	-61.710	27.657	
348.00	-60.959	19.728	
349.00	-58.999	7.585	
350.00	-58.837	11.024	
351.00	-58.667	8.635	
352.00	-57.902	0.263	
353.00	-58.175	2.140	
354.00	-58.283	1.076	
355.00	-58.136	-2.792	
356.00	-58.035	-5.765	
357.00	-58.490	-2.412	
358.00	-58.869	-2.042	
359.00	-59.452	7.220	
Frequency	2300.00	MHz	
Channel	test		
Scan Axis name	Azimuth  [deg]		
Scan Axis	Amplitude	Phase	
			
0.00	-65.750	0.695	
1.00	-66.609	15.064	
2.00	-65.352	8.605	
3.00	-65.798	23.563	
4.00	-66.698	20.501	
5.00	-65.256	38.947	
6.00	-66.586	42.871	
7.00	-66.443	49.436	
8.00	-69.507	71.836	
9.00	-66.367	74.892	
10.00	-66.028	74.282	
11.00	-66.263	89.986	
12.00	-67.482	81.720	
13.00	-69.099	75.902	
14.00	-67.598	111.686	
15.00	-67.268	115.655	
16.00	-67.154	109.651	
17.00	-69.269	107.578	
18.00	-81.092	113.708	
19.00	-78.448	85.131	
20.00	-80.407	34.019	
21.00	-71.967	0.704	
22.00	-72.908	-7.698	
23.00	-66.828	3.416	
24.00	-67.177	9.145	
25.00	-69.443	25.787	
26.00	-64.907	15.859	
27.00	-66.691	49.654	
28.00	-65.784	46.321	
29.00	-64.902	58.118	
30.00	-66.052	66.850	
31.00	-65.495	100.807	
32.00	-63.551	115.760	
33.00	-64.141	133.971	
34.00	-61.455	143.656	
35.00	-60.401	151.177	
36.00	-59.152	161.275	
37.00	-59.213	-179.576	
38.00	-59.607	-173.464	
39.00	-60.201	-170.626	
40.00	-60.104	-156.475	
41.00	-60.641	-146.906	
42.00	-60.537	-133.476	
43.00	-63.022	-86.356	
44.00	-66.933	-94.842	
45.00	-71.310	-62.295	
46.00	-71.889	-40.987	
47.00	-65.170	13.984	
48.00	-63.644	10.485	
49.00	-62.821	61.444	
50.00	-61.589	75.244	
51.00	-61.090	99.337	
52.00	-59.742	110.018	
53.00	-58.835	126.584	
54.00	-57.687	144.699	
55.00	-57.023	161.637	
56.00	-55.687	161.650	
57.00	-57.824	-177.852	
58.00	-56.634	-158.379	
59.00	-57.757	-130.792	
60.00	-58.229	-119.465	
61.00	-57.532	-101.232	
62.00	-57.908	-86.901	
63.00	-58.728	-82.751	
64.00	-57.329	-58.750	
65.00	-57.293	-27.999	
66.00	-57.320	-7.810	
67.00	-56.447	10.513	
68.00	-55.869	22.155	
69.00	-54.154	42.674	
70.00	-55.162	44.936	
71.00	-55.008	71.009	
72.00	-56.947	69.028	
73.00	-56.576	93.295	
74.00	-60.559	107.170	
75.00	-63.166	133.494	
76.00	-64.778	137.508	
77.00	-72.861	-176.135	
78.00	-90.680	-28.663	
79.00	-64.958	-46.866	
80.00	-65.730	-28.132	
81.00	-64.577	-18.900	
82.00	-61.904	-9.139	
83.00	-61.540	15.736	
84.00	-60.375	9.251	
85.00	-60.401	22.199	
86.00	-64.637	15.395	
87.00	-64.658	49.488	
88.00	-61.512	58.799	
89.00	-66.274	33.404	
90.00	-67.063	96.030	
91.00	-67.064	41.125	
92.00	-70.301	120.074	
93.00	-78.632	-138.460	
94.00	-69.531	13.513	
95.00	-71.358	-92.438	
96.00	-69.741	-24.171	
97.00	-74.488	-105.013	
98.00	-69.586	-12.180	
99.00	-65.428	-58.532	
100.00	-80.007	20.384	
101.00	-69.410	-141.356	
102.00	-80.734	174.090	
103.00	-70.042	-58.073	
104.00	-77.720	82.427	
105.00	-70.070	64.411	
106.00	-74.435	43.762	
107.00	-61.687	37.551	
108.00	-61.159	26.427	
109.00	-57.870	69.612	
110.00	-56.311	78.771	
111.00	-54.981	90.272	
112.00	-52.236	102.353	
113.00	-50.786	114.831	
114.00	-50.077	131.877	
115.00	-49.418	145.343	
116.00	-48.693	153.079	
117.00	-48.746	167.471	
118.00	-47.374	-176.092	
119.00	-46.692	-159.696	
120.00	-46.244	-147.318	
121.00	-45.521	-133.605	
122.00	-45.126	-115.671	
123.00	-44.700	-103.854	
124.00	-44.413	-83.890	
125.00	-43.498	-70.239	
126.00	-43.105	-54.030	
127.00	-42.463	-38.573	
128.00	-41.952	-20.234	
129.00	-41.165	-4.234	
130.00	-40.388	9.459	
131.00	-39.800	23.154	
132.00	-38.853	37.219	
133.00	-38.269	48.645	
134.00	-37.948	61.389	
135.00	-37.058	74.059	
136.00	-36.665	85.511	
137.00	-36.137	98.345	
138.00	-35.907	108.893	
139.00	-35.252	122.277	
140.00	-34.838	133.260	
141.00	-34.331	143.590	
142.00	-34.032	153.921	
143.00	-33.539	166.629	
144.00	-33.215	176.731	
145.00	-32.776	-173.813	
146.00	-32.378	-164.055	
147.00	-32.003	-154.455	
148.00	-31.678	-146.317	
149.00	-31.347	-138.812	
150.00	-30.971	-130.407	
151.00	-30.643	-123.663	
152.00	-30.378	-113.923	
153.00	-30.088	-107.383	
154.00	-29.804	-99.644	
155.00	-29.588	-92.898	
156.00	-29.316	-87.079	
157.00	-29.102	-82.442	
158.00	-28.910	-77.207	
159.00	-28.703	-72.313	
160.00	-28.570	-68.843	
161.00	-28.380	-64.969	
162.00	-28.209	-60.800	
163.00	-28.081	-57.052	
164.00	-27.930	-54.488	
165.00	-27.833	-52.228	
166.00	-27.693	-48.209	
167.00	-27.572	-47.168	
168.00	-27.446	-44.851	
169.00	-27.357	-46.098	
170.00	-27.278	-46.008	
171.00	-27.172	-44.014	
172.00	-27.108	-44.012	
173.00	-27.036	-42.445	
174.00	-26.989	-41.849	
175.00	-26.952	-43.192	
176.00	-26.918	-43.394	
177.00	-26.868	-45.816	
178.00	-26.859	-45.766	
179.00	-26.849	-49.718	
180.00	-26.850	-49.403	
181.00	-26.883	-54.032	
182.00	-26.893	-53.684	
183.00	-26.948	-60.133	
184.00	-27.017	-58.802	
185.00	-27.072	-68.548	
186.00	-27.156	-69.849	
187.00	-27.246	-79.737	
188.00	-27.365	-82.852	
189.00	-27.473	-93.055	
190.00	-27.627	-97.739	
191.00	-27.769	-102.187	
192.00	-27.941	-110.783	
193.00	-28.111	-115.096	
194.00	-28.282	-125.803	
195.00	-28.494	-129.867	
196.00	-28.688	-140.378	
197.00	-28.906	-145.909	
198.00	-29.112	-156.095	
199.00	-29.371	-165.510	
200.00	-29.571	-175.604	
201.00	-29.845	178.598	
202.00	-30.059	164.319	
203.00	-30.291	156.827	
204.00	-30.553	144.655	
205.00	-30.798	134.287	
206.00	-31.049	124.937	
207.00	-31.336	110.236	
208.00	-31.606	100.774	
209.00	-31.895	84.321	
210.00	-32.178	75.107	
211.00	-32.420	60.442	
212.00	-32.769	50.996	
213.00	-33.074	33.755	
214.00	-33.444	23.971	
215.00	-33.757	8.478	
216.00	-34.152	-4.173	
217.00	-34.518	-20.995	
218.00	-34.879	-32.784	
219.00	-35.301	-48.421	
220.00	-35.750	-60.932	
221.00	-36.116	-76.971	
222.00	-36.571	-94.127	
223.00	-37.019	-107.849	
224.00	-37.421	-124.353	
225.00	-37.770	-137.561	
226.00	-38.142	-159.170	
227.00	-38.517	-174.945	
228.00	-38.968	167.186	
229.00	-39.307	151.472	
230.00	-39.789	134.964	
231.00	-40.154	117.786	
232.00	-40.531	102.162	
233.00	-41.052	83.932	
234.00	-41.563	67.411	
235.00	-42.140	53.182	
236.00	-42.787	36.579	
237.00	-43.651	20.514	
238.00	-44.356	3.543	
239.00	-45.286	-14.758	
240.00	-46.320	-32.091	
241.00	-47.224	-50.318	
242.00	-48.060	-69.166	
243.00	-49.426	-88.281	
244.00	-50.204	-107.194	
245.00	-51.741	-131.643	
246.00	-53.112	-150.747	
247.00	-53.732	-173.647	
248.00	-55.139	163.796	
249.00	-56.307	143.265	
250.00	-57.429	119.678	
251.00	-58.189	97.874	
252.00	-59.315	73.612	
253.00	-60.265	47.107	
254.00	-61.010	31.254	
255.00	-61.595	-0.275	
256.00	-63.189	-9.064	
257.00	-63.128	-21.857	
258.00	-64.493	-32.780	
259.00	-65.974	-32.493	
260.00	-67.775	-17.621	
261.00	-66.103	-13.183	
262.00	-64.977	-6.927	
263.00	-62.762	-8.860	
264.00	-61.674	-11.874	
265.00	-60.919	-17.009	
266.00	-60.680	-22.102	
267.00	-60.993	-36.878	
268.00	-61.737	-35.497	
269.00	-62.728	-46.313	
270.00	-65.550	-61.040	
271.00	-69.979	-93.914	
272.00	-72.892	-133.471	
273.00	-69.809	162.485	
274.00	-67.618	140.010	
275.00	-66.236	116.899	
276.00	-64.636	93.345	
277.00	-65.732	79.878	
278.00	-66.223	83.393	
279.00	-65.817	45.408	
280.00	-69.298	7.412	
281.00	-69.002	-5.230	
282.00	-68.454	-42.782	
283.00	-67.180	-66.734	
284.00	-64.702	-83.251	
285.00	-63.351	-102.655	
286.00	-63.511	-134.090	
287.00	-62.932	-142.325	
288.00	-65.993	-167.304	
289.00	-64.518	159.308	
290.00	-65.952	139.055	
291.00	-64.744	107.807	
292.00	-63.207	79.582	
293.00	-61.332	62.929	
294.00	-61.662	44.115	
295.00	-58.800	42.122	
296.00	-59.423	19.806	
297.00	-58.655	11.359	
298.00	-58.742	-7.029	
299.00	-59.264	-7.565	
300.00	-58.818	-19.794	
301.00	-59.079	-33.908	
302.00	-60.786	-45.341	
303.00	-64.087	-72.851	
304.00	-64.143	-105.045	
305.00	-63.993	-119.943	
306.00	-62.111	-146.318	
307.00	-61.371	-167.980	
308.00	-60.639	178.232	
309.00	-58.956	171.713	
310.00	-57.367	159.968	
311.00	-57.360	153.000	
312.00	-56.637	136.277	
313.00	-57.218	127.339	
314.00	-57.254	125.198	
315.00	-57.107	115.501	
316.00	-57.092	109.653	
317.00	-56.894	103.441	
318.00	-58.562	103.732	
319.00	-59.730	90.629	
320.00	-58.971	90.261	
321.00	-60.048	93.973	
322.00	-61.813	86.514	
323.00	-62.600	94.515	
324.00	-65.425	88.788	
325.00	-70.256	102.939	
326.00	-68.195	123.126	
327.00	-70.551	122.615	
328.00	-67.971	135.138	
329.00	-70.147	143.273	
330.00	-69.229	148.178	
331.00	-70.061	178.763	
332.00	-70.064	151.487	
333.00	-67.233	157.104	
334.00	-70.008	-173.250	
335.00	-68.011	145.524	
336.00	-68.184	146.395	
337.00	-69.271	158.582	
338.00	-66.448	156.987	
339.00	-69.577	145.475	
340.00	-70.054	144.070	
341.00	-70.250	150.987	
342.00	-67.630	133.172	
343.00	-69.169	114.381	
344.00	-75.528	136.530	
345.00	-72.828	106.492	
346.00	-72.552	88.504	
347.00	-77.070	75.557	
348.00	-75.835	65.756	
349.00	-79.476	53.919	
350.00	-73.046	24.186	
351.00	-78.740	-3.321	
352.00	-74.612	31.386	
353.00	-73.127	1.246	
354.00	-68.669	-0.737	
355.00	-67.895	3.706	
356.00	-68.073	4.178	
357.00	-67.011	17.917	
358.00	-66.511	8.183	
359.00	-67.451	5.274	
Frequency	2350.00	MHz	
Channel	test		
Scan Axis name	Azimuth  [deg]		
Scan Axis	Amplitude	Phase	
			
0.00	-61.692	-149.031	
1.00	-60.964	-154.737	
2.00	-61.442	-161.001	
3.00	-60.812	-163.733	
4.00	-61.101	-167.913	
5.00	-61.366	-170.828	
6.00	-61.468	-173.503	
7.00	-61.716	-174.929	
8.00	-62.878	-176.668	
9.00	-63.685	-177.248	
10.00	-64.328	-175.397	
11.00	-66.440	178.150	
12.00	-68.247	-179.925	
13.00	-71.644	178.897	
14.00	-73.645	164.814	
15.00	-73.524	166.812	
16.00	-76.155	128.034	
17.00	-73.085	105.284	
18.00	-72.648	77.471	
19.00	-70.350	65.327	
20.00	-66.610	65.222	
21.00	-66.192	73.510	
22.00	-64.658	80.353	
23.00	-64.298	87.377	
24.00	-63.665	92.824	
25.00	-63.067	96.812	
26.00	-63.577	102.112	
27.00	-63.038	106.831	
28.00	-62.469	123.722	
29.00	-63.265	139.120	
30.00	-64.692	151.177	
31.00	-64.407	171.174	
32.00	-63.017	-170.155	
33.00	-62.848	-144.706	
34.00	-62.657	-130.404	
35.00	-61.871	-119.687	
36.00	-60.595	-106.643	
37.00	-60.347	-89.662	
38.00	-59.431	-71.169	
39.00	-58.616	-61.472	
40.00	-57.454	-51.581	
41.00	-57.358	-39.359	
42.00	-57.708	-26.145	
43.00	-57.593	-13.619	
44.00	-58.789	-1.352	
45.00	-59.299	14.199	
46.00	-59.609	27.408	
47.00	-60.189	53.034	
48.00	-62.694	79.411	
49.00	-62.408	97.774	
50.00	-61.974	121.003	
51.00	-61.534	144.865	
52.00	-59.055	165.603	
53.00	-59.049	-177.152	
54.00	-58.718	-165.408	
55.00	-58.390	-135.163	
56.00	-59.776	-124.423	
57.00	-59.691	-98.522	
58.00	-58.921	-69.828	
59.00	-57.559	-54.155	
60.00	-57.418	-30.346	
61.00	-56.576	-15.480	
62.00	-57.893	4.651	
63.00	-57.336	23.105	
64.00	-57.797	36.592	
65.00	-56.558	60.810	
66.00	-57.152	71.923	
67.00	-56.668	98.318	
68.00	-57.479	113.192	
69.00	-58.254	150.698	
70.00	-58.032	162.586	
71.00	-58.117	-162.676	
72.00	-57.392	-138.758	
73.00	-57.267	-113.781	
74.00	-55.263	-93.986	
75.00	-55.877	-69.411	
76.00	-54.561	-51.757	
77.00	-54.090	-29.216	
78.00	-53.327	-20.876	
79.00	-53.396	6.808	
80.00	-54.304	16.166	
81.00	-53.851	33.021	
82.00	-54.572	45.326	
83.00	-54.640	67.353	
84.00	-55.905	87.595	
85.00	-55.822	109.730	
86.00	-56.933	127.143	
87.00	-58.063	156.850	
88.00	-58.023	177.167	
89.00	-57.974	-149.257	
90.00	-57.220	-139.659	
91.00	-58.374	-124.734	
92.00	-59.135	-103.812	
93.00	-61.618	-77.568	
94.00	-62.887	-56.500	
95.00	-62.276	-20.173	
96.00	-64.786	2.860	
97.00	-63.250	39.864	
98.00	-61.630	62.637	
99.00	-61.347	73.839	
100.00	-62.677	96.596	
101.00	-61.188	109.303	
102.00	-63.146	114.553	
103.00	-63.616	113.044	
104.00	-62.932	139.580	
105.00	-64.038	124.581	
106.00	-64.426	129.925	
107.00	-64.318	119.778	
108.00	-61.131	122.772	
109.00	-59.204	132.639	
110.00	-58.257	142.518	
111.00	-56.223	157.399	
112.00	-55.501	161.029	
113.00	-54.023	174.738	
114.00	-53.498	-166.885	
115.00	-52.644	-150.324	
116.00	-51.585	-138.217	
117.00	-51.271	-118.354	
118.00	-50.487	-100.676	
119.00	-49.846	-82.222	
120.00	-48.887	-64.591	
121.00	-47.759	-47.399	
122.00	-46.676	-31.231	
123.00	-45.664	-17.009	
124.00	-44.614	0.553	
125.00	-43.740	13.099	
126.00	-42.882	27.975	
127.00	-42.246	40.710	
128.00	-41.387	56.183	
129.00	-40.768	70.269	
130.00	-40.107	84.084	
131.00	-39.517	95.908	
132.00	-38.876	110.420	
133.00	-38.312	122.689	
134.00	-37.728	136.726	
135.00	-37.150	148.488	
136.00	-36.627	159.907	
137.00	-36.093	173.469	
138.00	-35.591	-174.885	
139.00	-35.064	-162.428	
140.00	-34.543	-151.654	
141.00	-34.095	-140.945	
142.00	-33.574	-130.646	
143.00	-33.119	-118.733	
144.00	-32.665	-108.432	
145.00	-32.257	-99.135	
146.00	-31.867	-89.559	
147.00	-31.482	-79.951	
148.00	-31.125	-71.702	
149.00	-30.767	-64.203	
150.00	-30.436	-55.256	
151.00	-30.102	-48.649	
152.00	-29.790	-38.448	
153.00	-29.519	-32.210	
154.00	-29.237	-24.008	
155.00	-28.987	-17.209	
156.00	-28.736	-10.814	
157.00	-28.498	-5.611	
158.00	-28.288	-0.153	
159.00	-28.090	4.810	
160.00	-27.901	8.919	
161.00	-27.722	13.205	
162.00	-27.551	17.218	
163.00	-27.410	21.624	
164.00	-27.258	24.558	
165.00	-27.134	26.833	
166.00	-27.017	31.494	
167.00	-26.902	32.543	
168.00	-26.795	35.145	
169.00	-26.706	34.149	
170.00	-26.619	34.330	
171.00	-26.557	36.569	
172.00	-26.483	36.704	
173.00	-26.433	38.259	
174.00	-26.385	39.272	
175.00	-26.343	37.755	
176.00	-26.317	37.464	
177.00	-26.282	35.071	
178.00	-26.263	35.038	
179.00	-26.260	30.998	
180.00	-26.260	31.234	
181.00	-26.268	26.430	
182.00	-26.291	26.853	
183.00	-26.315	20.050	
184.00	-26.348	21.485	
185.00	-26.394	11.443	
186.00	-26.451	10.098	
187.00	-26.518	0.144	
188.00	-26.608	-3.070	
189.00	-26.699	-13.336	
190.00	-26.799	-18.054	
191.00	-26.905	-22.451	
192.00	-27.046	-31.114	
193.00	-27.180	-35.122	
194.00	-27.345	-45.743	
195.00	-27.512	-49.826	
196.00	-27.694	-60.156	
197.00	-27.898	-65.367	
198.00	-28.124	-75.350	
199.00	-28.352	-84.397	
200.00	-28.594	-94.390	
201.00	-28.852	-99.958	
202.00	-29.127	-114.060	
203.00	-29.413	-121.416	
204.00	-29.696	-133.546	
205.00	-30.026	-144.126	
206.00	-30.335	-153.380	
207.00	-30.659	-168.199	
208.00	-30.975	-177.738	
209.00	-31.331	165.339	
210.00	-31.671	156.126	
211.00	-32.023	141.128	
212.00	-32.381	131.472	
213.00	-32.713	113.651	
214.00	-33.087	102.924	
215.00	-33.426	87.097	
216.00	-33.779	74.101	
217.00	-34.111	57.342	
218.00	-34.481	44.640	
219.00	-34.851	29.385	
220.00	-35.229	16.568	
221.00	-35.641	0.877	
222.00	-36.079	-15.522	
223.00	-36.546	-29.851	
224.00	-37.021	-45.561	
225.00	-37.523	-58.962	
226.00	-37.979	-79.982	
227.00	-38.494	-95.970	
228.00	-38.972	-113.259	
229.00	-39.544	-129.860	
230.00	-40.054	-146.709	
231.00	-40.641	-164.624	
232.00	-41.227	179.245	
233.00	-41.835	160.121	
234.00	-42.533	142.351	
235.00	-43.194	126.853	
236.00	-43.917	109.326	
237.00	-44.657	92.055	
238.00	-45.444	73.781	
239.00	-46.250	54.292	
240.00	-47.067	35.495	
241.00	-47.893	15.656	
242.00	-48.818	-2.474	
243.00	-49.698	-21.858	
244.00	-50.632	-41.257	
245.00	-51.637	-63.721	
246.00	-52.597	-80.523	
247.00	-53.895	-101.543	
248.00	-54.924	-120.082	
249.00	-56.154	-138.235	
250.00	-57.322	-156.305	
251.00	-59.219	-175.469	
252.00	-60.799	169.472	
253.00	-62.895	152.923	
254.00	-64.872	141.133	
255.00	-66.854	134.245	
256.00	-68.125	144.618	
257.00	-68.328	141.639	
258.00	-67.357	147.073	
259.00	-65.579	140.985	
260.00	-63.990	131.739	
261.00	-63.406	124.879	
262.00	-62.587	105.310	
263.00	-62.152	93.682	
264.00	-61.502	76.719	
265.00	-62.013	61.613	
266.00	-62.161	51.977	
267.00	-63.398	29.177	
268.00	-63.594	13.593	
269.00	-67.078	-19.269	
270.00	-67.167	-53.198	
271.00	-67.626	-99.497	
272.00	-66.043	-135.998	
273.00	-63.713	-160.707	
274.00	-61.470	-177.751	
275.00	-61.144	165.409	
276.00	-60.260	150.073	
277.00	-60.207	135.406	
278.00	-60.366	118.703	
279.00	-60.619	100.719	
280.00	-61.930	75.164	
281.00	-61.838	58.075	
282.00	-62.719	33.602	
283.00	-62.415	13.811	
284.00	-62.357	-20.987	
285.00	-61.217	-36.501	
286.00	-60.098	-66.034	
287.00	-60.155	-84.886	
288.00	-61.555	-104.319	
289.00	-62.093	-126.515	
290.00	-63.071	-149.874	
291.00	-62.659	-177.745	
292.00	-63.129	153.873	
293.00	-62.701	130.915	
294.00	-61.442	112.913	
295.00	-59.875	91.404	
296.00	-59.264	79.052	
297.00	-57.916	66.800	
298.00	-57.036	53.477	
299.00	-56.525	45.970	
300.00	-56.217	36.375	
301.00	-56.410	29.550	
302.00	-57.346	19.361	
303.00	-58.828	9.769	
304.00	-59.972	0.238	
305.00	-61.751	-4.089	
306.00	-64.694	-10.256	
307.00	-66.647	-12.625	
308.00	-73.062	-30.569	
309.00	-95.401	101.570	
310.00	-76.702	82.550	
311.00	-72.182	111.727	
312.00	-67.619	115.273	
313.00	-67.936	112.954	
314.00	-66.450	97.333	
315.00	-66.395	92.179	
316.00	-66.382	79.195	
317.00	-66.905	55.407	
318.00	-69.588	35.463	
319.00	-69.272	-1.306	
320.00	-69.490	-37.611	
321.00	-67.018	-53.038	
322.00	-64.935	-71.732	
323.00	-64.016	-77.205	
324.00	-62.172	-90.114	
325.00	-61.201	-95.857	
326.00	-60.465	-107.678	
327.00	-60.262	-110.218	
328.00	-60.442	-121.273	
329.00	-60.492	-125.827	
330.00	-61.301	-132.851	
331.00	-62.627	-141.439	
332.00	-63.183	-152.875	
333.00	-65.455	-161.077	
334.00	-68.162	-171.835	
335.00	-68.802	155.154	
336.00	-71.854	121.980	
337.00	-69.796	87.732	
338.00	-66.128	64.760	
339.00	-64.339	50.245	
340.00	-63.061	44.689	
341.00	-61.638	29.209	
342.00	-61.191	23.800	
343.00	-59.883	15.705	
344.00	-59.896	9.065	
345.00	-59.968	2.819	
346.00	-59.841	0.905	
347.00	-59.957	-5.753	
348.00	-60.912	-13.239	
349.00	-61.383	-25.351	
350.00	-62.710	-32.976	
351.00	-63.535	-40.955	
352.00	-64.958	-50.201	
353.00	-66.017	-61.943	
354.00	-65.908	-81.337	
355.00	-66.351	-90.933	
356.00	-65.764	-110.966	
357.00	-65.470	-124.693	
358.00	-65.262	-138.891	
359.00	-64.537	-153.107	
Frequency	2400.00	MHz	
Channel	test		
Scan Axis name	Azimuth  [deg]		
Scan Axis	Amplitude	Phase	
			
0.00	-64.585	-3.888	
1.00	-63.062	-1.302	
2.00	-64.123	-3.491	
3.00	-64.438	2.104	
4.00	-63.680	-7.771	
5.00	-63.993	-10.962	
6.00	-64.200	-13.891	
7.00	-64.606	-14.449	
8.00	-64.749	-23.755	
9.00	-64.563	-31.897	
10.00	-65.939	-24.062	
11.00	-65.581	-34.411	
12.00	-66.103	-37.261	
13.00	-66.923	-42.848	
14.00	-67.549	-37.350	
15.00	-69.673	-38.520	
16.00	-71.964	-52.600	
17.00	-74.928	-59.216	
18.00	-75.555	-59.129	
19.00	-81.290	-40.787	
20.00	-84.710	-86.330	
21.00	-86.628	172.655	
22.00	-81.990	64.186	
23.00	-85.722	120.843	
24.00	-76.664	145.480	
25.00	-83.647	147.210	
26.00	-73.770	-167.850	
27.00	-75.243	178.948	
28.00	-74.599	-144.357	
29.00	-68.464	-118.868	
30.00	-70.111	-120.999	
31.00	-67.474	-100.372	
32.00	-67.029	-94.119	
33.00	-65.577	-84.560	
34.00	-64.493	-73.636	
35.00	-63.668	-67.810	
36.00	-62.913	-61.967	
37.00	-62.510	-59.315	
38.00	-62.262	-48.879	
39.00	-64.026	-41.730	
40.00	-63.696	-34.835	
41.00	-67.292	-23.285	
42.00	-68.186	-28.864	
43.00	-72.965	-35.794	
44.00	-76.557	-102.633	
45.00	-78.664	-159.073	
46.00	-69.334	-145.184	
47.00	-65.114	-156.251	
48.00	-63.782	-140.193	
49.00	-63.087	-145.424	
50.00	-60.971	-124.086	
51.00	-60.832	-116.447	
52.00	-60.338	-105.201	
53.00	-61.356	-87.061	
54.00	-59.839	-70.681	
55.00	-60.929	-55.770	
56.00	-60.133	-31.111	
57.00	-61.316	-23.681	
58.00	-61.106	5.723	
59.00	-60.738	14.491	
60.00	-60.654	51.334	
61.00	-59.357	68.256	
62.00	-58.149	88.482	
63.00	-58.145	107.361	
64.00	-56.191	124.725	
65.00	-56.994	146.494	
66.00	-55.743	160.235	
67.00	-56.364	-174.920	
68.00	-55.811	-160.360	
69.00	-55.388	-134.411	
70.00	-55.604	-118.880	
71.00	-55.810	-95.680	
72.00	-55.943	-72.483	
73.00	-55.728	-45.629	
74.00	-54.880	-25.965	
75.00	-55.407	4.359	
76.00	-55.789	18.979	
77.00	-54.358	54.559	
78.00	-54.386	61.969	
79.00	-53.675	88.298	
80.00	-53.024	108.570	
81.00	-52.702	126.036	
82.00	-52.513	144.367	
83.00	-52.455	164.052	
84.00	-51.461	-176.174	
85.00	-52.326	-157.710	
86.00	-51.802	-141.256	
87.00	-52.070	-120.092	
88.00	-52.428	-103.707	
89.00	-52.349	-84.449	
90.00	-53.468	-65.588	
91.00	-52.690	-50.065	
92.00	-54.210	-28.044	
93.00	-54.958	-6.997	
94.00	-56.178	11.828	
95.00	-56.463	36.679	
96.00	-56.898	63.461	
97.00	-58.315	97.223	
98.00	-57.168	127.067	
99.00	-56.309	148.907	
100.00	-56.628	169.876	
101.00	-58.296	-178.523	
102.00	-56.885	-158.257	
103.00	-57.523	-149.170	
104.00	-57.947	-129.386	
105.00	-58.749	-122.579	
106.00	-59.663	-113.567	
107.00	-59.699	-97.330	
108.00	-59.513	-97.965	
109.00	-60.495	-92.293	
110.00	-60.973	-84.149	
111.00	-60.184	-86.286	
112.00	-58.584	-91.994	
113.00	-57.680	-77.792	
114.00	-56.940	-70.274	
115.00	-55.893	-58.498	
116.00	-54.464	-48.239	
117.00	-53.745	-33.108	
118.00	-53.215	-19.528	
119.00	-52.666	-0.664	
120.00	-51.918	15.666	
121.00	-51.081	30.648	
122.00	-49.687	48.237	
123.00	-49.008	62.871	
124.00	-48.423	79.684	
125.00	-47.352	95.128	
126.00	-46.539	110.996	
127.00	-45.680	124.447	
128.00	-44.828	140.161	
129.00	-43.923	154.550	
130.00	-43.225	168.044	
131.00	-42.422	179.368	
132.00	-41.726	-167.216	
133.00	-41.047	-155.669	
134.00	-40.396	-142.660	
135.00	-39.857	-131.299	
136.00	-39.346	-120.494	
137.00	-38.828	-107.647	
138.00	-38.409	-96.525	
139.00	-37.947	-84.188	
140.00	-37.485	-73.689	
141.00	-37.094	-62.858	
142.00	-36.676	-52.827	
143.00	-36.208	-40.248	
144.00	-35.791	-29.578	
145.00	-35.372	-19.958	
146.00	-34.930	-10.043	
147.00	-34.513	-0.166	
148.00	-34.114	8.374	
149.00	-33.677	15.787	
150.00	-33.255	25.259	
151.00	-32.850	31.737	
152.00	-32.470	42.045	
153.00	-32.129	48.557	
154.00	-31.756	56.494	
155.00	-31.471	63.245	
156.00	-31.156	69.296	
157.00	-30.883	74.323	
158.00	-30.626	79.818	
159.00	-30.399	84.917	
160.00	-30.199	88.784	
161.00	-30.008	93.229	
162.00	-29.827	97.109	
163.00	-29.668	101.659	
164.00	-29.538	104.723	
165.00	-29.391	107.150	
166.00	-29.254	111.923	
167.00	-29.134	113.039	
168.00	-29.009	115.923	
169.00	-28.901	115.166	
170.00	-28.788	115.359	
171.00	-28.681	117.827	
172.00	-28.584	118.107	
173.00	-28.496	119.702	
174.00	-28.409	120.905	
175.00	-28.333	119.309	
176.00	-28.266	118.980	
177.00	-28.218	116.444	
178.00	-28.161	116.306	
179.00	-28.152	112.141	
180.00	-28.134	112.462	
181.00	-28.105	107.273	
182.00	-28.118	107.864	
183.00	-28.145	100.722	
184.00	-28.194	102.376	
185.00	-28.218	91.883	
186.00	-28.271	90.453	
187.00	-28.316	80.265	
188.00	-28.401	77.028	
189.00	-28.491	66.578	
190.00	-28.576	61.585	
191.00	-28.684	57.294	
192.00	-28.810	48.337	
193.00	-28.929	44.261	
194.00	-29.073	33.477	
195.00	-29.240	29.201	
196.00	-29.390	18.668	
197.00	-29.569	13.354	
198.00	-29.765	3.359	
199.00	-29.977	-5.957	
200.00	-30.204	-15.923	
201.00	-30.450	-21.545	
202.00	-30.712	-35.641	
203.00	-30.998	-43.147	
204.00	-31.239	-55.411	
205.00	-31.599	-66.108	
206.00	-31.899	-75.234	
207.00	-32.255	-90.385	
208.00	-32.575	-99.838	
209.00	-32.863	-117.229	
210.00	-33.273	-126.714	
211.00	-33.623	-142.165	
212.00	-33.989	-151.606	
213.00	-34.324	-169.616	
214.00	-34.708	179.528	
215.00	-35.015	163.598	
216.00	-35.387	150.187	
217.00	-35.732	134.007	
218.00	-36.109	121.391	
219.00	-36.530	106.430	
220.00	-37.019	93.375	
221.00	-37.499	78.182	
222.00	-38.046	61.522	
223.00	-38.632	46.877	
224.00	-39.273	30.751	
225.00	-39.917	16.733	
226.00	-40.565	-5.054	
227.00	-41.194	-22.358	
228.00	-41.781	-40.685	
229.00	-42.399	-58.596	
230.00	-42.979	-76.960	
231.00	-43.572	-95.917	
232.00	-44.103	-113.399	
233.00	-44.774	-133.383	
234.00	-45.423	-151.663	
235.00	-46.079	-168.202	
236.00	-46.851	173.505	
237.00	-47.702	155.486	
238.00	-48.367	137.035	
239.00	-49.250	117.159	
240.00	-50.070	99.489	
241.00	-51.194	78.063	
242.00	-52.267	60.626	
243.00	-53.458	40.408	
244.00	-54.869	21.659	
245.00	-56.599	-2.919	
246.00	-58.463	-22.770	
247.00	-60.459	-48.457	
248.00	-62.654	-72.308	
249.00	-66.043	-102.886	
250.00	-67.791	-142.142	
251.00	-67.724	177.436	
252.00	-67.243	140.582	
253.00	-66.989	110.444	
254.00	-66.266	90.899	
255.00	-67.122	68.998	
256.00	-68.687	45.415	
257.00	-74.218	8.939	
258.00	-75.940	-25.669	
259.00	-75.983	-129.074	
260.00	-70.358	-159.872	
261.00	-66.646	166.014	
262.00	-63.343	145.574	
263.00	-60.774	132.917	
264.00	-59.867	122.055	
265.00	-58.945	103.730	
266.00	-57.601	97.191	
267.00	-57.900	75.930	
268.00	-58.769	69.253	
269.00	-59.051	49.686	
270.00	-60.021	34.951	
271.00	-61.960	18.102	
272.00	-63.251	-4.752	
273.00	-64.326	-31.916	
274.00	-65.402	-62.226	
275.00	-66.235	-94.545	
276.00	-66.619	-118.652	
277.00	-66.189	-146.713	
278.00	-66.328	-170.338	
279.00	-65.837	169.832	
280.00	-66.244	137.657	
281.00	-66.542	118.786	
282.00	-66.468	90.496	
283.00	-65.956	66.087	
284.00	-64.917	38.228	
285.00	-63.757	16.312	
286.00	-61.813	-8.272	
287.00	-60.839	-24.073	
288.00	-60.421	-37.246	
289.00	-60.888	-52.219	
290.00	-61.161	-67.415	
291.00	-61.813	-73.410	
292.00	-62.562	-80.986	
293.00	-63.038	-97.517	
294.00	-64.565	-111.548	
295.00	-65.667	-132.305	
296.00	-66.235	-137.030	
297.00	-67.525	-165.527	
298.00	-69.486	178.111	
299.00	-70.137	158.830	
300.00	-69.722	132.494	
301.00	-67.917	118.203	
302.00	-66.576	106.709	
303.00	-69.231	84.704	
304.00	-69.936	69.106	
305.00	-69.045	58.966	
306.00	-72.488	67.079	
307.00	-75.589	26.204	
308.00	-72.816	-13.510	
309.00	-72.696	-25.646	
310.00	-73.209	-57.918	
311.00	-72.060	-61.570	
312.00	-69.245	-89.005	
313.00	-67.755	-96.553	
314.00	-67.776	-110.196	
315.00	-66.534	-123.853	
316.00	-65.208	-136.438	
317.00	-65.804	-139.718	
318.00	-63.422	-136.379	
319.00	-64.573	-151.576	
320.00	-66.982	-156.717	
321.00	-65.578	-151.844	
322.00	-70.730	179.416	
323.00	-72.689	-178.259	
324.00	-73.183	163.290	
325.00	-84.161	134.769	
326.00	-78.123	-9.045	
327.00	-81.371	-40.636	
328.00	-69.495	-47.355	
329.00	-68.542	-39.274	
330.00	-63.626	-31.656	
331.00	-67.412	-25.102	
332.00	-65.254	-53.109	
333.00	-64.645	-54.554	
334.00	-63.714	-59.135	
335.00	-65.726	-62.596	
336.00	-63.572	-70.790	
337.00	-64.117	-65.383	
338.00	-71.801	-100.939	
339.00	-66.408	-94.583	
340.00	-67.875	-79.464	
341.00	-69.749	-82.228	
342.00	-72.033	-59.743	
343.00	-75.236	-42.004	
344.00	-70.373	-83.878	
345.00	-76.596	-80.611	
346.00	-75.237	-54.604	
347.00	-74.582	-49.546	
348.00	-77.308	-30.225	
349.00	-74.460	-28.898	
350.00	-71.556	-18.634	
351.00	-70.589	-8.512	
352.00	-70.306	-9.569	
353.00	-68.975	-14.527	
354.00	-67.659	-14.574	
355.00	-67.801	-18.550	
356.00	-66.926	-16.929	
357.00	-65.737	-23.649	
358.00	-65.943	-22.781	
359.00	-65.110	-24.762	
Frequency	2450.00	MHz	
Channel	test		
Scan Axis name	Azimuth  [deg]		
Scan Axis	Amplitude	Phase	
			
0.00	-68.351	-160.356	
1.00	-65.876	-161.046	
2.00	-67.501	-150.248	
3.00	-66.539	-138.581	
4.00	-65.950	-136.852	
5.00	-65.957	-127.978	
6.00	-65.957	-127.158	
7.00	-65.566	-119.069	
8.00	-66.685	-120.713	
9.00	-66.945	-118.111	
10.00	-69.125	-122.525	
11.00	-69.239	-134.057	
12.00	-68.991	-133.723	
13.00	-76.045	-130.103	
14.00	-71.634	-178.188	
15.00	-74.375	162.229	
16.00	-71.439	139.170	
17.00	-69.271	137.384	
18.00	-67.965	127.944	
19.00	-63.565	138.986	
20.00	-63.499	132.792	
21.00	-62.488	132.621	
22.00	-61.315	138.897	
23.00	-59.971	137.897	
24.00	-59.908	146.332	
25.00	-60.006	149.003	
26.00	-60.081	150.534	
27.00	-61.591	156.893	
28.00	-62.904	160.853	
29.00	-63.918	171.671	
30.00	-67.384	-173.212	
31.00	-69.354	-146.284	
32.00	-71.781	-87.288	
33.00	-66.972	-57.960	
34.00	-63.331	-31.435	
35.00	-60.848	-25.750	
36.00	-59.034	-12.731	
37.00	-57.865	-3.785	
38.00	-57.191	6.519	
39.00	-56.820	18.387	
40.00	-56.859	25.912	
41.00	-58.197	40.008	
42.00	-57.094	56.774	
43.00	-58.380	66.199	
44.00	-59.896	89.703	
45.00	-59.907	115.012	
46.00	-62.330	139.234	
47.00	-60.224	177.367	
48.00	-58.492	-171.134	
49.00	-57.573	-153.971	
50.00	-56.362	-136.083	
51.00	-55.840	-122.559	
52.00	-55.710	-103.435	
53.00	-55.775	-87.522	
54.00	-55.785	-67.151	
55.00	-56.715	-54.890	
56.00	-55.659	-32.213	
57.00	-56.280	-7.368	
58.00	-56.063	13.199	
59.00	-56.130	31.197	
60.00	-56.088	47.997	
61.00	-57.119	66.499	
62.00	-56.767	86.311	
63.00	-56.445	104.333	
64.00	-58.123	125.468	
65.00	-58.547	157.019	
66.00	-58.127	-178.219	
67.00	-57.317	-147.940	
68.00	-57.429	-129.917	
69.00	-55.928	-101.026	
70.00	-56.319	-86.372	
71.00	-56.423	-55.233	
72.00	-55.977	-29.080	
73.00	-56.256	-8.396	
74.00	-55.816	10.098	
75.00	-56.650	39.091	
76.00	-56.312	55.342	
77.00	-55.637	84.789	
78.00	-56.405	112.764	
79.00	-55.659	135.979	
80.00	-56.295	159.079	
81.00	-55.362	-176.297	
82.00	-54.449	-162.324	
83.00	-54.674	-132.375	
84.00	-53.948	-108.562	
85.00	-53.447	-83.216	
86.00	-53.760	-65.501	
87.00	-54.000	-46.203	
88.00	-53.685	-26.756	
89.00	-53.894	1.025	
90.00	-54.048	18.562	
91.00	-53.805	46.408	
92.00	-53.855	66.363	
93.00	-54.588	89.212	
94.00	-53.611	109.149	
95.00	-55.077	135.133	
96.00	-54.365	149.636	
97.00	-54.213	178.814	
98.00	-54.201	-155.124	
99.00	-54.629	-132.188	
100.00	-54.983	-107.515	
101.00	-55.463	-91.750	
102.00	-57.399	-68.726	
103.00	-58.190	-44.626	
104.00	-57.125	-18.458	
105.00	-57.761	-1.145	
106.00	-58.423	28.906	
107.00	-59.644	43.621	
108.00	-58.902	65.545	
109.00	-60.224	86.897	
110.00	-61.980	105.645	
111.00	-62.054	127.005	
112.00	-66.728	153.705	
113.00	-69.294	-169.335	
114.00	-74.144	-115.043	
115.00	-68.914	-66.569	
116.00	-65.763	-12.674	
117.00	-63.907	26.164	
118.00	-60.437	45.531	
119.00	-58.625	66.971	
120.00	-57.033	82.337	
121.00	-55.305	100.259	
122.00	-53.621	121.979	
123.00	-52.931	139.652	
124.00	-51.169	160.584	
125.00	-50.194	174.652	
126.00	-48.866	-168.408	
127.00	-47.557	-153.331	
128.00	-46.125	-137.363	
129.00	-45.159	-121.627	
130.00	-44.233	-108.653	
131.00	-43.344	-97.578	
132.00	-42.493	-84.100	
133.00	-41.783	-71.873	
134.00	-41.123	-59.150	
135.00	-40.529	-47.189	
136.00	-39.874	-36.685	
137.00	-39.382	-23.545	
138.00	-38.908	-11.836	
139.00	-38.403	1.555	
140.00	-37.883	11.939	
141.00	-37.379	23.497	
142.00	-36.822	34.143	
143.00	-36.367	46.310	
144.00	-35.842	57.159	
145.00	-35.380	66.310	
146.00	-34.875	76.017	
147.00	-34.363	85.799	
148.00	-33.963	94.200	
149.00	-33.495	101.418	
150.00	-33.113	110.505	
151.00	-32.710	116.457	
152.00	-32.319	127.194	
153.00	-31.988	133.433	
154.00	-31.653	141.279	
155.00	-31.383	148.468	
156.00	-31.085	154.496	
157.00	-30.804	159.601	
158.00	-30.527	165.394	
159.00	-30.252	170.446	
160.00	-30.025	174.550	
161.00	-29.836	179.003	
162.00	-29.574	-177.087	
163.00	-29.397	-172.587	
164.00	-29.183	-169.466	
165.00	-29.004	-166.962	
166.00	-28.844	-162.364	
167.00	-28.683	-161.314	
168.00	-28.549	-158.632	
169.00	-28.415	-159.440	
170.00	-28.299	-159.459	
171.00	-28.193	-157.009	
172.00	-28.094	-156.913	
173.00	-28.007	-155.164	
174.00	-27.931	-154.096	
175.00	-27.871	-155.775	
176.00	-27.806	-156.274	
177.00	-27.759	-158.739	
178.00	-27.712	-158.620	
179.00	-27.692	-162.892	
180.00	-27.662	-162.730	
181.00	-27.664	-167.905	
182.00	-27.652	-167.328	
183.00	-27.670	-174.495	
184.00	-27.682	-172.713	
185.00	-27.714	176.721	
186.00	-27.777	175.232	
187.00	-27.818	164.857	
188.00	-27.905	161.662	
189.00	-28.015	151.321	
190.00	-28.091	145.881	
191.00	-28.227	141.624	
192.00	-28.378	132.349	
193.00	-28.496	128.378	
194.00	-28.663	117.194	
195.00	-28.852	112.749	
196.00	-29.028	101.940	
197.00	-29.232	96.314	
198.00	-29.444	85.857	
199.00	-29.664	76.138	
200.00	-29.905	65.906	
201.00	-30.160	59.794	
202.00	-30.403	45.205	
203.00	-30.697	36.996	
204.00	-30.991	24.670	
205.00	-31.288	13.364	
206.00	-31.567	4.155	
207.00	-31.850	-11.734	
208.00	-32.137	-21.348	
209.00	-32.461	-39.078	
210.00	-32.809	-48.499	
211.00	-33.125	-64.145	
212.00	-33.475	-73.754	
213.00	-33.780	-91.688	
214.00	-34.185	-102.744	
215.00	-34.552	-118.579	
216.00	-34.971	-132.260	
217.00	-35.338	-148.461	
218.00	-35.785	-161.513	
219.00	-36.256	-176.806	
220.00	-36.760	169.338	
221.00	-37.279	154.700	
222.00	-37.868	136.838	
223.00	-38.467	121.919	
224.00	-39.055	105.072	
225.00	-39.776	90.857	
226.00	-40.343	69.433	
227.00	-41.098	51.596	
228.00	-41.707	33.941	
229.00	-42.408	16.360	
230.00	-43.160	-2.387	
231.00	-43.915	-21.074	
232.00	-44.652	-39.883	
233.00	-45.673	-60.995	
234.00	-46.540	-80.677	
235.00	-47.359	-98.510	
236.00	-48.221	-118.262	
237.00	-49.163	-138.445	
238.00	-50.292	-158.015	
239.00	-51.102	-179.333	
240.00	-52.493	160.325	
241.00	-53.531	139.015	
242.00	-54.745	114.233	
243.00	-57.214	91.601	
244.00	-58.463	64.278	
245.00	-60.709	38.773	
246.00	-62.378	11.970	
247.00	-65.092	-34.597	
248.00	-65.948	-79.855	
249.00	-65.091	-123.690	
250.00	-62.161	-161.154	
251.00	-60.228	172.514	
252.00	-58.638	152.353	
253.00	-58.593	131.834	
254.00	-57.549	113.681	
255.00	-57.214	94.694	
256.00	-57.809	78.204	
257.00	-58.120	58.375	
258.00	-59.246	35.296	
259.00	-60.431	6.839	
260.00	-61.738	-24.964	
261.00	-63.004	-56.137	
262.00	-62.248	-95.965	
263.00	-60.844	-125.744	
264.00	-60.211	-149.848	
265.00	-59.170	-171.125	
266.00	-59.228	175.255	
267.00	-59.632	152.571	
268.00	-59.875	142.047	
269.00	-61.461	122.202	
270.00	-63.124	95.209	
271.00	-63.847	73.750	
272.00	-66.013	33.469	
273.00	-67.980	1.699	
274.00	-67.017	-47.780	
275.00	-64.507	-87.632	
276.00	-63.423	-111.392	
277.00	-62.185	-136.907	
278.00	-61.235	-159.126	
279.00	-59.547	-171.787	
280.00	-59.662	162.143	
281.00	-58.872	148.987	
282.00	-58.119	131.001	
283.00	-59.112	120.406	
284.00	-59.449	98.554	
285.00	-60.715	82.454	
286.00	-62.416	45.662	
287.00	-62.369	7.563	
288.00	-63.240	-10.498	
289.00	-62.505	-40.355	
290.00	-61.492	-57.662	
291.00	-61.760	-74.623	
292.00	-62.926	-86.492	
293.00	-63.657	-103.528	
294.00	-63.005	-117.969	
295.00	-65.581	-131.842	
296.00	-65.900	-141.463	
297.00	-70.242	-161.680	
298.00	-81.774	166.288	
299.00	-77.260	20.324	
300.00	-70.023	14.655	
301.00	-65.549	5.092	
302.00	-63.836	-3.832	
303.00	-62.158	-18.825	
304.00	-62.296	-30.431	
305.00	-62.217	-36.469	
306.00	-62.192	-36.731	
307.00	-62.148	-36.899	
308.00	-63.489	-49.092	
309.00	-64.432	-55.812	
310.00	-66.585	-57.125	
311.00	-69.837	-38.837	
312.00	-70.188	-40.567	
313.00	-69.247	-25.794	
314.00	-68.012	-14.127	
315.00	-67.046	-3.792	
316.00	-65.168	-2.992	
317.00	-63.757	-13.693	
318.00	-63.681	-24.166	
319.00	-62.364	-25.793	
320.00	-61.851	-39.979	
321.00	-61.773	-39.072	
322.00	-61.895	-47.397	
323.00	-62.202	-52.366	
324.00	-63.215	-62.951	
325.00	-62.605	-71.330	
326.00	-64.186	-76.106	
327.00	-65.698	-69.441	
328.00	-67.811	-79.995	
329.00	-67.779	-99.633	
330.00	-75.971	-98.107	
331.00	-71.966	-128.161	
332.00	-72.591	-130.194	
333.00	-74.196	-148.589	
334.00	-79.024	-178.241	
335.00	-76.230	153.797	
336.00	-76.850	138.990	
337.00	-76.131	131.948	
338.00	-76.867	113.573	
339.00	-74.127	138.642	
340.00	-70.408	159.974	
341.00	-68.356	167.482	
342.00	-68.107	155.799	
343.00	-67.860	155.141	
344.00	-66.340	158.455	
345.00	-65.037	157.736	
346.00	-65.377	155.492	
347.00	-63.655	157.676	
348.00	-62.640	150.847	
349.00	-62.359	137.656	
350.00	-62.376	143.041	
351.00	-61.522	135.695	
352.00	-60.801	132.325	
353.00	-61.526	131.546	
354.00	-61.605	131.844	
355.00	-62.550	127.553	
356.00	-62.471	123.736	
357.00	-63.905	134.665	
358.00	-65.321	136.538	
359.00	-67.003	136.166	
Frequency	2496.00	MHz	
Channel	test		
Scan Axis name	Azimuth  [deg]		
Scan Axis	Amplitude	Phase	
			
0.00	-66.255	-110.748	
1.00	-64.424	-117.671	
2.00	-67.415	-98.297	
3.00	-73.402	-78.107	
4.00	-68.629	-104.553	
5.00	-70.540	-48.185	
6.00	-69.469	-72.148	
7.00	-72.314	-45.800	
8.00	-71.185	-23.365	
9.00	-67.293	-49.537	
10.00	-70.461	-7.188	
11.00	-66.661	-20.470	
12.00	-68.626	13.421	
13.00	-63.389	25.845	
14.00	-65.596	53.473	
15.00	-66.207	47.132	
16.00	-63.900	33.913	
17.00	-66.264	39.303	
18.00	-63.369	59.921	
19.00	-60.936	57.010	
20.00	-63.315	61.748	
21.00	-62.119	65.016	
22.00	-64.677	65.610	
23.00	-61.828	97.112	
24.00	-63.993	97.722	
25.00	-64.431	112.502	
26.00	-66.874	133.132	
27.00	-68.898	108.519	
28.00	-69.357	164.481	
29.00	-67.959	101.906	
30.00	-77.844	104.402	
31.00	-78.071	83.153	
32.00	-69.394	40.575	
33.00	-72.397	22.632	
34.00	-63.896	27.765	
35.00	-68.050	23.772	
36.00	-59.996	45.652	
37.00	-61.431	51.171	
38.00	-61.832	56.142	
39.00	-62.553	61.006	
40.00	-60.589	80.758	
41.00	-59.349	79.111	
42.00	-60.094	117.786	
43.00	-60.361	124.878	
44.00	-59.589	147.466	
45.00	-59.941	163.198	
46.00	-60.878	-168.116	
47.00	-61.610	-156.836	
48.00	-60.149	-130.850	
49.00	-59.600	-109.690	
50.00	-59.267	-79.521	
51.00	-58.205	-73.696	
52.00	-58.170	-39.375	
53.00	-56.630	-23.938	
54.00	-57.225	-10.287	
55.00	-56.099	9.798	
56.00	-59.329	8.954	
57.00	-58.095	53.456	
58.00	-56.595	79.305	
59.00	-55.727	96.521	
60.00	-56.892	123.168	
61.00	-55.789	133.016	
62.00	-55.906	153.260	
63.00	-55.559	-175.942	
64.00	-55.266	-160.698	
65.00	-54.173	-141.946	
66.00	-54.810	-123.071	
67.00	-55.404	-99.597	
68.00	-55.386	-86.009	
69.00	-55.646	-39.712	
70.00	-56.385	-24.391	
71.00	-57.165	7.989	
72.00	-55.792	33.231	
73.00	-54.245	58.691	
74.00	-53.801	77.989	
75.00	-54.176	106.988	
76.00	-53.610	117.601	
77.00	-53.250	152.212	
78.00	-53.067	167.045	
79.00	-53.163	-164.729	
80.00	-52.964	-151.550	
81.00	-52.581	-129.147	
82.00	-53.569	-107.777	
83.00	-52.554	-84.171	
84.00	-53.089	-59.315	
85.00	-53.038	-33.004	
86.00	-53.212	-13.923	
87.00	-52.292	9.538	
88.00	-53.568	33.749	
89.00	-52.917	54.337	
90.00	-51.814	81.064	
91.00	-52.014	104.798	
92.00	-52.535	123.456	
93.00	-52.592	148.258	
94.00	-52.147	166.022	
95.00	-52.383	-172.915	
96.00	-52.536	-153.705	
97.00	-52.346	-124.300	
98.00	-53.114	-94.940	
99.00	-53.992	-71.968	
100.00	-54.041	-50.729	
101.00	-54.291	-30.604	
102.00	-54.171	-0.209	
103.00	-55.163	16.059	
104.00	-55.336	41.704	
105.00	-54.619	53.200	
106.00	-55.522	74.737	
107.00	-56.047	89.944	
108.00	-57.234	104.963	
109.00	-58.503	115.669	
110.00	-59.988	145.883	
111.00	-63.468	155.575	
112.00	-70.092	164.447	
113.00	-71.427	-169.187	
114.00	-69.232	64.086	
115.00	-73.431	86.379	
116.00	-66.722	81.180	
117.00	-64.807	88.066	
118.00	-63.303	106.013	
119.00	-60.978	154.791	
120.00	-58.234	162.659	
121.00	-55.888	179.949	
122.00	-53.954	-160.522	
123.00	-52.156	-147.078	
124.00	-50.998	-130.658	
125.00	-50.009	-117.685	
126.00	-49.019	-98.700	
127.00	-47.766	-88.590	
128.00	-47.403	-70.283	
129.00	-46.097	-55.956	
130.00	-45.364	-42.538	
131.00	-44.608	-28.025	
132.00	-43.869	-14.195	
133.00	-43.304	-1.379	
134.00	-42.611	13.608	
135.00	-42.020	26.747	
136.00	-41.242	39.269	
137.00	-40.487	53.815	
138.00	-39.849	65.651	
139.00	-39.279	78.872	
140.00	-38.717	89.882	
141.00	-38.121	101.256	
142.00	-37.568	111.511	
143.00	-36.952	122.918	
144.00	-36.397	134.188	
145.00	-35.958	143.776	
146.00	-35.426	153.536	
147.00	-34.948	162.817	
148.00	-34.582	171.204	
149.00	-34.139	178.520	
150.00	-33.747	-171.823	
151.00	-33.371	-165.262	
152.00	-32.997	-154.941	
153.00	-32.597	-148.247	
154.00	-32.262	-139.897	
155.00	-31.887	-132.631	
156.00	-31.552	-126.572	
157.00	-31.232	-121.126	
158.00	-30.918	-115.637	
159.00	-30.608	-110.235	
160.00	-30.348	-106.595	
161.00	-30.063	-101.961	
162.00	-29.807	-98.262	
163.00	-29.579	-93.951	
164.00	-29.345	-90.965	
165.00	-29.144	-88.572	
166.00	-28.926	-83.869	
167.00	-28.760	-83.210	
168.00	-28.630	-80.671	
169.00	-28.487	-81.512	
170.00	-28.341	-81.501	
171.00	-28.212	-79.096	
172.00	-28.112	-78.931	
173.00	-28.035	-77.417	
174.00	-27.965	-76.070	
175.00	-27.911	-77.799	
176.00	-27.839	-77.922	
177.00	-27.792	-80.602	
178.00	-27.766	-80.351	
179.00	-27.760	-84.352	
180.00	-27.750	-84.186	
181.00	-27.729	-89.537	
182.00	-27.764	-88.760	
183.00	-27.783	-96.256	
184.00	-27.791	-94.362	
185.00	-27.864	-105.193	
186.00	-27.912	-106.894	
187.00	-28.038	-117.258	
188.00	-28.085	-120.699	
189.00	-28.160	-131.262	
190.00	-28.292	-137.092	
191.00	-28.399	-141.193	
192.00	-28.553	-151.044	
193.00	-28.686	-155.040	
194.00	-28.842	-166.691	
195.00	-29.013	-171.252	
196.00	-29.193	177.700	
197.00	-29.392	172.019	
198.00	-29.600	161.413	
199.00	-29.781	151.162	
200.00	-30.014	141.096	
201.00	-30.228	134.303	
202.00	-30.468	119.754	
203.00	-30.704	111.373	
204.00	-30.986	99.191	
205.00	-31.267	87.664	
206.00	-31.544	78.526	
207.00	-31.859	62.526	
208.00	-32.154	52.858	
209.00	-32.502	35.261	
210.00	-32.862	25.510	
211.00	-33.198	10.207	
212.00	-33.599	-0.267	
213.00	-33.917	-17.718	
214.00	-34.343	-30.009	
215.00	-34.736	-45.925	
216.00	-35.092	-59.854	
217.00	-35.536	-75.859	
218.00	-36.009	-89.579	
219.00	-36.487	-105.402	
220.00	-37.051	-119.146	
221.00	-37.515	-134.611	
222.00	-38.160	-152.682	
223.00	-38.746	-167.911	
224.00	-39.420	175.723	
225.00	-40.044	161.776	
226.00	-40.760	139.762	
227.00	-41.524	122.448	
228.00	-42.260	103.942	
229.00	-43.078	86.306	
230.00	-44.051	67.615	
231.00	-45.001	48.233	
232.00	-45.984	29.466	
233.00	-46.983	7.869	
234.00	-48.108	-13.725	
235.00	-49.190	-31.760	
236.00	-50.172	-55.018	
237.00	-51.313	-78.143	
238.00	-52.334	-101.145	
239.00	-53.545	-125.054	
240.00	-54.858	-149.095	
241.00	-55.881	-174.866	
242.00	-57.825	159.801	
243.00	-58.826	126.224	
244.00	-59.632	94.516	
245.00	-60.708	52.665	
246.00	-61.347	23.301	
247.00	-60.500	-7.229	
248.00	-59.101	-38.074	
249.00	-58.799	-64.073	
250.00	-58.704	-88.959	
251.00	-58.068	-115.440	
252.00	-58.308	-137.495	
253.00	-58.475	-161.059	
254.00	-59.049	174.374	
255.00	-59.365	144.664	
256.00	-59.368	126.493	
257.00	-59.939	98.520	
258.00	-62.030	73.522	
259.00	-61.421	37.238	
260.00	-61.587	-13.557	
261.00	-60.368	-41.905	
262.00	-59.356	-70.117	
263.00	-57.442	-97.598	
264.00	-56.468	-111.138	
265.00	-55.463	-132.865	
266.00	-54.977	-143.247	
267.00	-55.702	-165.444	
268.00	-55.778	-178.912	
269.00	-57.516	160.935	
270.00	-58.469	135.292	
271.00	-59.294	117.256	
272.00	-60.609	79.439	
273.00	-60.913	50.812	
274.00	-60.747	19.611	
275.00	-62.407	-7.687	
276.00	-60.654	-41.957	
277.00	-59.942	-61.553	
278.00	-59.885	-88.028	
279.00	-60.529	-103.723	
280.00	-59.307	-134.955	
281.00	-60.119	-156.809	
282.00	-59.336	-179.431	
283.00	-60.360	156.101	
284.00	-60.955	135.272	
285.00	-60.476	108.871	
286.00	-61.454	81.041	
287.00	-59.768	41.676	
288.00	-58.905	13.286	
289.00	-59.248	-10.813	
290.00	-57.713	-30.793	
291.00	-57.257	-44.315	
292.00	-58.917	-62.302	
293.00	-58.432	-81.074	
294.00	-58.513	-91.318	
295.00	-59.635	-110.434	
296.00	-60.620	-106.471	
297.00	-62.801	-146.126	
298.00	-65.730	-174.695	
299.00	-70.112	135.290	
300.00	-71.992	50.160	
301.00	-63.567	45.393	
302.00	-61.668	41.635	
303.00	-59.826	26.806	
304.00	-58.166	23.272	
305.00	-58.146	2.575	
306.00	-58.575	-1.751	
307.00	-57.459	-15.254	
308.00	-57.844	-24.202	
309.00	-60.592	-32.103	
310.00	-62.878	-47.537	
311.00	-63.675	-60.218	
312.00	-71.614	-85.382	
313.00	-68.580	-87.656	
314.00	-72.513	162.035	
315.00	-76.634	50.423	
316.00	-65.796	93.150	
317.00	-64.175	76.445	
318.00	-63.729	79.283	
319.00	-62.490	61.030	
320.00	-61.858	43.949	
321.00	-61.975	52.622	
322.00	-61.542	34.267	
323.00	-61.066	22.618	
324.00	-61.813	8.692	
325.00	-61.559	5.468	
326.00	-59.832	-5.950	
327.00	-61.172	-17.089	
328.00	-60.961	-24.774	
329.00	-62.915	-31.953	
330.00	-61.848	-48.921	
331.00	-63.710	-39.495	
332.00	-63.723	-57.899	
333.00	-63.308	-64.817	
334.00	-62.932	-82.526	
335.00	-64.666	-67.007	
336.00	-64.947	-74.541	
337.00	-64.489	-71.615	
338.00	-65.035	-72.969	
339.00	-65.616	-70.701	
340.00	-63.958	-80.063	
341.00	-63.476	-66.661	
342.00	-63.900	-80.345	
343.00	-63.933	-77.706	
344.00	-63.757	-56.045	
345.00	-61.753	-53.996	
346.00	-64.307	-62.610	
347.00	-63.881	-60.992	
348.00	-62.213	-62.810	
349.00	-63.368	-66.549	
350.00	-62.395	-76.300	
351.00	-63.584	-77.825	
352.00	-63.217	-86.897	
353.00	-63.485	-83.041	
354.00	-62.755	-97.001	
355.00	-63.806	-97.325	
356.00	-64.247	-100.435	
357.00	-64.787	-96.732	
358.00	-63.296	-100.754	
359.00	-63.643	-109.361	
Frequency	2550.00	MHz	
Channel	test		
Scan Axis name	Azimuth  [deg]		
Scan Axis	Amplitude	Phase	
			
0.00	-68.680	-24.453	
1.00	-66.211	-30.357	
2.00	-68.256	-32.151	
3.00	-65.248	-32.966	
4.00	-66.877	-24.142	
5.00	-66.582	-13.861	
6.00	-64.871	-14.874	
7.00	-63.927	-4.906	
8.00	-64.041	4.439	
9.00	-63.514	2.529	
10.00	-64.314	19.946	
11.00	-64.895	6.147	
12.00	-63.256	32.983	
13.00	-63.809	43.658	
14.00	-63.056	54.786	
15.00	-62.244	58.241	
16.00	-63.049	75.305	
17.00	-62.146	88.990	
18.00	-59.773	94.202	
19.00	-61.502	103.827	
20.00	-61.109	113.197	
21.00	-60.977	125.077	
22.00	-59.704	135.567	
23.00	-59.614	150.911	
24.00	-59.825	165.327	
25.00	-60.225	170.767	
26.00	-60.796	178.282	
27.00	-59.710	-164.954	
28.00	-60.714	-151.211	
29.00	-60.993	-137.256	
30.00	-61.553	-116.512	
31.00	-60.972	-96.438	
32.00	-60.627	-84.873	
33.00	-60.910	-63.691	
34.00	-60.737	-48.683	
35.00	-60.664	-30.323	
36.00	-60.153	-11.204	
37.00	-60.350	-0.558	
38.00	-60.322	13.734	
39.00	-61.173	34.971	
40.00	-62.714	52.172	
41.00	-64.016	73.206	
42.00	-63.389	90.651	
43.00	-66.365	121.100	
44.00	-63.758	148.387	
45.00	-65.908	160.597	
46.00	-65.531	-161.300	
47.00	-66.255	-131.194	
48.00	-66.599	-103.203	
49.00	-63.363	-73.522	
50.00	-62.395	-49.221	
51.00	-62.317	-36.128	
52.00	-58.401	-17.859	
53.00	-57.079	15.598	
54.00	-58.020	21.690	
55.00	-57.347	41.042	
56.00	-57.549	55.458	
57.00	-58.550	75.571	
58.00	-58.294	108.033	
59.00	-57.828	125.663	
60.00	-58.276	154.702	
61.00	-57.230	179.062	
62.00	-57.118	-161.644	
63.00	-56.486	-140.915	
64.00	-55.097	-123.329	
65.00	-54.110	-101.115	
66.00	-54.765	-88.639	
67.00	-54.291	-60.142	
68.00	-54.462	-47.234	
69.00	-55.156	-17.997	
70.00	-55.092	4.309	
71.00	-55.655	37.891	
72.00	-56.074	50.445	
73.00	-55.510	87.751	
74.00	-55.377	105.869	
75.00	-55.086	139.682	
76.00	-54.155	153.490	
77.00	-54.106	-173.098	
78.00	-54.257	-155.664	
79.00	-54.573	-130.198	
80.00	-53.962	-109.803	
81.00	-53.258	-88.793	
82.00	-53.313	-73.273	
83.00	-53.464	-48.685	
84.00	-54.143	-22.190	
85.00	-54.563	-3.154	
86.00	-55.814	23.113	
87.00	-56.345	52.766	
88.00	-55.798	74.450	
89.00	-55.612	127.466	
90.00	-55.862	133.686	
91.00	-55.001	166.926	
92.00	-54.971	-166.279	
93.00	-53.694	-149.216	
94.00	-54.305	-132.552	
95.00	-52.543	-108.975	
96.00	-52.546	-83.264	
97.00	-52.490	-56.377	
98.00	-53.072	-28.052	
99.00	-53.289	-9.816	
100.00	-53.295	18.029	
101.00	-53.306	37.451	
102.00	-54.343	56.612	
103.00	-54.266	74.507	
104.00	-54.555	103.251	
105.00	-55.202	124.636	
106.00	-58.875	145.028	
107.00	-55.897	164.501	
108.00	-55.336	-164.770	
109.00	-55.819	-150.396	
110.00	-55.477	-139.930	
111.00	-57.347	-106.130	
112.00	-57.731	-93.595	
113.00	-60.283	-72.434	
114.00	-60.550	-33.888	
115.00	-68.810	-25.354	
116.00	-62.367	-18.066	
117.00	-62.455	6.730	
118.00	-64.392	62.184	
119.00	-71.453	41.511	
120.00	-69.855	34.798	
121.00	-67.210	-71.683	
122.00	-65.421	-77.985	
123.00	-61.093	-51.147	
124.00	-57.691	-35.572	
125.00	-56.081	-33.247	
126.00	-53.940	-15.112	
127.00	-51.731	-3.524	
128.00	-49.915	10.014	
129.00	-48.965	20.807	
130.00	-47.819	32.523	
131.00	-46.758	46.813	
132.00	-46.011	59.568	
133.00	-45.285	70.711	
134.00	-44.588	83.401	
135.00	-43.973	97.123	
136.00	-43.140	109.288	
137.00	-42.748	123.861	
138.00	-42.051	135.690	
139.00	-41.368	149.753	
140.00	-40.816	161.122	
141.00	-40.099	172.813	
142.00	-39.458	-176.039	
143.00	-38.923	-163.461	
144.00	-38.148	-152.209	
145.00	-37.665	-142.499	
146.00	-37.027	-132.651	
147.00	-36.555	-122.553	
148.00	-36.123	-114.586	
149.00	-35.557	-106.945	
150.00	-35.099	-96.879	
151.00	-34.648	-90.390	
152.00	-34.260	-80.060	
153.00	-33.830	-73.455	
154.00	-33.479	-64.775	
155.00	-33.090	-58.093	
156.00	-32.739	-51.551	
157.00	-32.416	-46.338	
158.00	-32.122	-40.788	
159.00	-31.857	-35.301	
160.00	-31.558	-31.262	
161.00	-31.331	-26.794	
162.00	-31.075	-23.042	
163.00	-30.881	-18.447	
164.00	-30.677	-15.370	
165.00	-30.495	-12.759	
166.00	-30.327	-8.039	
167.00	-30.161	-7.339	
168.00	-30.025	-4.476	
169.00	-29.899	-5.460	
170.00	-29.803	-5.593	
171.00	-29.683	-3.097	
172.00	-29.586	-2.924	
173.00	-29.505	-1.561	
174.00	-29.432	0.091	
175.00	-29.364	-2.005	
176.00	-29.302	-2.373	
177.00	-29.241	-5.147	
178.00	-29.196	-5.158	
179.00	-29.150	-9.329	
180.00	-29.128	-9.147	
181.00	-29.099	-14.855	
182.00	-29.086	-14.263	
183.00	-29.095	-21.960	
184.00	-29.113	-20.016	
185.00	-29.111	-31.474	
186.00	-29.187	-33.254	
187.00	-29.228	-43.891	
188.00	-29.289	-47.529	
189.00	-29.364	-58.215	
190.00	-29.466	-64.306	
191.00	-29.558	-68.311	
192.00	-29.697	-78.390	
193.00	-29.844	-82.024	
194.00	-29.996	-93.826	
195.00	-30.182	-98.529	
196.00	-30.372	-109.563	
197.00	-30.598	-115.441	
198.00	-30.807	-126.381	
199.00	-31.035	-136.572	
200.00	-31.280	-147.134	
201.00	-31.528	-153.529	
202.00	-31.782	-168.355	
203.00	-32.094	-176.964	
204.00	-32.341	170.435	
205.00	-32.680	158.257	
206.00	-32.994	148.965	
207.00	-33.324	132.401	
208.00	-33.646	122.693	
209.00	-34.010	104.383	
210.00	-34.365	94.569	
211.00	-34.715	78.584	
212.00	-35.120	68.269	
213.00	-35.529	50.674	
214.00	-35.947	38.285	
215.00	-36.417	21.961	
216.00	-36.853	7.457	
217.00	-37.312	-8.653	
218.00	-37.820	-22.798	
219.00	-38.347	-38.952	
220.00	-38.954	-52.996	
221.00	-39.571	-68.359	
222.00	-40.307	-86.324	
223.00	-41.095	-102.073	
224.00	-41.868	-118.899	
225.00	-42.736	-134.563	
226.00	-43.722	-157.170	
227.00	-44.559	-176.613	
228.00	-45.433	163.492	
229.00	-46.344	143.925	
230.00	-47.145	124.058	
231.00	-48.144	102.312	
232.00	-49.112	83.497	
233.00	-50.282	60.232	
234.00	-51.453	39.048	
235.00	-52.684	20.395	
236.00	-54.173	-0.950	
237.00	-55.727	-26.025	
238.00	-57.613	-50.284	
239.00	-60.087	-82.020	
240.00	-62.762	-115.763	
241.00	-63.255	-164.867	
242.00	-62.660	149.956	
243.00	-60.599	110.902	
244.00	-58.578	81.998	
245.00	-57.409	59.465	
246.00	-56.916	36.882	
247.00	-56.385	12.552	
248.00	-55.797	-8.306	
249.00	-55.104	-31.580	
250.00	-55.449	-54.050	
251.00	-55.437	-79.890	
252.00	-55.516	-102.373	
253.00	-55.835	-123.871	
254.00	-55.930	-149.419	
255.00	-56.325	-178.233	
256.00	-56.149	159.907	
257.00	-56.029	129.944	
258.00	-56.021	105.948	
259.00	-55.498	77.128	
260.00	-55.497	52.876	
261.00	-55.638	30.658	
262.00	-55.766	1.229	
263.00	-55.872	-20.309	
264.00	-55.884	-44.705	
265.00	-56.438	-68.183	
266.00	-56.768	-86.264	
267.00	-57.017	-113.994	
268.00	-57.773	-134.494	
269.00	-58.250	-162.897	
270.00	-59.059	171.669	
271.00	-58.523	147.953	
272.00	-57.090	116.224	
273.00	-58.178	94.101	
274.00	-59.101	69.271	
275.00	-59.970	42.434	
276.00	-61.062	13.624	
277.00	-61.206	-11.175	
278.00	-61.426	-43.237	
279.00	-60.822	-72.072	
280.00	-59.159	-107.669	
281.00	-58.980	-121.212	
282.00	-58.139	-145.980	
283.00	-57.992	-164.583	
284.00	-57.615	171.021	
285.00	-57.510	150.809	
286.00	-57.756	117.962	
287.00	-57.651	94.497	
288.00	-57.612	70.023	
289.00	-57.783	50.740	
290.00	-57.704	29.412	
291.00	-58.062	17.413	
292.00	-59.073	-2.296	
293.00	-58.772	-26.729	
294.00	-60.333	-45.562	
295.00	-60.766	-73.211	
296.00	-61.707	-85.193	
297.00	-61.491	-112.871	
298.00	-62.316	-146.782	
299.00	-60.371	-162.710	
300.00	-59.230	174.560	
301.00	-60.475	152.430	
302.00	-60.444	131.643	
303.00	-59.481	118.297	
304.00	-60.429	106.711	
305.00	-61.572	92.895	
306.00	-62.758	78.246	
307.00	-63.152	70.958	
308.00	-67.333	50.709	
309.00	-68.833	1.242	
310.00	-72.980	-24.400	
311.00	-67.381	-66.151	
312.00	-65.032	-92.088	
313.00	-64.219	-105.659	
314.00	-62.181	-114.982	
315.00	-61.432	-125.188	
316.00	-60.862	-121.660	
317.00	-61.230	-133.855	
318.00	-60.498	-142.138	
319.00	-62.061	-136.438	
320.00	-61.882	-154.029	
321.00	-62.327	-171.410	
322.00	-61.781	178.361	
323.00	-62.685	-173.852	
324.00	-63.363	-175.090	
325.00	-62.525	-175.236	
326.00	-63.492	-168.779	
327.00	-63.351	-169.709	
328.00	-62.711	-169.033	
329.00	-64.255	175.743	
330.00	-62.324	170.513	
331.00	-65.494	-169.370	
332.00	-63.383	172.929	
333.00	-64.456	171.472	
334.00	-65.047	169.686	
335.00	-63.157	173.409	
336.00	-64.960	153.467	
337.00	-66.995	156.387	
338.00	-65.431	134.720	
339.00	-67.381	131.872	
340.00	-71.428	146.690	
341.00	-70.263	126.501	
342.00	-68.736	111.745	
343.00	-71.570	108.168	
344.00	-70.863	85.259	
345.00	-73.427	56.307	
346.00	-74.115	43.884	
347.00	-77.492	36.936	
348.00	-72.972	13.478	
349.00	-75.909	-17.993	
350.00	-79.758	-9.408	
351.00	-74.805	-67.509	
352.00	-74.699	-37.944	
353.00	-77.043	-45.219	
354.00	-76.277	-56.346	
355.00	-77.289	-46.682	
356.00	-73.525	-63.556	
357.00	-72.054	-51.344	
358.00	-74.150	-55.773	
359.00	-71.665	-42.224	
Frequency	2600.00	MHz	
Channel	test		
Scan Axis name	Azimuth  [deg]		
Scan Axis	Amplitude	Phase	
			
0.00	-78.916	85.236	
1.00	-74.485	72.711	
2.00	-72.958	34.774	
3.00	-69.967	43.185	
4.00	-67.905	36.928	
5.00	-66.475	37.233	
6.00	-65.441	30.099	
7.00	-64.877	33.195	
8.00	-64.338	39.017	
9.00	-65.339	43.401	
10.00	-63.825	47.771	
11.00	-65.582	62.446	
12.00	-64.679	68.628	
13.00	-65.638	84.459	
14.00	-65.184	100.293	
15.00	-63.481	112.111	
16.00	-63.605	121.569	
17.00	-63.075	135.912	
18.00	-62.432	148.924	
19.00	-61.392	166.980	
20.00	-61.264	-179.498	
21.00	-60.013	-169.134	
22.00	-58.908	-159.708	
23.00	-58.557	-148.472	
24.00	-58.536	-132.951	
25.00	-58.415	-124.824	
26.00	-58.700	-112.144	
27.00	-58.934	-92.977	
28.00	-59.455	-76.233	
29.00	-59.106	-54.742	
30.00	-58.753	-33.532	
31.00	-57.997	-12.203	
32.00	-56.677	5.169	
33.00	-55.426	20.819	
34.00	-54.584	37.395	
35.00	-54.220	48.933	
36.00	-53.559	62.007	
37.00	-53.413	76.304	
38.00	-53.148	90.254	
39.00	-53.140	106.063	
40.00	-53.088	119.056	
41.00	-53.173	135.158	
42.00	-53.615	153.923	
43.00	-53.820	170.623	
44.00	-54.499	-171.099	
45.00	-55.014	-151.301	
46.00	-55.505	-130.713	
47.00	-55.528	-104.106	
48.00	-55.156	-83.439	
49.00	-55.094	-61.014	
50.00	-54.683	-37.376	
51.00	-54.617	-17.338	
52.00	-54.333	5.855	
53.00	-54.079	22.279	
54.00	-54.077	44.712	
55.00	-54.052	63.336	
56.00	-54.252	81.874	
57.00	-54.140	102.162	
58.00	-55.023	122.156	
59.00	-55.608	140.742	
60.00	-56.762	162.324	
61.00	-57.555	-173.984	
62.00	-58.676	-149.370	
63.00	-59.508	-116.386	
64.00	-59.094	-87.593	
65.00	-57.936	-51.693	
66.00	-56.846	-32.766	
67.00	-55.939	-1.584	
68.00	-55.524	14.603	
69.00	-54.893	41.634	
70.00	-55.013	58.409	
71.00	-55.876	87.735	
72.00	-56.070	108.396	
73.00	-55.889	139.148	
74.00	-56.495	166.232	
75.00	-56.164	-158.941	
76.00	-55.904	-141.198	
77.00	-54.961	-107.541	
78.00	-55.233	-88.966	
79.00	-54.993	-57.810	
80.00	-54.513	-36.594	
81.00	-54.248	-10.116	
82.00	-53.900	10.172	
83.00	-53.668	38.024	
84.00	-53.002	61.415	
85.00	-52.705	89.042	
86.00	-52.445	109.169	
87.00	-52.507	134.236	
88.00	-52.130	153.957	
89.00	-52.114	-176.990	
90.00	-52.404	-158.694	
91.00	-52.117	-129.079	
92.00	-52.554	-109.037	
93.00	-52.537	-81.532	
94.00	-52.400	-57.402	
95.00	-52.067	-30.334	
96.00	-51.437	-9.116	
97.00	-50.656	22.403	
98.00	-50.240	53.143	
99.00	-50.110	69.447	
100.00	-50.232	94.196	
101.00	-50.252	109.403	
102.00	-50.668	133.761	
103.00	-50.840	151.847	
104.00	-51.216	173.711	
105.00	-51.636	-167.868	
106.00	-52.162	-145.555	
107.00	-52.702	-123.285	
108.00	-53.132	-100.908	
109.00	-53.182	-77.042	
110.00	-53.912	-55.711	
111.00	-53.960	-35.148	
112.00	-54.149	-18.938	
113.00	-54.374	2.968	
114.00	-55.020	19.409	
115.00	-55.830	38.186	
116.00	-57.042	54.023	
117.00	-59.522	70.010	
118.00	-60.802	81.557	
119.00	-65.878	105.536	
120.00	-70.526	129.546	
121.00	-94.904	138.467	
122.00	-73.996	-34.046	
123.00	-66.835	-13.531	
124.00	-63.362	10.484	
125.00	-60.776	27.088	
126.00	-59.292	47.970	
127.00	-57.762	65.750	
128.00	-55.690	84.398	
129.00	-54.312	102.664	
130.00	-52.608	120.545	
131.00	-51.103	136.759	
132.00	-49.711	152.357	
133.00	-48.254	166.466	
134.00	-46.930	-177.269	
135.00	-45.715	-165.927	
136.00	-44.484	-154.733	
137.00	-43.431	-141.882	
138.00	-42.419	-130.585	
139.00	-41.459	-119.081	
140.00	-40.721	-108.340	
141.00	-39.963	-98.401	
142.00	-39.357	-88.701	
143.00	-38.701	-77.532	
144.00	-38.043	-66.218	
145.00	-37.504	-56.901	
146.00	-36.929	-47.432	
147.00	-36.363	-37.782	
148.00	-35.862	-29.027	
149.00	-35.275	-22.059	
150.00	-34.853	-11.806	
151.00	-34.360	-5.612	
152.00	-33.946	5.159	
153.00	-33.521	11.739	
154.00	-33.137	20.278	
155.00	-32.741	27.722	
156.00	-32.417	33.921	
157.00	-32.088	39.455	
158.00	-31.745	44.912	
159.00	-31.440	50.724	
160.00	-31.178	54.582	
161.00	-30.940	59.276	
162.00	-30.679	63.264	
163.00	-30.475	67.776	
164.00	-30.262	71.020	
165.00	-30.077	73.421	
166.00	-29.903	78.212	
167.00	-29.757	78.925	
168.00	-29.605	81.589	
169.00	-29.491	81.020	
170.00	-29.382	80.960	
171.00	-29.272	83.752	
172.00	-29.161	83.677	
173.00	-29.101	85.133	
174.00	-29.041	86.867	
175.00	-28.977	85.030	
176.00	-28.910	84.498	
177.00	-28.881	81.619	
178.00	-28.834	81.817	
179.00	-28.817	77.651	
180.00	-28.778	77.763	
181.00	-28.808	71.778	
182.00	-28.803	72.245	
183.00	-28.835	64.495	
184.00	-28.863	66.296	
185.00	-28.915	54.527	
186.00	-28.988	52.373	
187.00	-29.054	41.485	
188.00	-29.117	37.538	
189.00	-29.208	26.497	
190.00	-29.330	19.945	
191.00	-29.416	15.567	
192.00	-29.551	5.074	
193.00	-29.687	1.273	
194.00	-29.845	-10.953	
195.00	-30.012	-16.163	
196.00	-30.159	-27.546	
197.00	-30.394	-33.517	
198.00	-30.624	-44.685	
199.00	-30.863	-55.179	
200.00	-31.116	-66.169	
201.00	-31.388	-72.845	
202.00	-31.627	-87.953	
203.00	-31.894	-97.018	
204.00	-32.222	-109.650	
205.00	-32.541	-122.554	
206.00	-32.824	-132.073	
207.00	-33.165	-149.201	
208.00	-33.475	-159.323	
209.00	-33.826	-178.368	
210.00	-34.191	171.461	
211.00	-34.532	155.209	
212.00	-34.879	144.484	
213.00	-35.231	126.585	
214.00	-35.662	114.002	
215.00	-36.062	97.992	
216.00	-36.583	83.389	
217.00	-36.997	67.459	
218.00	-37.589	53.029	
219.00	-38.217	37.071	
220.00	-38.846	22.284	
221.00	-39.487	6.649	
222.00	-40.298	-12.029	
223.00	-41.052	-27.948	
224.00	-41.835	-44.800	
225.00	-42.806	-60.276	
226.00	-43.688	-82.750	
227.00	-44.706	-102.339	
228.00	-45.723	-121.049	
229.00	-46.848	-141.597	
230.00	-47.888	-160.601	
231.00	-49.255	178.188	
232.00	-50.629	159.417	
233.00	-52.594	136.662	
234.00	-54.814	113.603	
235.00	-57.105	88.008	
236.00	-59.794	63.354	
237.00	-64.359	15.704	
238.00	-65.595	-34.273	
239.00	-65.316	-94.217	
240.00	-60.194	-133.271	
241.00	-58.071	-164.405	
242.00	-55.832	167.607	
243.00	-54.244	147.423	
244.00	-53.346	130.239	
245.00	-52.399	107.655	
246.00	-51.763	90.397	
247.00	-51.443	65.097	
248.00	-51.287	45.859	
249.00	-50.816	23.518	
250.00	-51.086	-0.338	
251.00	-50.871	-24.433	
252.00	-50.944	-45.715	
253.00	-50.817	-68.457	
254.00	-50.749	-87.343	
255.00	-51.270	-113.474	
256.00	-51.369	-135.451	
257.00	-51.270	-161.701	
258.00	-51.510	179.424	
259.00	-51.891	153.581	
260.00	-52.316	128.367	
261.00	-52.883	107.448	
262.00	-53.751	81.375	
263.00	-54.679	57.714	
264.00	-55.699	31.548	
265.00	-56.725	2.019	
266.00	-57.357	-17.982	
267.00	-58.391	-57.191	
268.00	-58.448	-84.737	
269.00	-58.394	-117.917	
270.00	-57.770	-147.844	
271.00	-57.081	-170.987	
272.00	-56.406	162.259	
273.00	-56.190	138.488	
274.00	-56.146	115.464	
275.00	-56.395	90.126	
276.00	-56.105	66.589	
277.00	-56.328	46.223	
278.00	-56.428	20.103	
279.00	-56.700	1.733	
280.00	-57.078	-28.294	
281.00	-57.651	-46.721	
282.00	-57.879	-70.577	
283.00	-59.191	-95.007	
284.00	-58.911	-128.478	
285.00	-59.211	-156.724	
286.00	-57.860	165.083	
287.00	-57.479	139.867	
288.00	-56.874	115.307	
289.00	-56.572	94.133	
290.00	-56.346	73.784	
291.00	-56.586	58.869	
292.00	-56.392	46.130	
293.00	-56.564	24.210	
294.00	-57.103	10.436	
295.00	-58.238	-9.427	
296.00	-59.142	-19.474	
297.00	-60.443	-34.225	
298.00	-62.610	-57.462	
299.00	-64.195	-75.689	
300.00	-66.122	-98.878	
301.00	-67.949	-124.002	
302.00	-68.751	-152.939	
303.00	-70.343	-154.189	
304.00	-70.552	175.438	
305.00	-73.059	172.611	
306.00	-71.268	171.410	
307.00	-74.797	-174.254	
308.00	-75.279	166.724	
309.00	-67.012	-178.630	
310.00	-68.095	158.497	
311.00	-67.123	148.950	
312.00	-66.436	141.088	
313.00	-65.115	130.945	
314.00	-63.797	111.951	
315.00	-64.664	88.060	
316.00	-64.347	77.370	
317.00	-61.601	54.288	
318.00	-60.516	50.667	
319.00	-60.482	33.490	
320.00	-59.299	22.340	
321.00	-59.276	15.776	
322.00	-59.564	3.787	
323.00	-59.219	1.492	
324.00	-60.251	-13.519	
325.00	-61.947	-27.652	
326.00	-63.052	-28.561	
327.00	-65.958	-35.168	
328.00	-71.653	-53.838	
329.00	-82.648	54.444	
330.00	-81.841	114.333	
331.00	-72.381	113.906	
332.00	-71.296	109.132	
333.00	-68.725	109.094	
334.00	-67.478	110.052	
335.00	-65.670	96.290	
336.00	-65.427	96.088	
337.00	-64.648	62.782	
338.00	-65.160	74.915	
339.00	-67.583	61.113	
340.00	-68.265	47.818	
341.00	-71.317	59.351	
342.00	-71.401	29.650	
343.00	-74.928	1.886	
344.00	-75.011	-18.613	
345.00	-79.387	-56.954	
346.00	-77.927	-116.920	
347.00	-73.079	-137.434	
348.00	-69.333	-158.705	
349.00	-67.571	-144.275	
350.00	-66.443	-162.885	
351.00	-66.051	-161.557	
352.00	-65.788	-168.102	
353.00	-65.271	-171.115	
354.00	-65.741	-179.825	
355.00	-66.040	-177.847	
356.00	-66.479	166.263	
357.00	-67.906	173.977	
358.00	-69.731	148.760	
359.00	-74.853	130.451	
Frequency	2650.00	MHz	
Channel	test		
Scan Axis name	Azimuth  [deg]		
Scan Axis	Amplitude	Phase	
			
0.00	-59.857	-92.900	
1.00	-61.314	-72.598	
2.00	-61.900	-87.955	
3.00	-59.263	-88.054	
4.00	-62.090	-82.200	
5.00	-61.805	-102.556	
6.00	-60.996	-59.338	
7.00	-64.476	-76.043	
8.00	-63.303	-90.924	
9.00	-66.027	-71.596	
10.00	-66.923	-82.128	
11.00	-71.384	-108.590	
12.00	-80.060	-117.096	
13.00	-68.371	-125.271	
14.00	-70.934	-167.567	
15.00	-64.399	-163.787	
16.00	-64.209	-170.658	
17.00	-63.567	-162.462	
18.00	-61.745	-166.559	
19.00	-60.810	-162.374	
20.00	-59.501	-151.988	
21.00	-59.615	-148.166	
22.00	-59.605	-134.239	
23.00	-57.446	-127.018	
24.00	-57.326	-117.857	
25.00	-57.345	-113.774	
26.00	-56.800	-101.218	
27.00	-56.739	-95.527	
28.00	-56.475	-87.418	
29.00	-56.952	-79.790	
30.00	-57.055	-71.674	
31.00	-58.020	-63.914	
32.00	-59.213	-61.565	
33.00	-60.260	-53.400	
34.00	-63.828	-44.171	
35.00	-66.910	-44.711	
36.00	-74.230	-26.321	
37.00	-91.705	-50.127	
38.00	-74.761	-113.156	
39.00	-72.712	-150.160	
40.00	-67.971	-136.852	
41.00	-65.278	-113.977	
42.00	-63.620	-99.777	
43.00	-62.473	-82.295	
44.00	-60.649	-68.244	
45.00	-59.498	-51.755	
46.00	-58.318	-34.477	
47.00	-57.562	-16.756	
48.00	-56.848	-1.773	
49.00	-56.749	14.544	
50.00	-56.206	37.996	
51.00	-56.098	55.594	
52.00	-56.394	78.063	
53.00	-55.647	96.094	
54.00	-55.318	120.370	
55.00	-54.837	137.746	
56.00	-54.537	158.858	
57.00	-54.564	179.339	
58.00	-54.804	-160.043	
59.00	-54.304	-136.931	
60.00	-54.729	-112.364	
61.00	-54.357	-95.072	
62.00	-54.340	-73.333	
63.00	-54.266	-49.267	
64.00	-54.386	-30.231	
65.00	-53.841	-0.901	
66.00	-53.629	18.609	
67.00	-52.821	47.302	
68.00	-52.468	65.137	
69.00	-51.858	92.135	
70.00	-52.255	108.790	
71.00	-52.265	133.382	
72.00	-52.159	152.891	
73.00	-52.005	-177.837	
74.00	-53.000	-153.259	
75.00	-53.505	-126.127	
76.00	-52.779	-110.944	
77.00	-53.058	-70.380	
78.00	-52.671	-55.450	
79.00	-53.167	-25.532	
80.00	-52.711	-5.578	
81.00	-53.035	16.912	
82.00	-52.961	37.654	
83.00	-53.218	65.656	
84.00	-54.263	89.047	
85.00	-53.321	116.987	
86.00	-53.800	140.275	
87.00	-53.871	171.312	
88.00	-54.520	-167.251	
89.00	-54.423	-134.004	
90.00	-54.615	-118.005	
91.00	-55.082	-86.330	
92.00	-55.393	-63.999	
93.00	-55.069	-31.530	
94.00	-56.458	-5.240	
95.00	-54.746	30.405	
96.00	-53.222	54.668	
97.00	-52.008	93.061	
98.00	-52.218	120.410	
99.00	-51.610	130.654	
100.00	-51.501	160.572	
101.00	-51.529	175.617	
102.00	-51.643	-159.345	
103.00	-51.942	-140.689	
104.00	-51.577	-116.380	
105.00	-52.047	-96.370	
106.00	-52.041	-75.263	
107.00	-52.744	-53.290	
108.00	-52.552	-27.800	
109.00	-53.527	-2.406	
110.00	-53.763	14.275	
111.00	-53.250	37.688	
112.00	-53.306	63.120	
113.00	-53.569	87.648	
114.00	-53.196	106.549	
115.00	-53.466	129.417	
116.00	-53.088	144.071	
117.00	-52.726	163.258	
118.00	-53.036	178.272	
119.00	-54.073	-168.031	
120.00	-54.803	-157.014	
121.00	-55.727	-144.520	
122.00	-58.638	-139.155	
123.00	-60.783	-129.999	
124.00	-65.170	-131.262	
125.00	-69.683	176.854	
126.00	-63.858	168.116	
127.00	-61.503	155.407	
128.00	-58.180	164.769	
129.00	-56.301	177.286	
130.00	-54.592	-169.531	
131.00	-52.977	-159.277	
132.00	-51.454	-143.947	
133.00	-49.913	-133.386	
134.00	-49.188	-116.755	
135.00	-48.061	-103.864	
136.00	-47.187	-92.110	
137.00	-46.406	-79.122	
138.00	-45.434	-67.483	
139.00	-44.430	-52.513	
140.00	-43.726	-42.145	
141.00	-43.041	-31.148	
142.00	-42.287	-19.712	
143.00	-41.600	-7.623	
144.00	-40.735	3.579	
145.00	-40.080	14.187	
146.00	-39.413	24.061	
147.00	-38.738	33.539	
148.00	-38.117	42.199	
149.00	-37.640	49.450	
150.00	-37.000	59.988	
151.00	-36.470	66.692	
152.00	-35.979	77.186	
153.00	-35.503	83.940	
154.00	-35.074	92.136	
155.00	-34.628	99.356	
156.00	-34.252	105.744	
157.00	-33.809	111.038	
158.00	-33.489	116.616	
159.00	-33.184	122.564	
160.00	-32.854	126.498	
161.00	-32.584	131.159	
162.00	-32.293	134.792	
163.00	-32.096	139.579	
164.00	-31.857	142.801	
165.00	-31.658	145.208	
166.00	-31.491	150.233	
167.00	-31.315	151.012	
168.00	-31.176	153.601	
169.00	-31.035	153.021	
170.00	-30.910	152.700	
171.00	-30.817	155.395	
172.00	-30.704	155.225	
173.00	-30.625	156.499	
174.00	-30.511	158.462	
175.00	-30.427	156.167	
176.00	-30.384	155.579	
177.00	-30.338	152.390	
178.00	-30.313	152.669	
179.00	-30.290	148.251	
180.00	-30.262	148.208	
181.00	-30.314	142.194	
182.00	-30.298	142.752	
183.00	-30.337	134.848	
184.00	-30.355	136.904	
185.00	-30.403	124.916	
186.00	-30.458	122.801	
187.00	-30.550	111.974	
188.00	-30.632	107.903	
189.00	-30.723	96.962	
190.00	-30.850	90.126	
191.00	-30.966	85.844	
192.00	-31.103	75.285	
193.00	-31.246	71.586	
194.00	-31.436	58.994	
195.00	-31.617	53.660	
196.00	-31.792	42.200	
197.00	-32.034	36.031	
198.00	-32.242	24.662	
199.00	-32.515	13.830	
200.00	-32.769	2.691	
201.00	-33.047	-4.377	
202.00	-33.349	-19.603	
203.00	-33.650	-29.121	
204.00	-33.925	-41.827	
205.00	-34.290	-55.236	
206.00	-34.549	-64.695	
207.00	-34.936	-82.047	
208.00	-35.196	-92.512	
209.00	-35.544	-111.634	
210.00	-35.849	-121.686	
211.00	-36.232	-138.161	
212.00	-36.586	-148.325	
213.00	-36.969	-166.266	
214.00	-37.425	-178.899	
215.00	-37.865	165.142	
216.00	-38.420	150.529	
217.00	-38.946	134.642	
218.00	-39.525	119.760	
219.00	-40.164	104.027	
220.00	-40.917	89.578	
221.00	-41.628	74.323	
222.00	-42.433	56.226	
223.00	-43.550	40.437	
224.00	-44.573	24.078	
225.00	-45.821	8.981	
226.00	-47.065	-13.577	
227.00	-48.420	-36.620	
228.00	-49.787	-53.454	
229.00	-51.203	-74.032	
230.00	-52.527	-93.345	
231.00	-54.839	-112.246	
232.00	-55.486	-133.795	
233.00	-59.824	-159.848	
234.00	-62.956	-171.226	
235.00	-68.294	141.123	
236.00	-72.674	-13.169	
237.00	-66.144	-36.417	
238.00	-62.131	-57.942	
239.00	-59.533	-71.666	
240.00	-57.339	-97.285	
241.00	-55.210	-122.944	
242.00	-54.070	-145.795	
243.00	-53.659	-166.502	
244.00	-52.474	179.150	
245.00	-53.085	153.253	
246.00	-52.267	130.455	
247.00	-51.810	110.250	
248.00	-51.437	84.661	
249.00	-50.920	63.244	
250.00	-50.797	43.247	
251.00	-50.975	16.630	
252.00	-51.228	-1.777	
253.00	-51.544	-25.176	
254.00	-51.523	-45.187	
255.00	-51.791	-70.048	
256.00	-52.790	-91.361	
257.00	-52.748	-125.480	
258.00	-54.215	-144.841	
259.00	-53.049	-177.191	
260.00	-53.136	155.204	
261.00	-53.175	129.305	
262.00	-54.067	100.396	
263.00	-53.513	77.773	
264.00	-53.340	57.604	
265.00	-54.190	31.131	
266.00	-54.630	12.484	
267.00	-55.800	-19.040	
268.00	-55.478	-34.703	
269.00	-56.049	-73.269	
270.00	-55.776	-104.679	
271.00	-55.819	-132.839	
272.00	-54.243	-156.814	
273.00	-54.227	173.107	
274.00	-53.749	154.870	
275.00	-53.792	127.990	
276.00	-54.804	106.173	
277.00	-53.782	88.321	
278.00	-54.313	60.809	
279.00	-54.803	49.332	
280.00	-55.611	19.145	
281.00	-56.518	0.453	
282.00	-57.557	-22.497	
283.00	-57.698	-42.222	
284.00	-59.761	-67.560	
285.00	-60.870	-104.071	
286.00	-60.426	-151.091	
287.00	-61.230	-174.898	
288.00	-60.595	153.682	
289.00	-59.319	123.328	
290.00	-59.879	104.140	
291.00	-61.213	80.385	
292.00	-61.495	64.921	
293.00	-61.042	33.112	
294.00	-61.218	7.225	
295.00	-63.069	-24.834	
296.00	-62.147	-49.946	
297.00	-61.418	-67.235	
298.00	-61.247	-87.689	
299.00	-60.856	-114.891	
300.00	-62.878	-129.482	
301.00	-64.388	-159.479	
302.00	-65.483	172.039	
303.00	-64.283	131.865	
304.00	-64.041	105.766	
305.00	-61.939	80.258	
306.00	-61.262	63.195	
307.00	-60.179	59.212	
308.00	-61.312	50.536	
309.00	-61.652	39.181	
310.00	-62.118	18.731	
311.00	-65.548	17.537	
312.00	-67.355	0.554	
313.00	-72.593	-9.561	
314.00	-69.925	-9.584	
315.00	-86.230	15.621	
316.00	-75.106	30.720	
317.00	-69.019	40.884	
318.00	-68.116	42.604	
319.00	-68.635	35.308	
320.00	-65.066	31.156	
321.00	-65.141	23.475	
322.00	-63.379	20.043	
323.00	-63.915	22.847	
324.00	-63.924	5.249	
325.00	-64.094	0.821	
326.00	-66.481	-10.794	
327.00	-67.861	-10.691	
328.00	-68.839	-8.025	
329.00	-72.264	-37.141	
330.00	-78.556	-21.544	
331.00	-80.450	-69.418	
332.00	-94.654	-58.295	
333.00	-76.939	-165.640	
334.00	-87.748	-33.702	
335.00	-78.374	125.256	
336.00	-79.709	83.904	
337.00	-72.010	54.915	
338.00	-76.557	91.384	
339.00	-72.320	21.021	
340.00	-76.846	27.153	
341.00	-76.839	-24.588	
342.00	-73.407	-24.663	
343.00	-68.545	-75.896	
344.00	-68.238	-82.742	
345.00	-68.632	-96.909	
346.00	-66.397	-90.285	
347.00	-66.294	-109.060	
348.00	-66.811	-109.019	
349.00	-66.977	-100.986	
350.00	-62.907	-102.068	
351.00	-61.377	-109.846	
352.00	-64.497	-128.918	
353.00	-63.486	-142.292	
354.00	-61.616	-133.835	
355.00	-62.502	-129.272	
356.00	-60.081	-121.829	
357.00	-61.094	-119.896	
358.00	-61.905	-119.116	
359.00	-60.982	-121.733	
Frequency	2700.00	MHz	
Channel	test		
Scan Axis name	Azimuth  [deg]		
Scan Axis	Amplitude	Phase	
			
0.00	-64.689	-18.134	
1.00	-63.941	-3.793	
2.00	-65.525	6.128	
3.00	-63.113	13.973	
4.00	-65.355	28.758	
5.00	-63.976	39.118	
6.00	-63.424	53.235	
7.00	-61.265	63.163	
8.00	-61.507	71.275	
9.00	-61.031	70.008	
10.00	-60.298	87.423	
11.00	-60.098	90.577	
12.00	-59.852	95.427	
13.00	-60.333	98.667	
14.00	-61.463	107.997	
15.00	-60.783	111.500	
16.00	-61.840	120.036	
17.00	-63.161	118.905	
18.00	-64.905	131.194	
19.00	-66.782	156.053	
20.00	-73.981	172.128	
21.00	-78.289	-90.782	
22.00	-66.983	-68.004	
23.00	-64.652	-57.492	
24.00	-61.435	-47.667	
25.00	-59.276	-36.635	
26.00	-58.962	-22.657	
27.00	-57.935	-16.065	
28.00	-57.243	-9.587	
29.00	-56.530	5.004	
30.00	-56.618	16.232	
31.00	-56.053	27.411	
32.00	-55.939	38.401	
33.00	-56.082	51.129	
34.00	-56.226	64.739	
35.00	-55.439	71.637	
36.00	-57.850	90.304	
37.00	-58.764	96.236	
38.00	-60.365	115.351	
39.00	-63.921	142.492	
40.00	-65.344	164.078	
41.00	-67.026	-139.114	
42.00	-64.181	-97.976	
43.00	-62.155	-67.284	
44.00	-59.861	-44.496	
45.00	-57.951	-31.373	
46.00	-57.316	-13.994	
47.00	-56.775	5.573	
48.00	-56.485	13.828	
49.00	-55.975	36.126	
50.00	-55.892	54.552	
51.00	-56.472	75.075	
52.00	-55.893	97.475	
53.00	-58.845	112.687	
54.00	-57.130	145.934	
55.00	-57.758	162.047	
56.00	-56.636	-174.557	
57.00	-57.485	-139.087	
58.00	-56.842	-112.223	
59.00	-57.665	-84.369	
60.00	-56.452	-66.893	
61.00	-58.502	-46.276	
62.00	-56.942	-21.944	
63.00	-56.348	4.004	
64.00	-55.008	22.365	
65.00	-54.081	50.609	
66.00	-53.746	63.094	
67.00	-53.848	93.969	
68.00	-54.691	117.447	
69.00	-54.358	142.878	
70.00	-53.504	160.729	
71.00	-53.531	-170.321	
72.00	-54.171	-142.926	
73.00	-54.352	-115.577	
74.00	-55.084	-99.011	
75.00	-55.299	-65.153	
76.00	-56.478	-49.283	
77.00	-55.192	-14.451	
78.00	-55.204	9.755	
79.00	-57.220	54.122	
80.00	-53.883	79.389	
81.00	-55.174	109.601	
82.00	-54.475	124.760	
83.00	-54.479	151.610	
84.00	-52.836	-177.023	
85.00	-51.982	-156.550	
86.00	-53.780	-135.394	
87.00	-52.462	-101.892	
88.00	-52.051	-81.609	
89.00	-53.123	-59.184	
90.00	-53.306	-35.939	
91.00	-52.779	-2.160	
92.00	-52.728	23.452	
93.00	-51.503	50.310	
94.00	-52.277	71.693	
95.00	-51.949	99.441	
96.00	-51.524	124.442	
97.00	-50.166	151.814	
98.00	-50.688	-174.018	
99.00	-49.917	-155.284	
100.00	-50.721	-121.518	
101.00	-49.627	-109.237	
102.00	-50.467	-80.355	
103.00	-50.347	-58.545	
104.00	-49.895	-35.691	
105.00	-50.223	-24.358	
106.00	-50.189	0.821	
107.00	-50.694	19.404	
108.00	-50.445	45.252	
109.00	-50.676	73.441	
110.00	-51.429	93.220	
111.00	-51.321	113.506	
112.00	-51.073	137.079	
113.00	-51.807	164.105	
114.00	-52.098	176.089	
115.00	-52.325	-157.021	
116.00	-51.983	-142.726	
117.00	-53.188	-120.615	
118.00	-52.707	-103.386	
119.00	-54.415	-82.260	
120.00	-55.822	-60.064	
121.00	-57.892	-44.197	
122.00	-58.552	-26.864	
123.00	-62.344	-5.641	
124.00	-64.887	22.738	
125.00	-71.889	88.718	
126.00	-69.646	158.498	
127.00	-63.412	-166.772	
128.00	-59.517	-141.462	
129.00	-56.795	-122.406	
130.00	-54.677	-103.106	
131.00	-53.139	-87.925	
132.00	-52.204	-73.078	
133.00	-50.558	-61.053	
134.00	-49.819	-45.513	
135.00	-48.944	-30.736	
136.00	-48.022	-15.614	
137.00	-47.148	-0.977	
138.00	-46.688	12.647	
139.00	-45.673	26.881	
140.00	-44.745	38.692	
141.00	-44.195	51.174	
142.00	-43.344	61.905	
143.00	-42.643	75.700	
144.00	-41.948	86.712	
145.00	-41.322	96.958	
146.00	-40.663	106.952	
147.00	-40.041	116.900	
148.00	-39.308	126.085	
149.00	-38.856	133.028	
150.00	-38.297	144.455	
151.00	-37.778	150.959	
152.00	-37.288	161.796	
153.00	-36.778	168.790	
154.00	-36.319	177.793	
155.00	-35.816	-174.778	
156.00	-35.447	-168.073	
157.00	-35.002	-162.599	
158.00	-34.635	-157.137	
159.00	-34.272	-151.108	
160.00	-33.952	-146.883	
161.00	-33.597	-142.268	
162.00	-33.278	-138.241	
163.00	-33.021	-133.342	
164.00	-32.719	-129.969	
165.00	-32.511	-127.441	
166.00	-32.275	-122.437	
167.00	-32.049	-121.771	
168.00	-31.891	-119.131	
169.00	-31.704	-119.496	
170.00	-31.570	-119.924	
171.00	-31.444	-117.257	
172.00	-31.316	-117.358	
173.00	-31.189	-116.273	
174.00	-31.123	-114.067	
175.00	-31.063	-116.200	
176.00	-30.987	-116.719	
177.00	-30.940	-119.817	
178.00	-30.899	-119.612	
179.00	-30.913	-123.919	
180.00	-30.896	-123.642	
181.00	-30.892	-129.859	
182.00	-30.907	-129.476	
183.00	-30.947	-137.434	
184.00	-31.005	-135.491	
185.00	-31.055	-147.305	
186.00	-31.126	-149.937	
187.00	-31.200	-160.901	
188.00	-31.309	-165.112	
189.00	-31.432	-176.138	
190.00	-31.542	176.878	
191.00	-31.685	172.476	
192.00	-31.860	161.404	
193.00	-32.004	157.456	
194.00	-32.181	144.814	
195.00	-32.368	139.039	
196.00	-32.550	127.346	
197.00	-32.749	120.655	
198.00	-32.921	108.810	
199.00	-33.196	97.985	
200.00	-33.406	87.160	
201.00	-33.698	79.951	
202.00	-33.886	64.710	
203.00	-34.190	54.723	
204.00	-34.412	43.032	
205.00	-34.744	29.661	
206.00	-35.015	20.701	
207.00	-35.395	3.536	
208.00	-35.854	-6.165	
209.00	-36.263	-24.645	
210.00	-36.711	-35.251	
211.00	-37.278	-51.274	
212.00	-37.797	-61.629	
213.00	-38.351	-79.746	
214.00	-38.964	-93.465	
215.00	-39.662	-110.310	
216.00	-40.307	-126.516	
217.00	-40.937	-142.881	
218.00	-41.665	-159.337	
219.00	-42.352	-176.513	
220.00	-43.017	167.604	
221.00	-43.817	151.222	
222.00	-44.607	130.963	
223.00	-45.434	114.690	
224.00	-46.289	97.176	
225.00	-47.203	82.339	
226.00	-48.198	60.937	
227.00	-49.130	44.468	
228.00	-50.643	27.718	
229.00	-52.580	13.784	
230.00	-55.312	3.482	
231.00	-57.980	-12.113	
232.00	-61.809	-18.595	
233.00	-66.990	-8.326	
234.00	-66.708	21.525	
235.00	-62.642	41.677	
236.00	-59.723	25.461	
237.00	-57.009	9.806	
238.00	-55.169	-1.390	
239.00	-53.598	-22.623	
240.00	-53.014	-39.240	
241.00	-51.847	-59.269	
242.00	-51.194	-79.110	
243.00	-50.865	-99.328	
244.00	-50.592	-116.278	
245.00	-50.478	-139.047	
246.00	-50.467	-159.650	
247.00	-50.375	174.489	
248.00	-50.633	152.955	
249.00	-50.674	127.496	
250.00	-50.739	101.665	
251.00	-50.405	73.120	
252.00	-50.295	51.216	
253.00	-49.844	29.473	
254.00	-49.736	8.996	
255.00	-49.843	-14.138	
256.00	-50.062	-35.038	
257.00	-50.490	-62.213	
258.00	-51.105	-81.774	
259.00	-51.462	-112.216	
260.00	-51.291	-141.370	
261.00	-51.431	-164.199	
262.00	-51.688	169.032	
263.00	-52.157	144.726	
264.00	-52.845	121.826	
265.00	-53.148	90.574	
266.00	-53.774	73.100	
267.00	-53.669	37.255	
268.00	-53.892	15.556	
269.00	-53.319	-11.630	
270.00	-53.569	-32.389	
271.00	-53.765	-50.794	
272.00	-54.196	-83.022	
273.00	-55.178	-109.449	
274.00	-56.247	-134.429	
275.00	-56.084	-161.968	
276.00	-57.352	166.138	
277.00	-58.472	156.622	
278.00	-57.591	120.143	
279.00	-58.203	84.580	
280.00	-57.913	56.043	
281.00	-57.739	32.862	
282.00	-57.994	7.137	
283.00	-58.285	-17.441	
284.00	-59.040	-44.589	
285.00	-59.967	-74.908	
286.00	-60.484	-102.180	
287.00	-60.722	-144.115	
288.00	-60.305	-174.875	
289.00	-57.924	146.141	
290.00	-57.773	129.569	
291.00	-57.196	111.040	
292.00	-56.819	95.197	
293.00	-56.924	64.554	
294.00	-57.221	54.898	
295.00	-57.604	34.822	
296.00	-57.656	14.403	
297.00	-58.658	-8.541	
298.00	-58.579	-26.763	
299.00	-60.737	-54.469	
300.00	-60.249	-76.872	
301.00	-60.891	-110.436	
302.00	-60.657	-120.317	
303.00	-59.856	-155.677	
304.00	-62.840	-168.887	
305.00	-62.041	-178.285	
306.00	-63.983	169.502	
307.00	-63.900	141.754	
308.00	-68.960	156.444	
309.00	-70.342	113.483	
310.00	-83.207	87.081	
311.00	-82.934	-70.285	
312.00	-76.849	-94.448	
313.00	-73.242	-106.052	
314.00	-67.218	-133.998	
315.00	-66.857	-146.422	
316.00	-63.477	-158.235	
317.00	-62.686	-170.366	
318.00	-63.147	175.304	
319.00	-64.085	-179.836	
320.00	-63.821	168.529	
321.00	-65.466	155.149	
322.00	-66.737	171.157	
323.00	-67.076	134.950	
324.00	-68.453	140.955	
325.00	-70.859	153.632	
326.00	-69.131	-173.065	
327.00	-66.808	-177.696	
328.00	-63.982	-176.113	
329.00	-62.524	177.803	
330.00	-62.154	165.239	
331.00	-61.558	171.535	
332.00	-59.059	168.552	
333.00	-59.603	160.313	
334.00	-59.095	156.580	
335.00	-58.100	151.464	
336.00	-58.826	141.312	
337.00	-60.207	133.036	
338.00	-59.205	133.783	
339.00	-59.624	136.601	
340.00	-60.300	127.386	
341.00	-61.652	105.955	
342.00	-61.627	107.170	
343.00	-63.343	117.306	
344.00	-65.107	76.718	
345.00	-65.520	74.301	
346.00	-68.546	55.528	
347.00	-67.732	30.027	
348.00	-68.692	11.969	
349.00	-69.288	-6.827	
350.00	-67.005	-23.300	
351.00	-67.274	-22.979	
352.00	-64.929	-41.475	
353.00	-64.435	-43.137	
354.00	-63.588	-46.814	
355.00	-64.251	-45.585	
356.00	-63.945	-46.845	
357.00	-65.189	-51.050	
358.00	-64.134	-53.043	
359.00	-63.351	-52.247	
