Test Title:	Alpha Wireless Indoor Range						
Date:	03/11/2017						
Time:	09:56						
Operator Name:	FL						
Comment:	Version 2 Run 2
Cable length changed						
Caib. File Name:	C:\Program Files\Midas 2.01d\Calibration Files\test sigma 180900.cal						
							
[Scan Axis] Name: 	Azimuth  [deg]Start: 	0.000000	Stop	359.000000	Increment	1.000000[Step Axis] Name: 	Start: 	0.000000	Stop	0.000000	Increment	0.000000[Tert] Name: 	None [Forth] Name: 	None  [ Freq.]  (List) 	MHz.	1694.000000	1710.000000	1800.000000	1850.000000	1950.000000	2050.000000	2170.000000	2300.000000	2350.000000	2400.000000	2450.000000	2496.000000	2550.000000	2600.000000	2650.000000	2700.000000
 [Switch]  	None [Channel]  	test			 [ Beam] 	None			
Database:			
First Question			
2nd			
3rd			
4th			
			
Frequency	1694.00	MHz	
Channel	test		
Scan Axis name	Azimuth  [deg]		
Scan Axis	Amplitude	Phase	
			
0.00	-65.426	109.953	
1.00	-62.254	115.526	
2.00	-62.276	115.205	
3.00	-61.748	110.756	
4.00	-61.200	109.733	
5.00	-61.695	102.179	
6.00	-60.926	98.565	
7.00	-60.396	99.415	
8.00	-60.349	95.183	
9.00	-62.101	90.948	
10.00	-60.142	75.368	
11.00	-60.768	79.146	
12.00	-60.180	71.952	
13.00	-60.848	66.125	
14.00	-59.237	51.416	
15.00	-60.884	54.589	
16.00	-58.648	31.566	
17.00	-58.894	43.324	
18.00	-58.340	25.997	
19.00	-58.499	37.334	
20.00	-58.212	27.776	
21.00	-56.989	36.218	
22.00	-57.920	27.562	
23.00	-56.188	32.326	
24.00	-56.590	28.967	
25.00	-55.900	37.642	
26.00	-56.104	38.384	
27.00	-55.073	40.971	
28.00	-54.647	47.405	
29.00	-54.816	56.587	
30.00	-55.033	57.222	
31.00	-54.511	61.965	
32.00	-55.645	68.868	
33.00	-55.296	78.323	
34.00	-55.535	83.799	
35.00	-55.688	97.329	
36.00	-56.233	102.254	
37.00	-56.257	114.913	
38.00	-56.346	130.460	
39.00	-56.562	138.036	
40.00	-56.889	161.234	
41.00	-56.543	169.454	
42.00	-56.239	-174.516	
43.00	-54.933	-163.947	
44.00	-54.687	-145.670	
45.00	-53.385	-137.996	
46.00	-52.902	-124.178	
47.00	-51.827	-117.165	
48.00	-51.782	-101.495	
49.00	-51.102	-98.883	
50.00	-50.658	-87.781	
51.00	-50.332	-76.879	
52.00	-50.070	-74.762	
53.00	-49.861	-56.362	
54.00	-50.039	-53.642	
55.00	-50.007	-36.940	
56.00	-49.701	-32.449	
57.00	-50.200	-18.459	
58.00	-50.429	-8.895	
59.00	-51.135	2.758	
60.00	-51.273	9.938	
61.00	-52.317	18.034	
62.00	-52.497	33.167	
63.00	-53.058	53.469	
64.00	-53.192	64.658	
65.00	-54.034	79.837	
66.00	-53.347	101.457	
67.00	-53.240	120.640	
68.00	-52.636	135.141	
69.00	-53.704	151.298	
70.00	-51.842	165.624	
71.00	-51.848	-179.075	
72.00	-52.322	-164.035	
73.00	-51.289	-148.756	
74.00	-52.350	-138.786	
75.00	-52.564	-125.889	
76.00	-52.138	-111.824	
77.00	-52.273	-97.576	
78.00	-52.755	-83.529	
79.00	-52.351	-74.253	
80.00	-52.568	-56.758	
81.00	-52.312	-37.762	
82.00	-51.858	-28.942	
83.00	-52.744	-15.427	
84.00	-52.558	0.478	
85.00	-51.890	11.167	
86.00	-52.302	24.800	
87.00	-53.239	35.848	
88.00	-53.233	53.106	
89.00	-53.918	66.078	
90.00	-54.269	81.076	
91.00	-54.797	98.663	
92.00	-55.748	118.185	
93.00	-55.230	132.160	
94.00	-56.460	151.016	
95.00	-56.454	178.642	
96.00	-57.350	-169.864	
97.00	-56.276	-143.700	
98.00	-55.307	-130.059	
99.00	-56.341	-105.975	
100.00	-56.281	-93.073	
101.00	-56.691	-72.604	
102.00	-56.260	-45.049	
103.00	-56.014	-26.098	
104.00	-54.607	-13.626	
105.00	-56.031	1.601	
106.00	-54.101	22.715	
107.00	-54.353	36.453	
108.00	-52.566	35.747	
109.00	-53.368	62.876	
110.00	-53.715	73.840	
111.00	-53.580	86.632	
112.00	-54.781	93.324	
113.00	-55.018	110.741	
114.00	-56.313	130.188	
115.00	-56.389	146.389	
116.00	-56.729	167.442	
117.00	-57.170	177.386	
118.00	-57.982	-162.941	
119.00	-58.726	-145.573	
120.00	-60.413	-142.050	
121.00	-60.782	-117.996	
122.00	-63.500	-98.013	
123.00	-66.961	-101.607	
124.00	-73.320	-129.547	
125.00	-68.821	120.806	
126.00	-61.317	127.824	
127.00	-58.098	128.780	
128.00	-54.810	144.220	
129.00	-52.325	148.730	
130.00	-49.756	157.720	
131.00	-48.205	165.480	
132.00	-47.028	-177.271	
133.00	-45.936	-170.267	
134.00	-44.508	-154.566	
135.00	-43.478	-145.273	
136.00	-42.523	-134.039	
137.00	-41.968	-120.806	
138.00	-41.082	-113.684	
139.00	-40.479	-98.803	
140.00	-39.776	-91.033	
141.00	-39.208	-81.535	
142.00	-38.865	-72.818	
143.00	-38.294	-60.556	
144.00	-37.790	-51.581	
145.00	-37.423	-39.425	
146.00	-36.975	-30.997	
147.00	-36.478	-19.799	
148.00	-36.056	-9.228	
149.00	-35.665	1.818	
150.00	-35.192	11.291	
151.00	-34.754	21.916	
152.00	-34.409	26.971	
153.00	-33.901	39.247	
154.00	-33.548	45.281	
155.00	-33.153	51.476	
156.00	-32.788	59.417	
157.00	-32.413	67.039	
158.00	-32.084	75.090	
159.00	-31.695	81.653	
160.00	-31.397	88.847	
161.00	-31.167	97.026	
162.00	-30.844	104.974	
163.00	-30.634	113.781	
164.00	-30.432	118.277	
165.00	-30.234	124.896	
166.00	-30.089	133.706	
167.00	-29.922	137.539	
168.00	-29.677	146.641	
169.00	-29.580	149.727	
170.00	-29.383	156.572	
171.00	-29.298	162.159	
172.00	-29.171	165.756	
173.00	-29.047	170.734	
174.00	-28.935	177.030	
175.00	-28.829	-179.955	
176.00	-28.721	-175.303	
177.00	-28.690	-173.226	
178.00	-28.603	-171.120	
179.00	-28.555	-161.371	
180.00	-28.528	-161.096	
181.00	-28.443	-158.045	
182.00	-28.446	-154.129	
183.00	-28.398	-154.047	
184.00	-28.348	-154.161	
185.00	-28.347	-147.889	
186.00	-28.353	-147.349	
187.00	-28.329	-145.309	
188.00	-28.348	-146.376	
189.00	-28.317	-144.681	
190.00	-28.346	-142.133	
191.00	-28.337	-139.286	
192.00	-28.363	-138.725	
193.00	-28.358	-138.445	
194.00	-28.344	-140.439	
195.00	-28.354	-134.822	
196.00	-28.388	-138.812	
197.00	-28.385	-135.402	
198.00	-28.415	-137.491	
199.00	-28.428	-140.907	
200.00	-28.443	-143.089	
201.00	-28.522	-141.316	
202.00	-28.512	-142.568	
203.00	-28.575	-144.109	
204.00	-28.601	-151.098	
205.00	-28.642	-150.916	
206.00	-28.701	-153.120	
207.00	-28.751	-160.364	
208.00	-28.832	-164.936	
209.00	-28.875	-169.988	
210.00	-29.003	-170.585	
211.00	-29.049	-175.631	
212.00	-29.137	-178.128	
213.00	-29.270	176.083	
214.00	-29.356	172.421	
215.00	-29.503	165.314	
216.00	-29.623	162.241	
217.00	-29.783	150.559	
218.00	-29.906	142.357	
219.00	-30.082	138.003	
220.00	-30.257	129.135	
221.00	-30.445	124.304	
222.00	-30.630	113.484	
223.00	-30.768	108.616	
224.00	-30.983	100.149	
225.00	-31.175	90.934	
226.00	-31.439	82.926	
227.00	-31.602	74.743	
228.00	-31.877	61.244	
229.00	-32.051	51.751	
230.00	-32.230	42.818	
231.00	-32.400	36.871	
232.00	-32.572	23.675	
233.00	-32.800	14.558	
234.00	-33.010	2.019	
235.00	-33.150	-1.848	
236.00	-33.385	-14.255	
237.00	-33.626	-21.344	
238.00	-33.762	-34.164	
239.00	-34.038	-45.661	
240.00	-34.313	-57.365	
241.00	-34.557	-64.627	
242.00	-34.787	-81.990	
243.00	-35.030	-88.745	
244.00	-35.251	-102.137	
245.00	-35.512	-111.795	
246.00	-35.658	-123.045	
247.00	-35.940	-136.162	
248.00	-36.235	-153.815	
249.00	-36.379	-165.301	
250.00	-36.590	-176.208	
251.00	-36.885	175.483	
252.00	-37.110	153.940	
253.00	-37.313	152.902	
254.00	-37.669	130.983	
255.00	-38.032	123.070	
256.00	-38.478	110.997	
257.00	-38.801	92.381	
258.00	-39.189	82.809	
259.00	-39.570	63.452	
260.00	-39.934	51.814	
261.00	-40.236	38.425	
262.00	-40.695	22.825	
263.00	-41.118	10.121	
264.00	-41.493	-3.613	
265.00	-41.825	-23.709	
266.00	-42.057	-36.736	
267.00	-42.179	-55.307	
268.00	-42.310	-69.515	
269.00	-42.478	-86.200	
270.00	-42.550	-96.644	
271.00	-42.786	-114.175	
272.00	-43.149	-128.459	
273.00	-43.255	-138.901	
274.00	-43.405	-159.187	
275.00	-43.539	-169.729	
276.00	-43.719	176.535	
277.00	-44.103	161.712	
278.00	-44.438	150.831	
279.00	-44.731	135.553	
280.00	-44.885	122.684	
281.00	-45.647	105.442	
282.00	-45.966	82.619	
283.00	-46.729	66.363	
284.00	-47.291	48.629	
285.00	-48.426	26.818	
286.00	-49.068	10.150	
287.00	-49.720	-12.339	
288.00	-50.301	-30.825	
289.00	-50.227	-53.896	
290.00	-50.240	-76.747	
291.00	-49.734	-94.710	
292.00	-49.172	-113.710	
293.00	-48.658	-130.331	
294.00	-48.580	-141.917	
295.00	-48.067	-158.796	
296.00	-47.884	-173.649	
297.00	-47.798	174.032	
298.00	-47.593	159.123	
299.00	-47.426	145.100	
300.00	-47.647	128.887	
301.00	-47.693	115.266	
302.00	-47.892	100.465	
303.00	-48.120	88.107	
304.00	-48.268	74.110	
305.00	-48.305	55.565	
306.00	-48.183	42.963	
307.00	-48.030	23.131	
308.00	-47.789	11.911	
309.00	-48.171	-5.067	
310.00	-47.972	-17.580	
311.00	-47.968	-28.683	
312.00	-48.045	-39.683	
313.00	-47.910	-56.461	
314.00	-48.436	-65.570	
315.00	-48.627	-83.684	
316.00	-48.453	-95.983	
317.00	-48.916	-111.670	
318.00	-48.816	-125.246	
319.00	-49.419	-140.149	
320.00	-49.588	-151.965	
321.00	-50.006	-165.043	
322.00	-49.600	179.105	
323.00	-49.211	162.496	
324.00	-49.139	146.236	
325.00	-48.687	133.595	
326.00	-48.669	122.618	
327.00	-48.260	111.524	
328.00	-47.993	102.339	
329.00	-47.777	93.246	
330.00	-47.328	82.816	
331.00	-47.338	78.632	
332.00	-47.092	66.789	
333.00	-47.155	60.980	
334.00	-47.056	47.615	
335.00	-47.525	44.240	
336.00	-47.189	31.684	
337.00	-47.315	25.574	
338.00	-47.563	15.498	
339.00	-47.830	12.784	
340.00	-48.189	5.874	
341.00	-48.717	5.064	
342.00	-49.082	-8.232	
343.00	-49.752	-9.885	
344.00	-49.766	-14.970	
345.00	-50.839	-20.962	
346.00	-50.997	-26.665	
347.00	-52.014	-32.027	
348.00	-53.106	-32.027	
349.00	-54.569	-34.074	
350.00	-55.438	-40.912	
351.00	-56.901	-42.598	
352.00	-58.471	-42.559	
353.00	-60.709	-42.751	
354.00	-63.163	-40.761	
355.00	-66.793	-45.367	
356.00	-69.061	-35.151	
357.00	-85.750	-156.004	
358.00	-73.467	108.761	
359.00	-70.069	106.010	
Frequency	1710.00	MHz	
Channel	test		
Scan Axis name	Azimuth  [deg]		
Scan Axis	Amplitude	Phase	
			
0.00	-67.328	12.777	
1.00	-64.899	53.913	
2.00	-62.855	63.844	
3.00	-61.202	60.661	
4.00	-60.025	52.112	
5.00	-58.632	56.180	
6.00	-60.498	60.019	
7.00	-57.969	69.218	
8.00	-59.466	60.489	
9.00	-57.353	60.681	
10.00	-60.216	58.192	
11.00	-60.208	68.906	
12.00	-60.281	67.554	
13.00	-60.193	43.173	
14.00	-61.253	42.285	
15.00	-62.402	29.470	
16.00	-62.303	22.091	
17.00	-65.092	3.802	
18.00	-63.234	-13.194	
19.00	-62.655	-17.164	
20.00	-62.592	-41.848	
21.00	-59.202	-40.100	
22.00	-59.849	-54.794	
23.00	-56.868	-45.909	
24.00	-56.552	-56.242	
25.00	-55.835	-37.003	
26.00	-55.871	-52.864	
27.00	-55.466	-50.997	
28.00	-55.310	-49.621	
29.00	-55.586	-55.604	
30.00	-54.516	-50.975	
31.00	-55.807	-45.106	
32.00	-55.640	-42.390	
33.00	-57.515	-36.790	
34.00	-57.515	-23.416	
35.00	-60.287	-17.592	
36.00	-62.634	-0.842	
37.00	-67.772	20.043	
38.00	-63.260	59.803	
39.00	-62.705	82.467	
40.00	-63.251	122.366	
41.00	-59.057	127.153	
42.00	-57.181	140.267	
43.00	-55.750	146.189	
44.00	-54.180	166.324	
45.00	-53.448	165.573	
46.00	-52.888	178.081	
47.00	-51.870	-175.849	
48.00	-51.616	-158.628	
49.00	-51.900	-151.058	
50.00	-51.777	-154.715	
51.00	-51.242	-137.496	
52.00	-50.376	-134.099	
53.00	-50.506	-117.315	
54.00	-49.958	-116.511	
55.00	-50.233	-90.879	
56.00	-50.750	-91.564	
57.00	-49.809	-81.757	
58.00	-51.214	-68.739	
59.00	-50.596	-59.642	
60.00	-52.216	-42.453	
61.00	-52.493	-28.770	
62.00	-52.815	-25.140	
63.00	-54.494	-7.738	
64.00	-54.259	2.604	
65.00	-54.403	25.205	
66.00	-55.734	42.937	
67.00	-53.498	68.988	
68.00	-55.829	90.938	
69.00	-53.861	98.207	
70.00	-53.431	118.563	
71.00	-53.862	132.178	
72.00	-53.825	144.314	
73.00	-52.597	164.554	
74.00	-53.213	172.746	
75.00	-52.877	-167.924	
76.00	-52.946	-151.508	
77.00	-51.647	-153.632	
78.00	-52.412	-124.317	
79.00	-51.352	-112.215	
80.00	-51.358	-96.275	
81.00	-51.673	-82.632	
82.00	-51.892	-77.519	
83.00	-51.290	-60.844	
84.00	-51.018	-45.546	
85.00	-51.668	-36.956	
86.00	-52.100	-25.605	
87.00	-51.812	-7.161	
88.00	-52.410	10.535	
89.00	-53.536	24.136	
90.00	-54.458	32.745	
91.00	-54.221	52.387	
92.00	-55.079	70.041	
93.00	-56.638	95.640	
94.00	-54.589	107.951	
95.00	-54.492	131.619	
96.00	-55.538	126.242	
97.00	-54.970	170.910	
98.00	-57.110	-172.046	
99.00	-54.904	-144.918	
100.00	-55.101	-134.327	
101.00	-54.487	-116.343	
102.00	-53.908	-98.787	
103.00	-53.629	-86.439	
104.00	-53.809	-78.368	
105.00	-53.750	-52.588	
106.00	-53.582	-50.350	
107.00	-54.280	-46.750	
108.00	-53.800	-18.651	
109.00	-52.985	-1.392	
110.00	-53.440	-1.374	
111.00	-55.562	14.416	
112.00	-54.417	17.187	
113.00	-55.055	29.299	
114.00	-55.895	39.514	
115.00	-60.198	55.203	
116.00	-59.477	63.329	
117.00	-63.250	67.978	
118.00	-62.100	84.302	
119.00	-68.018	74.694	
120.00	-64.310	78.763	
121.00	-62.463	68.166	
122.00	-65.741	89.815	
123.00	-59.327	45.827	
124.00	-56.966	68.644	
125.00	-57.009	65.145	
126.00	-54.021	84.663	
127.00	-52.698	91.954	
128.00	-50.438	100.767	
129.00	-48.657	113.285	
130.00	-46.990	125.161	
131.00	-45.944	134.244	
132.00	-44.639	150.403	
133.00	-43.779	158.896	
134.00	-42.506	176.096	
135.00	-41.852	-176.410	
136.00	-40.813	-165.210	
137.00	-39.931	-151.435	
138.00	-39.010	-145.513	
139.00	-38.540	-130.754	
140.00	-37.853	-120.825	
141.00	-37.190	-113.085	
142.00	-36.630	-104.305	
143.00	-36.305	-93.351	
144.00	-35.775	-85.295	
145.00	-35.298	-73.475	
146.00	-34.884	-65.380	
147.00	-34.530	-54.953	
148.00	-34.036	-46.313	
149.00	-33.731	-35.013	
150.00	-33.375	-26.559	
151.00	-32.981	-16.318	
152.00	-32.593	-11.584	
153.00	-32.271	0.386	
154.00	-31.972	6.537	
155.00	-31.612	12.779	
156.00	-31.306	21.073	
157.00	-31.049	28.159	
158.00	-30.797	36.670	
159.00	-30.408	43.668	
160.00	-30.095	51.040	
161.00	-29.827	59.105	
162.00	-29.617	67.172	
163.00	-29.359	75.494	
164.00	-29.224	80.196	
165.00	-29.012	86.130	
166.00	-28.941	95.171	
167.00	-28.820	98.844	
168.00	-28.646	108.133	
169.00	-28.501	110.811	
170.00	-28.419	117.654	
171.00	-28.250	123.510	
172.00	-28.200	126.714	
173.00	-28.090	131.707	
174.00	-28.067	137.765	
175.00	-27.929	140.633	
176.00	-27.897	145.694	
177.00	-27.815	147.677	
178.00	-27.765	150.194	
179.00	-27.745	159.371	
180.00	-27.678	160.137	
181.00	-27.635	163.153	
182.00	-27.566	167.063	
183.00	-27.521	167.170	
184.00	-27.503	167.228	
185.00	-27.457	173.067	
186.00	-27.408	173.473	
187.00	-27.355	175.627	
188.00	-27.313	174.743	
189.00	-27.288	176.305	
190.00	-27.288	178.649	
191.00	-27.235	-178.527	
192.00	-27.268	-178.082	
193.00	-27.170	-177.459	
194.00	-27.164	179.791	
195.00	-27.136	-174.145	
196.00	-27.152	-178.386	
197.00	-27.129	-174.763	
198.00	-27.120	-176.709	
199.00	-27.122	-179.960	
200.00	-27.132	177.853	
201.00	-27.141	179.746	
202.00	-27.171	178.413	
203.00	-27.198	177.201	
204.00	-27.257	170.302	
205.00	-27.302	170.251	
206.00	-27.330	168.414	
207.00	-27.442	160.806	
208.00	-27.523	156.807	
209.00	-27.640	151.406	
210.00	-27.682	150.852	
211.00	-27.787	145.782	
212.00	-27.959	143.731	
213.00	-28.059	137.583	
214.00	-28.192	134.192	
215.00	-28.339	126.345	
216.00	-28.513	123.061	
217.00	-28.663	111.606	
218.00	-28.832	102.714	
219.00	-28.984	98.548	
220.00	-29.168	89.243	
221.00	-29.368	84.681	
222.00	-29.517	73.905	
223.00	-29.731	68.938	
224.00	-29.960	60.267	
225.00	-30.141	51.864	
226.00	-30.344	43.457	
227.00	-30.621	35.760	
228.00	-30.841	22.525	
229.00	-31.075	13.267	
230.00	-31.357	4.818	
231.00	-31.633	-1.439	
232.00	-31.928	-14.264	
233.00	-32.200	-23.400	
234.00	-32.482	-36.364	
235.00	-32.767	-40.091	
236.00	-32.994	-53.367	
237.00	-33.325	-60.566	
238.00	-33.580	-73.805	
239.00	-33.890	-85.008	
240.00	-34.170	-97.881	
241.00	-34.474	-105.860	
242.00	-34.705	-123.018	
243.00	-35.079	-130.133	
244.00	-35.477	-143.903	
245.00	-35.734	-153.812	
246.00	-36.084	-165.874	
247.00	-36.351	179.813	
248.00	-36.696	160.850	
249.00	-36.885	149.033	
250.00	-37.074	136.079	
251.00	-37.267	127.182	
252.00	-37.440	102.932	
253.00	-37.634	101.390	
254.00	-37.715	78.108	
255.00	-37.893	69.629	
256.00	-38.034	56.734	
257.00	-38.248	39.161	
258.00	-38.414	29.483	
259.00	-38.724	10.705	
260.00	-39.092	-0.098	
261.00	-39.460	-12.662	
262.00	-39.859	-28.002	
263.00	-40.148	-40.958	
264.00	-40.504	-53.733	
265.00	-40.813	-73.096	
266.00	-41.224	-85.510	
267.00	-41.433	-103.718	
268.00	-41.710	-117.721	
269.00	-41.922	-134.243	
270.00	-42.256	-146.732	
271.00	-42.422	-163.534	
272.00	-42.607	-179.535	
273.00	-42.911	170.018	
274.00	-43.047	150.432	
275.00	-43.353	138.498	
276.00	-43.625	123.988	
277.00	-43.819	107.062	
278.00	-43.874	94.803	
279.00	-44.081	79.500	
280.00	-44.378	64.626	
281.00	-44.515	45.611	
282.00	-44.885	23.083	
283.00	-45.187	3.204	
284.00	-45.365	-13.434	
285.00	-45.351	-37.324	
286.00	-45.817	-49.191	
287.00	-46.006	-68.288	
288.00	-46.127	-83.189	
289.00	-46.199	-100.724	
290.00	-46.292	-118.029	
291.00	-46.113	-134.039	
292.00	-46.061	-151.285	
293.00	-45.535	-170.065	
294.00	-45.739	-177.825	
295.00	-45.665	163.582	
296.00	-45.578	150.712	
297.00	-45.657	137.122	
298.00	-45.606	121.030	
299.00	-46.193	111.988	
300.00	-46.008	94.183	
301.00	-46.310	80.130	
302.00	-46.620	66.586	
303.00	-46.691	50.973	
304.00	-47.047	37.333	
305.00	-47.238	19.563	
306.00	-47.375	5.767	
307.00	-47.371	-13.832	
308.00	-47.070	-28.098	
309.00	-47.131	-44.467	
310.00	-46.812	-54.833	
311.00	-46.988	-68.939	
312.00	-46.810	-77.756	
313.00	-46.360	-91.213	
314.00	-46.995	-101.933	
315.00	-47.361	-120.660	
316.00	-47.684	-129.134	
317.00	-48.382	-144.694	
318.00	-48.885	-154.337	
319.00	-49.890	-167.584	
320.00	-50.188	175.617	
321.00	-51.645	162.312	
322.00	-52.873	139.975	
323.00	-52.849	123.028	
324.00	-53.086	102.296	
325.00	-52.373	79.212	
326.00	-51.236	59.481	
327.00	-50.567	45.867	
328.00	-49.822	32.879	
329.00	-48.958	25.162	
330.00	-48.528	14.239	
331.00	-47.416	3.843	
332.00	-47.115	-4.719	
333.00	-46.558	-11.209	
334.00	-46.035	-20.284	
335.00	-45.955	-28.736	
336.00	-45.501	-36.015	
337.00	-45.485	-40.941	
338.00	-45.298	-48.025	
339.00	-45.353	-49.210	
340.00	-45.904	-58.790	
341.00	-46.160	-59.101	
342.00	-46.087	-70.781	
343.00	-46.365	-72.307	
344.00	-46.710	-73.663	
345.00	-47.422	-78.847	
346.00	-47.868	-82.816	
347.00	-48.590	-86.847	
348.00	-49.085	-86.655	
349.00	-50.268	-86.737	
350.00	-51.313	-91.065	
351.00	-52.330	-94.830	
352.00	-53.758	-94.709	
353.00	-55.284	-92.108	
354.00	-56.853	-94.111	
355.00	-60.874	-100.290	
356.00	-62.137	-88.580	
357.00	-64.192	-69.285	
358.00	-71.096	-36.656	
359.00	-66.763	-118.702	
Frequency	1800.00	MHz	
Channel	test		
Scan Axis name	Azimuth  [deg]		
Scan Axis	Amplitude	Phase	
			
0.00	-74.370	94.018	
1.00	-76.858	68.241	
2.00	-74.598	-10.407	
3.00	-71.062	-26.079	
4.00	-69.755	-28.473	
5.00	-68.691	-11.185	
6.00	-65.693	-14.001	
7.00	-65.506	13.306	
8.00	-65.812	4.780	
9.00	-63.482	19.172	
10.00	-64.032	-6.869	
11.00	-65.252	24.971	
12.00	-64.271	24.979	
13.00	-63.206	35.228	
14.00	-66.414	22.233	
15.00	-62.236	53.118	
16.00	-66.190	36.249	
17.00	-63.234	58.335	
18.00	-63.111	70.174	
19.00	-62.280	82.887	
20.00	-62.959	92.872	
21.00	-63.555	94.855	
22.00	-63.483	105.508	
23.00	-63.123	129.258	
24.00	-63.024	135.580	
25.00	-63.291	153.164	
26.00	-61.780	159.807	
27.00	-61.256	175.425	
28.00	-60.818	-170.760	
29.00	-59.676	-159.640	
30.00	-58.512	-152.254	
31.00	-57.264	-149.078	
32.00	-57.139	-148.766	
33.00	-56.521	-133.558	
34.00	-56.683	-135.320	
35.00	-55.956	-130.545	
36.00	-56.999	-125.552	
37.00	-56.621	-115.542	
38.00	-57.161	-114.686	
39.00	-57.572	-106.695	
40.00	-59.315	-102.186	
41.00	-59.638	-89.964	
42.00	-62.197	-82.986	
43.00	-64.293	-72.739	
44.00	-67.036	-43.119	
45.00	-66.320	-20.254	
46.00	-64.133	13.078	
47.00	-63.090	23.929	
48.00	-65.387	41.644	
49.00	-62.643	32.197	
50.00	-65.245	53.740	
51.00	-60.765	76.251	
52.00	-61.728	67.740	
53.00	-61.015	84.915	
54.00	-63.245	92.805	
55.00	-64.386	100.381	
56.00	-64.545	108.527	
57.00	-65.026	116.937	
58.00	-66.108	132.531	
59.00	-83.758	77.909	
60.00	-72.463	140.530	
61.00	-79.583	11.290	
62.00	-73.075	-70.891	
63.00	-75.421	-62.409	
64.00	-71.766	-40.595	
65.00	-69.482	-3.579	
66.00	-69.731	-17.876	
67.00	-65.660	-20.174	
68.00	-63.761	6.045	
69.00	-62.311	9.969	
70.00	-64.191	12.473	
71.00	-60.855	18.816	
72.00	-60.677	18.464	
73.00	-61.282	30.227	
74.00	-61.715	36.734	
75.00	-59.061	28.213	
76.00	-64.563	42.539	
77.00	-64.477	25.513	
78.00	-63.708	24.498	
79.00	-66.273	43.712	
80.00	-65.546	27.544	
81.00	-63.631	7.496	
82.00	-64.508	-4.006	
83.00	-65.491	10.881	
84.00	-61.874	5.709	
85.00	-64.251	-10.202	
86.00	-63.901	-9.915	
87.00	-62.655	14.235	
88.00	-60.643	15.085	
89.00	-62.103	11.400	
90.00	-63.810	27.722	
91.00	-62.325	33.527	
92.00	-65.200	40.742	
93.00	-62.363	55.004	
94.00	-64.566	68.828	
95.00	-66.715	63.447	
96.00	-68.168	50.012	
97.00	-67.205	94.223	
98.00	-67.183	72.476	
99.00	-67.415	88.420	
100.00	-65.483	100.367	
101.00	-64.481	95.843	
102.00	-62.253	100.793	
103.00	-61.342	127.041	
104.00	-58.410	125.167	
105.00	-56.991	130.875	
106.00	-55.671	134.293	
107.00	-53.044	145.472	
108.00	-53.469	155.460	
109.00	-51.483	164.283	
110.00	-50.828	170.885	
111.00	-50.103	-176.527	
112.00	-50.320	-168.403	
113.00	-48.416	-153.202	
114.00	-47.936	-142.794	
115.00	-47.324	-133.303	
116.00	-46.902	-112.520	
117.00	-46.419	-108.250	
118.00	-46.146	-92.698	
119.00	-45.631	-78.679	
120.00	-45.455	-67.021	
121.00	-44.569	-47.500	
122.00	-44.349	-34.581	
123.00	-43.921	-26.020	
124.00	-43.541	-6.433	
125.00	-42.972	7.491	
126.00	-42.454	24.420	
127.00	-41.784	35.736	
128.00	-41.105	50.839	
129.00	-40.346	65.666	
130.00	-39.783	81.118	
131.00	-39.204	93.487	
132.00	-38.404	112.927	
133.00	-37.880	122.624	
134.00	-37.227	141.093	
135.00	-36.684	152.704	
136.00	-36.074	165.110	
137.00	-35.422	178.893	
138.00	-35.067	-171.950	
139.00	-34.624	-156.301	
140.00	-34.252	-146.664	
141.00	-33.909	-136.480	
142.00	-33.557	-128.616	
143.00	-33.261	-115.548	
144.00	-32.976	-105.933	
145.00	-32.760	-93.816	
146.00	-32.533	-84.543	
147.00	-32.288	-72.876	
148.00	-32.066	-62.129	
149.00	-31.854	-50.411	
150.00	-31.604	-41.069	
151.00	-31.375	-29.489	
152.00	-31.159	-24.086	
153.00	-30.946	-10.733	
154.00	-30.699	-4.041	
155.00	-30.454	2.852	
156.00	-30.236	11.875	
157.00	-30.011	19.659	
158.00	-29.825	28.762	
159.00	-29.613	35.988	
160.00	-29.387	44.549	
161.00	-29.266	52.560	
162.00	-29.097	61.940	
163.00	-28.998	70.532	
164.00	-28.929	76.239	
165.00	-28.814	82.989	
166.00	-28.820	92.366	
167.00	-28.660	96.807	
168.00	-28.632	106.327	
169.00	-28.573	109.966	
170.00	-28.503	117.510	
171.00	-28.504	124.020	
172.00	-28.437	127.495	
173.00	-28.379	133.073	
174.00	-28.333	140.023	
175.00	-28.297	143.800	
176.00	-28.239	148.671	
177.00	-28.183	150.825	
178.00	-28.140	153.263	
179.00	-28.064	163.540	
180.00	-28.040	164.574	
181.00	-27.964	167.468	
182.00	-27.907	171.641	
183.00	-27.852	171.523	
184.00	-27.818	171.417	
185.00	-27.748	177.637	
186.00	-27.720	177.799	
187.00	-27.693	179.550	
188.00	-27.672	178.636	
189.00	-27.621	-179.753	
190.00	-27.605	-177.492	
191.00	-27.619	-174.533	
192.00	-27.654	-175.278	
193.00	-27.673	-173.998	
194.00	-27.676	-177.397	
195.00	-27.757	-171.048	
196.00	-27.796	-175.932	
197.00	-27.901	-172.061	
198.00	-27.961	-174.372	
199.00	-28.055	-178.094	
200.00	-28.180	179.596	
201.00	-28.298	-178.966	
202.00	-28.430	179.619	
203.00	-28.580	177.992	
204.00	-28.751	170.869	
205.00	-28.937	169.897	
206.00	-29.096	168.274	
207.00	-29.291	159.508	
208.00	-29.507	155.093	
209.00	-29.753	149.020	
210.00	-30.002	148.234	
211.00	-30.246	142.759	
212.00	-30.494	140.074	
213.00	-30.755	133.168	
214.00	-31.037	129.263	
215.00	-31.346	120.549	
216.00	-31.662	116.550	
217.00	-31.930	104.263	
218.00	-32.216	93.951	
219.00	-32.491	89.199	
220.00	-32.735	78.952	
221.00	-33.044	73.095	
222.00	-33.293	61.394	
223.00	-33.518	55.594	
224.00	-33.741	46.173	
225.00	-33.963	36.665	
226.00	-34.073	28.005	
227.00	-34.330	19.415	
228.00	-34.527	6.298	
229.00	-34.785	-3.497	
230.00	-34.925	-11.174	
231.00	-35.292	-18.466	
232.00	-35.573	-30.852	
233.00	-35.820	-40.827	
234.00	-35.996	-53.287	
235.00	-36.430	-55.958	
236.00	-36.573	-69.393	
237.00	-36.857	-76.407	
238.00	-37.163	-89.247	
239.00	-37.428	-100.428	
240.00	-37.674	-112.413	
241.00	-37.941	-119.943	
242.00	-38.272	-136.786	
243.00	-38.531	-142.973	
244.00	-38.865	-155.895	
245.00	-39.189	-165.877	
246.00	-39.572	-176.643	
247.00	-39.964	169.012	
248.00	-40.401	151.742	
249.00	-40.703	139.855	
250.00	-41.166	126.739	
251.00	-41.578	118.394	
252.00	-41.902	93.181	
253.00	-42.246	91.847	
254.00	-42.661	67.072	
255.00	-43.001	57.761	
256.00	-43.218	42.058	
257.00	-43.330	21.330	
258.00	-43.509	9.742	
259.00	-43.727	-11.768	
260.00	-43.892	-24.007	
261.00	-43.793	-37.577	
262.00	-43.738	-52.445	
263.00	-43.942	-66.065	
264.00	-43.985	-76.857	
265.00	-44.319	-96.433	
266.00	-44.568	-108.833	
267.00	-44.755	-125.769	
268.00	-45.089	-139.764	
269.00	-45.484	-156.444	
270.00	-45.800	-169.212	
271.00	-45.996	173.110	
272.00	-46.236	156.709	
273.00	-46.446	145.625	
274.00	-46.506	126.831	
275.00	-46.486	114.621	
276.00	-46.814	100.028	
277.00	-46.824	83.100	
278.00	-47.444	71.403	
279.00	-47.679	58.209	
280.00	-47.773	41.009	
281.00	-48.652	22.734	
282.00	-48.679	-6.488	
283.00	-49.145	-27.139	
284.00	-49.119	-45.382	
285.00	-49.037	-66.518	
286.00	-48.637	-80.938	
287.00	-48.803	-100.074	
288.00	-48.837	-115.431	
289.00	-49.045	-130.507	
290.00	-48.863	-147.518	
291.00	-48.953	-162.309	
292.00	-48.936	-178.758	
293.00	-48.810	166.806	
294.00	-48.656	155.784	
295.00	-48.637	140.678	
296.00	-48.634	129.122	
297.00	-48.667	113.075	
298.00	-48.957	99.906	
299.00	-49.287	90.446	
300.00	-49.372	73.665	
301.00	-49.709	64.057	
302.00	-50.563	51.980	
303.00	-50.787	39.001	
304.00	-52.000	26.721	
305.00	-52.921	9.620	
306.00	-54.140	-7.203	
307.00	-54.655	-28.632	
308.00	-55.479	-48.255	
309.00	-55.424	-67.808	
310.00	-55.530	-88.211	
311.00	-55.154	-106.511	
312.00	-54.492	-124.560	
313.00	-53.305	-142.568	
314.00	-53.123	-152.434	
315.00	-52.862	-173.209	
316.00	-52.356	178.433	
317.00	-51.768	166.283	
318.00	-52.305	155.348	
319.00	-51.713	144.699	
320.00	-52.627	138.545	
321.00	-52.623	130.368	
322.00	-53.440	117.975	
323.00	-53.763	109.621	
324.00	-55.151	95.441	
325.00	-56.589	81.679	
326.00	-56.258	61.487	
327.00	-58.168	51.887	
328.00	-58.700	21.158	
329.00	-58.991	9.789	
330.00	-57.677	-13.636	
331.00	-56.808	-18.746	
332.00	-55.303	-36.259	
333.00	-54.979	-47.982	
334.00	-53.957	-53.001	
335.00	-53.591	-62.043	
336.00	-53.291	-68.357	
337.00	-53.587	-72.652	
338.00	-53.476	-76.796	
339.00	-53.611	-81.753	
340.00	-54.229	-89.666	
341.00	-54.291	-94.614	
342.00	-55.460	-102.558	
343.00	-56.137	-108.276	
344.00	-57.054	-112.608	
345.00	-58.732	-128.109	
346.00	-59.225	-136.308	
347.00	-59.198	-146.682	
348.00	-60.271	-152.896	
349.00	-61.085	-171.366	
350.00	-60.882	-166.319	
351.00	-59.945	-177.590	
352.00	-60.622	173.791	
353.00	-61.413	169.841	
354.00	-63.003	167.227	
355.00	-62.397	159.944	
356.00	-65.089	159.315	
357.00	-68.848	160.847	
358.00	-70.886	162.559	
359.00	-77.179	175.575	
Frequency	1850.00	MHz	
Channel	test		
Scan Axis name	Azimuth  [deg]		
Scan Axis	Amplitude	Phase	
			
0.00	-58.945	88.654	
1.00	-59.006	82.759	
2.00	-58.499	74.787	
3.00	-60.515	70.404	
4.00	-62.426	65.999	
5.00	-63.581	55.517	
6.00	-64.673	54.091	
7.00	-66.769	43.357	
8.00	-67.182	30.235	
9.00	-68.437	14.688	
10.00	-69.434	-7.912	
11.00	-68.621	-40.577	
12.00	-71.807	-53.191	
13.00	-67.306	-76.447	
14.00	-67.604	-85.052	
15.00	-64.588	-94.976	
16.00	-63.968	-107.438	
17.00	-61.130	-113.326	
18.00	-61.070	-116.857	
19.00	-60.340	-114.617	
20.00	-59.358	-118.796	
21.00	-58.615	-116.694	
22.00	-58.145	-121.886	
23.00	-58.049	-119.988	
24.00	-57.457	-118.635	
25.00	-57.424	-112.777	
26.00	-57.484	-114.416	
27.00	-57.445	-109.565	
28.00	-57.734	-108.847	
29.00	-58.634	-100.702	
30.00	-58.764	-100.094	
31.00	-59.744	-90.153	
32.00	-60.014	-91.201	
33.00	-61.892	-70.677	
34.00	-62.357	-69.466	
35.00	-64.476	-50.202	
36.00	-65.488	-36.935	
37.00	-66.197	-13.730	
38.00	-67.030	4.315	
39.00	-66.286	28.178	
40.00	-67.447	53.898	
41.00	-65.015	66.004	
42.00	-64.631	74.123	
43.00	-63.513	81.033	
44.00	-63.378	102.164	
45.00	-62.168	111.652	
46.00	-61.554	124.343	
47.00	-61.962	124.240	
48.00	-62.450	137.831	
49.00	-62.186	145.915	
50.00	-62.995	175.236	
51.00	-64.089	164.221	
52.00	-64.640	161.392	
53.00	-66.027	-172.708	
54.00	-68.308	-163.616	
55.00	-69.265	-125.092	
56.00	-72.169	-78.617	
57.00	-74.330	-73.208	
58.00	-76.582	-3.735	
59.00	-70.482	18.834	
60.00	-73.914	85.445	
61.00	-69.861	5.925	
62.00	-67.698	72.622	
63.00	-64.700	75.947	
64.00	-63.633	91.977	
65.00	-62.372	103.331	
66.00	-62.278	123.516	
67.00	-59.972	132.537	
68.00	-59.964	141.277	
69.00	-59.696	153.696	
70.00	-60.160	151.126	
71.00	-59.728	167.946	
72.00	-60.074	-179.948	
73.00	-66.766	-119.304	
74.00	-61.676	-158.487	
75.00	-63.513	-142.500	
76.00	-61.409	-119.922	
77.00	-66.439	-102.226	
78.00	-63.876	-52.419	
79.00	-66.399	-54.262	
80.00	-63.772	-28.613	
81.00	-64.142	-11.595	
82.00	-63.410	6.421	
83.00	-62.414	19.818	
84.00	-64.160	53.237	
85.00	-62.481	61.811	
86.00	-60.366	78.292	
87.00	-61.177	94.039	
88.00	-60.960	107.567	
89.00	-60.614	126.976	
90.00	-59.376	141.297	
91.00	-59.420	150.208	
92.00	-60.412	169.791	
93.00	-61.431	-171.557	
94.00	-59.412	-169.962	
95.00	-61.331	-169.180	
96.00	-60.300	-139.414	
97.00	-60.845	-121.691	
98.00	-61.746	-106.639	
99.00	-62.917	-83.315	
100.00	-66.087	-89.391	
101.00	-66.236	-74.521	
102.00	-86.070	39.798	
103.00	-75.481	-174.827	
104.00	-68.981	169.795	
105.00	-62.807	172.491	
106.00	-60.158	178.863	
107.00	-57.031	-171.628	
108.00	-53.510	-155.115	
109.00	-53.119	-147.256	
110.00	-51.683	-137.973	
111.00	-50.648	-123.789	
112.00	-49.399	-110.789	
113.00	-49.196	-96.425	
114.00	-48.279	-83.270	
115.00	-47.568	-70.105	
116.00	-47.042	-51.646	
117.00	-46.225	-40.676	
118.00	-45.429	-22.283	
119.00	-44.548	-7.163	
120.00	-43.786	4.529	
121.00	-42.863	23.831	
122.00	-42.027	38.086	
123.00	-41.362	45.881	
124.00	-40.765	65.426	
125.00	-39.979	77.283	
126.00	-39.347	93.814	
127.00	-38.613	103.694	
128.00	-38.113	115.757	
129.00	-37.596	129.543	
130.00	-37.055	144.145	
131.00	-36.515	155.716	
132.00	-36.110	175.393	
133.00	-35.682	-174.771	
134.00	-35.234	-155.754	
135.00	-34.880	-142.920	
136.00	-34.509	-129.912	
137.00	-34.094	-114.410	
138.00	-33.757	-103.810	
139.00	-33.365	-85.980	
140.00	-33.014	-75.298	
141.00	-32.575	-63.926	
142.00	-32.215	-54.963	
143.00	-31.871	-41.477	
144.00	-31.504	-30.962	
145.00	-31.170	-17.835	
146.00	-30.865	-8.240	
147.00	-30.546	3.425	
148.00	-30.206	13.552	
149.00	-29.960	26.157	
150.00	-29.648	34.967	
151.00	-29.458	46.490	
152.00	-29.192	51.428	
153.00	-29.003	64.780	
154.00	-28.802	71.732	
155.00	-28.631	78.135	
156.00	-28.507	87.261	
157.00	-28.381	95.081	
158.00	-28.273	104.674	
159.00	-28.159	112.215	
160.00	-28.027	121.393	
161.00	-27.945	129.955	
162.00	-27.831	139.879	
163.00	-27.760	149.469	
164.00	-27.658	155.803	
165.00	-27.542	162.991	
166.00	-27.449	173.053	
167.00	-27.348	178.202	
168.00	-27.262	-171.909	
169.00	-27.179	-167.769	
170.00	-27.104	-160.143	
171.00	-27.001	-153.226	
172.00	-26.925	-149.589	
173.00	-26.878	-143.984	
174.00	-26.776	-137.024	
175.00	-26.719	-133.244	
176.00	-26.654	-128.466	
177.00	-26.592	-126.233	
178.00	-26.533	-124.042	
179.00	-26.472	-113.613	
180.00	-26.431	-112.508	
181.00	-26.371	-109.886	
182.00	-26.323	-106.144	
183.00	-26.285	-106.223	
184.00	-26.262	-106.281	
185.00	-26.227	-99.907	
186.00	-26.200	-99.894	
187.00	-26.169	-98.448	
188.00	-26.155	-99.297	
189.00	-26.158	-97.670	
190.00	-26.154	-95.450	
191.00	-26.178	-92.106	
192.00	-26.199	-93.710	
193.00	-26.238	-91.591	
194.00	-26.261	-95.563	
195.00	-26.316	-89.168	
196.00	-26.351	-93.881	
197.00	-26.443	-90.092	
198.00	-26.500	-92.449	
199.00	-26.604	-96.287	
200.00	-26.714	-98.559	
201.00	-26.841	-96.940	
202.00	-26.963	-98.096	
203.00	-27.116	-99.555	
204.00	-27.300	-106.724	
205.00	-27.487	-107.896	
206.00	-27.652	-108.757	
207.00	-27.859	-117.947	
208.00	-28.015	-122.015	
209.00	-28.284	-127.615	
210.00	-28.532	-128.271	
211.00	-28.756	-133.405	
212.00	-28.997	-135.679	
213.00	-29.249	-142.236	
214.00	-29.515	-145.890	
215.00	-29.783	-154.030	
216.00	-30.031	-157.773	
217.00	-30.303	-169.277	
218.00	-30.575	-179.254	
219.00	-30.846	176.806	
220.00	-31.112	167.014	
221.00	-31.377	162.107	
222.00	-31.637	151.300	
223.00	-31.877	145.955	
224.00	-32.142	136.748	
225.00	-32.370	128.467	
226.00	-32.712	119.897	
227.00	-32.960	111.705	
228.00	-33.282	97.570	
229.00	-33.586	88.527	
230.00	-33.937	79.316	
231.00	-34.199	73.226	
232.00	-34.534	59.628	
233.00	-34.853	49.915	
234.00	-35.214	36.074	
235.00	-35.419	33.216	
236.00	-35.675	18.646	
237.00	-35.990	11.082	
238.00	-36.221	-2.398	
239.00	-36.470	-14.272	
240.00	-36.763	-27.378	
241.00	-37.007	-35.653	
242.00	-37.352	-53.506	
243.00	-37.663	-60.302	
244.00	-37.891	-74.582	
245.00	-38.227	-85.263	
246.00	-38.483	-97.445	
247.00	-38.749	-112.580	
248.00	-38.900	-131.537	
249.00	-39.140	-144.156	
250.00	-39.337	-156.765	
251.00	-39.545	-165.267	
252.00	-39.665	169.927	
253.00	-39.803	169.642	
254.00	-40.115	146.881	
255.00	-40.341	137.448	
256.00	-40.662	126.028	
257.00	-40.975	106.829	
258.00	-41.348	98.089	
259.00	-41.894	78.319	
260.00	-42.390	67.417	
261.00	-42.939	54.097	
262.00	-43.606	38.776	
263.00	-44.279	24.657	
264.00	-44.808	11.608	
265.00	-45.506	-11.846	
266.00	-45.993	-27.519	
267.00	-46.527	-48.629	
268.00	-46.606	-65.387	
269.00	-46.689	-84.195	
270.00	-46.789	-98.876	
271.00	-46.664	-117.414	
272.00	-46.790	-130.411	
273.00	-46.933	-142.499	
274.00	-47.418	-161.188	
275.00	-47.709	-172.821	
276.00	-48.182	173.747	
277.00	-48.554	153.463	
278.00	-48.949	140.647	
279.00	-49.236	123.955	
280.00	-49.313	105.423	
281.00	-49.332	85.961	
282.00	-49.090	59.519	
283.00	-49.041	42.431	
284.00	-49.217	27.718	
285.00	-49.842	9.434	
286.00	-50.383	-0.641	
287.00	-51.405	-19.008	
288.00	-52.437	-33.419	
289.00	-53.561	-53.849	
290.00	-54.404	-76.400	
291.00	-54.378	-97.736	
292.00	-54.187	-121.357	
293.00	-53.579	-142.181	
294.00	-53.230	-151.756	
295.00	-52.600	-169.730	
296.00	-52.478	176.101	
297.00	-52.838	163.890	
298.00	-52.960	150.928	
299.00	-53.287	140.059	
300.00	-54.250	122.321	
301.00	-54.797	109.738	
302.00	-55.817	97.469	
303.00	-56.761	79.269	
304.00	-57.742	68.864	
305.00	-59.673	31.659	
306.00	-59.428	22.387	
307.00	-59.998	-0.242	
308.00	-60.613	-14.915	
309.00	-61.050	-33.936	
310.00	-61.589	-52.763	
311.00	-62.330	-78.909	
312.00	-62.991	-100.899	
313.00	-62.300	-132.729	
314.00	-60.616	-149.002	
315.00	-59.767	176.164	
316.00	-59.074	167.427	
317.00	-59.006	153.086	
318.00	-58.217	138.359	
319.00	-57.411	121.832	
320.00	-56.537	112.919	
321.00	-56.983	100.252	
322.00	-56.881	88.225	
323.00	-57.057	73.643	
324.00	-56.986	60.264	
325.00	-57.228	45.133	
326.00	-57.587	27.359	
327.00	-56.318	15.917	
328.00	-57.317	3.950	
329.00	-56.660	0.042	
330.00	-56.549	-23.408	
331.00	-57.129	-27.338	
332.00	-57.370	-51.536	
333.00	-57.892	-51.951	
334.00	-57.025	-72.763	
335.00	-59.276	-90.041	
336.00	-57.212	-109.358	
337.00	-57.165	-120.205	
338.00	-56.936	-135.131	
339.00	-56.367	-140.997	
340.00	-54.985	-155.042	
341.00	-54.975	-160.970	
342.00	-53.833	-173.711	
343.00	-53.584	-177.813	
344.00	-53.352	174.610	
345.00	-53.187	167.561	
346.00	-53.158	159.328	
347.00	-53.604	152.171	
348.00	-53.306	147.730	
349.00	-53.629	143.806	
350.00	-53.933	139.325	
351.00	-54.085	132.682	
352.00	-54.982	127.542	
353.00	-55.413	123.403	
354.00	-55.423	122.389	
355.00	-56.266	114.518	
356.00	-52.479	129.149	
357.00	-57.888	105.629	
358.00	-57.899	102.066	
359.00	-58.281	95.965	
Frequency	1950.00	MHz	
Channel	test		
Scan Axis name	Azimuth  [deg]		
Scan Axis	Amplitude	Phase	
			
0.00	-63.332	-73.038	
1.00	-66.524	-84.567	
2.00	-69.323	-70.908	
3.00	-73.496	-128.180	
4.00	-68.219	-47.209	
5.00	-71.674	-23.248	
6.00	-63.341	-22.620	
7.00	-65.000	-2.336	
8.00	-66.812	-2.537	
9.00	-67.293	-1.206	
10.00	-65.036	7.098	
11.00	-65.740	-19.187	
12.00	-60.235	-39.150	
13.00	-63.961	-13.507	
14.00	-64.245	0.019	
15.00	-92.625	-41.639	
16.00	-63.997	10.923	
17.00	-65.774	-23.455	
18.00	-66.574	-21.439	
19.00	-66.495	-28.491	
20.00	-70.722	-42.699	
21.00	-67.005	-59.402	
22.00	-66.239	-67.605	
23.00	-65.086	-48.443	
24.00	-63.239	-59.626	
25.00	-60.229	-60.803	
26.00	-62.933	-59.250	
27.00	-62.195	-43.144	
28.00	-60.421	-47.482	
29.00	-59.637	-39.849	
30.00	-60.148	-39.267	
31.00	-59.780	-29.513	
32.00	-60.138	-26.245	
33.00	-59.694	-11.064	
34.00	-59.613	-22.723	
35.00	-58.876	-2.173	
36.00	-58.726	2.726	
37.00	-57.501	7.211	
38.00	-58.461	12.172	
39.00	-59.314	25.876	
40.00	-60.748	23.739	
41.00	-59.328	27.884	
42.00	-60.612	27.952	
43.00	-61.213	53.744	
44.00	-63.664	53.001	
45.00	-65.040	75.999	
46.00	-67.745	78.762	
47.00	-70.132	132.852	
48.00	-66.160	88.990	
49.00	-64.226	158.401	
50.00	-60.386	-144.462	
51.00	-63.345	-178.248	
52.00	-62.025	-163.532	
53.00	-61.740	-148.809	
54.00	-62.199	-145.887	
55.00	-61.452	-138.147	
56.00	-63.578	-154.477	
57.00	-61.956	-126.286	
58.00	-62.164	-140.607	
59.00	-63.777	-135.716	
60.00	-61.969	-133.744	
61.00	-62.995	-131.027	
62.00	-67.163	-139.155	
63.00	-63.987	-122.367	
64.00	-69.873	-102.122	
65.00	-70.771	-117.945	
66.00	-73.859	-95.566	
67.00	-71.400	-102.066	
68.00	-70.336	-93.229	
69.00	-72.710	-57.237	
70.00	-71.061	-31.375	
71.00	-71.130	81.957	
72.00	-70.244	37.836	
73.00	-66.626	32.931	
74.00	-66.891	55.953	
75.00	-67.207	67.929	
76.00	-63.492	102.672	
77.00	-62.340	107.305	
78.00	-62.426	115.321	
79.00	-62.096	135.967	
80.00	-60.908	153.247	
81.00	-60.300	166.480	
82.00	-59.242	176.687	
83.00	-58.857	-170.286	
84.00	-58.267	-153.644	
85.00	-58.586	-137.163	
86.00	-57.470	-119.404	
87.00	-58.034	-113.231	
88.00	-58.034	-90.752	
89.00	-58.843	-75.327	
90.00	-56.856	-62.742	
91.00	-56.731	-37.871	
92.00	-56.322	-21.801	
93.00	-56.273	2.416	
94.00	-54.675	11.661	
95.00	-54.854	34.550	
96.00	-53.873	46.035	
97.00	-53.236	67.731	
98.00	-53.901	86.827	
99.00	-54.477	109.674	
100.00	-53.939	122.890	
101.00	-54.070	145.297	
102.00	-52.401	157.903	
103.00	-51.889	-171.265	
104.00	-51.597	-157.889	
105.00	-51.431	-139.483	
106.00	-50.170	-119.166	
107.00	-50.458	-100.973	
108.00	-48.009	-86.728	
109.00	-47.437	-69.793	
110.00	-46.386	-52.430	
111.00	-45.778	-33.876	
112.00	-44.926	-20.910	
113.00	-44.226	-5.091	
114.00	-43.490	10.562	
115.00	-42.946	21.834	
116.00	-42.252	42.042	
117.00	-41.988	52.853	
118.00	-41.499	69.480	
119.00	-40.938	85.335	
120.00	-40.517	96.991	
121.00	-40.187	117.274	
122.00	-39.767	131.846	
123.00	-39.323	142.407	
124.00	-39.093	164.569	
125.00	-38.744	177.701	
126.00	-38.070	-162.297	
127.00	-37.755	-150.002	
128.00	-37.177	-135.826	
129.00	-36.931	-120.662	
130.00	-36.438	-102.084	
131.00	-35.997	-88.487	
132.00	-35.477	-67.851	
133.00	-35.076	-55.238	
134.00	-34.440	-34.924	
135.00	-34.033	-20.441	
136.00	-33.797	-5.359	
137.00	-33.262	11.369	
138.00	-32.860	22.205	
139.00	-32.487	40.357	
140.00	-32.033	51.838	
141.00	-31.751	64.027	
142.00	-31.386	73.442	
143.00	-31.061	87.527	
144.00	-30.727	98.877	
145.00	-30.445	112.734	
146.00	-30.145	123.147	
147.00	-29.841	135.789	
148.00	-29.662	146.459	
149.00	-29.437	159.962	
150.00	-29.309	169.869	
151.00	-29.072	-177.676	
152.00	-28.857	-171.660	
153.00	-28.709	-157.418	
154.00	-28.520	-149.512	
155.00	-28.375	-142.206	
156.00	-28.205	-131.831	
157.00	-27.986	-123.192	
158.00	-27.795	-112.612	
159.00	-27.616	-103.455	
160.00	-27.596	-94.517	
161.00	-27.406	-84.928	
162.00	-27.199	-74.616	
163.00	-27.243	-65.033	
164.00	-27.064	-58.673	
165.00	-26.935	-50.089	
166.00	-26.820	-39.043	
167.00	-26.648	-34.298	
168.00	-26.593	-23.519	
169.00	-26.462	-19.009	
170.00	-26.380	-10.798	
171.00	-26.283	-3.047	
172.00	-26.222	0.515	
173.00	-26.151	6.586	
174.00	-26.076	14.061	
175.00	-26.028	18.633	
176.00	-25.935	23.631	
177.00	-25.860	26.053	
178.00	-25.804	28.451	
179.00	-25.731	39.528	
180.00	-25.699	40.917	
181.00	-25.637	43.500	
182.00	-25.611	47.634	
183.00	-25.565	47.694	
184.00	-25.573	47.390	
185.00	-25.559	54.356	
186.00	-25.563	54.049	
187.00	-25.601	55.260	
188.00	-25.627	54.466	
189.00	-25.670	56.631	
190.00	-25.696	58.948	
191.00	-25.789	62.788	
192.00	-25.913	60.584	
193.00	-25.980	63.958	
194.00	-26.076	59.142	
195.00	-26.150	66.768	
196.00	-26.319	60.970	
197.00	-26.434	65.369	
198.00	-26.561	63.046	
199.00	-26.739	59.398	
200.00	-26.884	57.219	
201.00	-27.057	58.858	
202.00	-27.238	57.852	
203.00	-27.420	56.473	
204.00	-27.606	49.332	
205.00	-27.817	47.692	
206.00	-27.986	47.084	
207.00	-28.183	37.489	
208.00	-28.374	33.905	
209.00	-28.576	27.712	
210.00	-28.808	27.213	
211.00	-28.950	22.033	
212.00	-29.196	19.984	
213.00	-29.398	13.202	
214.00	-29.612	9.616	
215.00	-29.819	1.384	
216.00	-30.070	-2.223	
217.00	-30.305	-13.710	
218.00	-30.567	-24.187	
219.00	-30.816	-27.940	
220.00	-31.039	-38.334	
221.00	-31.394	-43.495	
222.00	-31.663	-54.438	
223.00	-31.916	-60.578	
224.00	-32.169	-70.709	
225.00	-32.432	-79.833	
226.00	-32.776	-89.063	
227.00	-33.096	-98.346	
228.00	-33.360	-113.407	
229.00	-33.592	-123.675	
230.00	-33.972	-133.701	
231.00	-34.330	-140.579	
232.00	-34.590	-154.713	
233.00	-34.925	-166.141	
234.00	-35.304	178.940	
235.00	-35.579	175.341	
236.00	-35.808	159.375	
237.00	-36.213	151.194	
238.00	-36.393	136.276	
239.00	-36.636	123.400	
240.00	-36.797	109.517	
241.00	-37.147	100.829	
242.00	-37.363	82.363	
243.00	-37.650	75.086	
244.00	-37.925	61.458	
245.00	-38.390	50.307	
246.00	-38.708	38.788	
247.00	-39.141	23.425	
248.00	-39.627	5.447	
249.00	-40.041	-6.368	
250.00	-40.573	-20.349	
251.00	-40.938	-27.994	
252.00	-41.471	-54.455	
253.00	-42.130	-55.130	
254.00	-42.636	-79.554	
255.00	-43.436	-89.789	
256.00	-43.933	-104.986	
257.00	-44.545	-128.021	
258.00	-45.216	-140.626	
259.00	-45.561	-161.191	
260.00	-46.023	-176.015	
261.00	-46.275	169.218	
262.00	-46.677	151.281	
263.00	-47.584	137.094	
264.00	-47.584	124.503	
265.00	-48.166	105.910	
266.00	-48.710	92.201	
267.00	-49.244	67.582	
268.00	-49.880	53.752	
269.00	-49.972	33.714	
270.00	-50.178	16.516	
271.00	-49.681	-3.396	
272.00	-49.504	-17.425	
273.00	-49.306	-26.579	
274.00	-49.028	-41.324	
275.00	-49.111	-49.975	
276.00	-49.361	-58.914	
277.00	-49.972	-67.942	
278.00	-50.747	-77.839	
279.00	-51.402	-88.837	
280.00	-53.124	-100.834	
281.00	-55.070	-119.654	
282.00	-56.369	-146.699	
283.00	-57.496	-173.499	
284.00	-57.229	156.376	
285.00	-55.582	122.634	
286.00	-55.842	121.678	
287.00	-56.785	109.919	
288.00	-55.385	94.594	
289.00	-56.638	96.278	
290.00	-57.420	81.309	
291.00	-60.999	79.450	
292.00	-61.482	54.866	
293.00	-60.601	21.205	
294.00	-64.499	-0.430	
295.00	-64.642	20.117	
296.00	-68.173	-25.849	
297.00	-66.314	-55.957	
298.00	-69.743	-87.215	
299.00	-63.467	-66.696	
300.00	-68.380	-107.970	
301.00	-69.129	-120.311	
302.00	-69.089	-119.232	
303.00	-72.613	-127.497	
304.00	-81.161	-68.808	
305.00	-74.537	31.843	
306.00	-67.106	48.993	
307.00	-67.938	51.688	
308.00	-65.366	22.529	
309.00	-63.738	26.756	
310.00	-62.305	22.231	
311.00	-62.952	24.576	
312.00	-62.617	17.816	
313.00	-63.118	4.940	
314.00	-62.967	6.270	
315.00	-77.102	31.246	
316.00	-77.520	-83.360	
317.00	-72.980	-171.334	
318.00	-65.795	172.995	
319.00	-64.893	179.160	
320.00	-63.073	-179.942	
321.00	-61.231	172.705	
322.00	-59.890	170.033	
323.00	-60.031	165.084	
324.00	-59.291	165.816	
325.00	-60.176	160.149	
326.00	-59.585	160.249	
327.00	-59.963	157.694	
328.00	-61.950	143.659	
329.00	-64.253	149.674	
330.00	-64.238	148.628	
331.00	-65.164	141.532	
332.00	-67.401	119.298	
333.00	-71.309	75.568	
334.00	-79.030	45.786	
335.00	-67.025	59.858	
336.00	-66.955	-10.076	
337.00	-68.385	22.620	
338.00	-66.171	19.540	
339.00	-63.766	12.076	
340.00	-63.873	11.189	
341.00	-66.426	-18.475	
342.00	-65.104	-25.918	
343.00	-67.398	-18.434	
344.00	-69.179	22.988	
345.00	-65.950	-55.387	
346.00	-67.635	-73.049	
347.00	-67.603	-39.216	
348.00	-65.900	-37.099	
349.00	-68.794	-61.438	
350.00	-69.982	-84.755	
351.00	-68.796	-90.306	
352.00	-66.795	-90.291	
353.00	-70.522	-65.230	
354.00	-66.130	-103.926	
355.00	-64.721	-104.605	
356.00	-67.184	-84.855	
357.00	-65.297	-110.448	
358.00	-67.177	-71.739	
359.00	-70.309	-35.665	
Frequency	2050.00	MHz	
Channel	test		
Scan Axis name	Azimuth  [deg]		
Scan Axis	Amplitude	Phase	
			
0.00	-63.946	-113.070	
1.00	-62.872	-112.486	
2.00	-62.732	-124.393	
3.00	-63.224	-127.882	
4.00	-63.518	-129.951	
5.00	-62.967	-119.925	
6.00	-62.176	-136.011	
7.00	-64.086	-113.704	
8.00	-65.408	-120.599	
9.00	-64.653	-117.929	
10.00	-63.435	-124.379	
11.00	-65.265	-117.570	
12.00	-61.981	-103.744	
13.00	-62.610	-92.076	
14.00	-62.139	-96.242	
15.00	-59.717	-72.875	
16.00	-61.255	-80.206	
17.00	-59.904	-69.431	
18.00	-60.796	-70.944	
19.00	-58.653	-58.648	
20.00	-58.243	-60.262	
21.00	-57.428	-50.807	
22.00	-57.962	-53.490	
23.00	-57.750	-40.795	
24.00	-57.326	-37.590	
25.00	-57.380	-32.713	
26.00	-57.403	-24.044	
27.00	-57.911	-20.766	
28.00	-57.334	-10.352	
29.00	-57.551	-6.573	
30.00	-57.926	-2.556	
31.00	-58.558	12.675	
32.00	-58.655	13.153	
33.00	-60.113	23.106	
34.00	-61.593	28.475	
35.00	-64.474	44.935	
36.00	-66.512	17.499	
37.00	-68.340	45.180	
38.00	-75.341	114.244	
39.00	-71.410	151.878	
40.00	-70.254	-145.469	
41.00	-64.846	-146.478	
42.00	-63.870	-136.014	
43.00	-60.762	-136.893	
44.00	-60.130	-119.428	
45.00	-59.189	-107.322	
46.00	-59.318	-95.832	
47.00	-59.080	-107.283	
48.00	-59.715	-98.004	
49.00	-57.487	-79.831	
50.00	-60.233	-65.968	
51.00	-60.888	-59.127	
52.00	-62.001	-56.714	
53.00	-62.308	-38.187	
54.00	-61.671	-22.888	
55.00	-61.725	-7.662	
56.00	-62.280	14.354	
57.00	-61.481	45.415	
58.00	-65.127	43.878	
59.00	-65.176	71.598	
60.00	-63.576	52.253	
61.00	-64.786	105.216	
62.00	-66.252	118.072	
63.00	-62.519	137.575	
64.00	-67.568	176.009	
65.00	-68.935	119.070	
66.00	-66.583	162.213	
67.00	-68.163	155.580	
68.00	-67.727	-178.125	
69.00	-67.719	161.623	
70.00	-71.969	174.746	
71.00	-67.423	150.747	
72.00	-71.049	-169.312	
73.00	-66.851	141.928	
74.00	-68.301	-166.742	
75.00	-65.527	-176.222	
76.00	-62.630	-142.429	
77.00	-65.881	-130.139	
78.00	-66.504	-125.958	
79.00	-69.943	-74.999	
80.00	-65.461	-91.162	
81.00	-62.055	-64.083	
82.00	-63.655	-60.280	
83.00	-63.568	-43.629	
84.00	-60.815	-25.292	
85.00	-64.765	9.069	
86.00	-62.828	18.435	
87.00	-57.703	16.729	
88.00	-56.982	36.156	
89.00	-59.366	46.590	
90.00	-56.446	72.433	
91.00	-57.835	75.177	
92.00	-54.906	98.896	
93.00	-55.006	107.985	
94.00	-53.062	120.600	
95.00	-52.632	143.304	
96.00	-52.331	154.600	
97.00	-51.789	171.234	
98.00	-52.095	-168.464	
99.00	-52.135	-147.042	
100.00	-52.326	-138.610	
101.00	-52.192	-114.339	
102.00	-52.171	-102.086	
103.00	-52.102	-77.774	
104.00	-52.180	-60.838	
105.00	-50.410	-39.389	
106.00	-50.127	-22.950	
107.00	-49.929	-16.075	
108.00	-48.654	13.389	
109.00	-48.103	30.754	
110.00	-47.026	46.636	
111.00	-46.592	66.363	
112.00	-46.118	78.831	
113.00	-45.540	99.489	
114.00	-44.756	114.416	
115.00	-44.135	126.259	
116.00	-43.889	149.921	
117.00	-43.454	163.037	
118.00	-42.778	-179.752	
119.00	-42.154	-159.643	
120.00	-41.768	-145.304	
121.00	-40.962	-124.481	
122.00	-40.738	-108.417	
123.00	-40.302	-98.466	
124.00	-39.627	-75.309	
125.00	-38.752	-60.482	
126.00	-38.385	-40.234	
127.00	-37.985	-28.631	
128.00	-37.438	-14.904	
129.00	-36.961	1.498	
130.00	-36.656	19.070	
131.00	-36.218	33.496	
132.00	-35.757	54.748	
133.00	-35.359	68.542	
134.00	-34.932	89.329	
135.00	-34.542	105.253	
136.00	-34.198	119.921	
137.00	-33.750	137.147	
138.00	-33.364	149.430	
139.00	-33.105	168.883	
140.00	-32.580	-178.372	
141.00	-32.305	-165.410	
142.00	-31.958	-155.746	
143.00	-31.601	-140.376	
144.00	-31.331	-128.497	
145.00	-31.011	-112.948	
146.00	-30.796	-102.232	
147.00	-30.524	-89.214	
148.00	-30.258	-77.453	
149.00	-30.060	-62.367	
150.00	-29.896	-52.589	
151.00	-29.674	-38.840	
152.00	-29.547	-32.340	
153.00	-29.333	-16.762	
154.00	-29.164	-7.656	
155.00	-29.037	-0.309	
156.00	-28.824	11.098	
157.00	-28.665	20.436	
158.00	-28.496	32.060	
159.00	-28.378	41.531	
160.00	-28.197	51.619	
161.00	-28.039	60.944	
162.00	-27.845	72.566	
163.00	-27.741	83.114	
164.00	-27.617	91.518	
165.00	-27.444	99.019	
166.00	-27.336	110.501	
167.00	-27.237	116.761	
168.00	-27.180	127.563	
169.00	-27.019	132.230	
170.00	-26.923	140.885	
171.00	-26.818	148.827	
172.00	-26.729	152.949	
173.00	-26.637	159.162	
174.00	-26.548	166.913	
175.00	-26.480	171.414	
176.00	-26.419	176.790	
177.00	-26.357	178.950	
178.00	-26.279	-178.829	
179.00	-26.243	-167.501	
180.00	-26.206	-165.750	
181.00	-26.186	-163.632	
182.00	-26.154	-159.363	
183.00	-26.181	-159.971	
184.00	-26.166	-159.504	
185.00	-26.162	-152.396	
186.00	-26.182	-152.600	
187.00	-26.128	-151.239	
188.00	-26.205	-151.480	
189.00	-26.260	-149.789	
190.00	-26.312	-147.580	
191.00	-26.360	-142.998	
192.00	-26.456	-146.012	
193.00	-26.508	-141.680	
194.00	-26.583	-146.478	
195.00	-26.649	-138.463	
196.00	-26.754	-144.224	
197.00	-26.866	-139.473	
198.00	-26.997	-141.338	
199.00	-27.159	-145.062	
200.00	-27.304	-147.187	
201.00	-27.463	-145.523	
202.00	-27.627	-146.217	
203.00	-27.793	-147.515	
204.00	-28.013	-154.553	
205.00	-28.209	-156.848	
206.00	-28.397	-156.887	
207.00	-28.616	-167.286	
208.00	-28.798	-170.746	
209.00	-29.007	-177.635	
210.00	-29.208	-178.643	
211.00	-29.406	175.787	
212.00	-29.625	173.529	
213.00	-29.840	166.050	
214.00	-30.049	161.812	
215.00	-30.264	152.751	
216.00	-30.464	148.270	
217.00	-30.715	136.351	
218.00	-30.993	124.437	
219.00	-31.220	120.411	
220.00	-31.512	109.130	
221.00	-31.795	103.659	
222.00	-32.119	91.742	
223.00	-32.424	84.927	
224.00	-32.715	73.687	
225.00	-33.019	64.187	
226.00	-33.353	54.019	
227.00	-33.651	43.839	
228.00	-33.996	27.888	
229.00	-34.355	17.526	
230.00	-34.761	6.973	
231.00	-35.084	-0.537	
232.00	-35.476	-15.061	
233.00	-35.884	-26.586	
234.00	-36.353	-41.866	
235.00	-36.753	-45.766	
236.00	-37.273	-61.464	
237.00	-37.693	-70.695	
238.00	-38.192	-86.497	
239.00	-38.554	-99.748	
240.00	-38.997	-114.230	
241.00	-39.369	-124.255	
242.00	-39.817	-143.022	
243.00	-40.226	-151.070	
244.00	-40.647	-165.436	
245.00	-41.144	-176.410	
246.00	-41.724	172.744	
247.00	-42.421	156.121	
248.00	-43.267	137.610	
249.00	-44.019	126.103	
250.00	-44.866	111.844	
251.00	-45.641	105.379	
252.00	-46.551	75.764	
253.00	-47.273	75.242	
254.00	-48.136	49.584	
255.00	-48.922	38.481	
256.00	-49.739	23.737	
257.00	-50.480	3.490	
258.00	-51.349	-9.990	
259.00	-52.094	-30.492	
260.00	-52.780	-43.380	
261.00	-53.424	-60.897	
262.00	-53.944	-79.603	
263.00	-53.957	-95.055	
264.00	-54.010	-105.284	
265.00	-53.681	-124.314	
266.00	-53.067	-128.783	
267.00	-53.239	-139.938	
268.00	-53.527	-145.540	
269.00	-53.619	-153.756	
270.00	-53.986	-159.365	
271.00	-55.017	-169.301	
272.00	-55.677	-176.685	
273.00	-56.210	180.000	
274.00	-58.121	162.619	
275.00	-59.619	155.170	
276.00	-60.313	138.339	
277.00	-60.898	109.884	
278.00	-60.822	90.912	
279.00	-60.386	76.410	
280.00	-59.214	52.280	
281.00	-58.540	40.335	
282.00	-58.213	19.858	
283.00	-58.757	10.076	
284.00	-59.058	-14.348	
285.00	-61.186	-42.777	
286.00	-61.440	-53.010	
287.00	-62.878	-82.098	
288.00	-61.284	-100.491	
289.00	-60.378	-114.799	
290.00	-59.299	-135.708	
291.00	-58.835	-147.485	
292.00	-58.610	-152.420	
293.00	-58.844	-149.020	
294.00	-58.990	-167.079	
295.00	-60.186	-176.355	
296.00	-61.353	-176.914	
297.00	-62.390	-175.999	
298.00	-66.173	176.477	
299.00	-67.071	156.945	
300.00	-72.421	151.223	
301.00	-72.559	103.080	
302.00	-72.330	110.052	
303.00	-83.144	-136.723	
304.00	-83.831	163.908	
305.00	-77.062	147.243	
306.00	-71.521	163.125	
307.00	-69.006	170.371	
308.00	-68.367	152.839	
309.00	-66.518	162.311	
310.00	-66.945	148.228	
311.00	-66.015	145.324	
312.00	-74.734	162.365	
313.00	-63.572	158.670	
314.00	-70.210	175.784	
315.00	-69.475	-142.196	
316.00	-67.864	-134.994	
317.00	-64.573	-111.354	
318.00	-62.064	-119.639	
319.00	-60.194	-115.990	
320.00	-58.732	-117.674	
321.00	-58.592	-120.983	
322.00	-56.391	-125.061	
323.00	-56.025	-124.697	
324.00	-55.263	-132.987	
325.00	-55.543	-136.094	
326.00	-55.056	-145.350	
327.00	-55.357	-146.434	
328.00	-55.769	-152.695	
329.00	-55.303	-157.693	
330.00	-56.171	-164.576	
331.00	-56.624	-171.186	
332.00	-57.483	-172.583	
333.00	-58.736	175.445	
334.00	-60.598	176.533	
335.00	-62.316	161.173	
336.00	-69.411	131.964	
337.00	-69.109	111.364	
338.00	-71.764	51.641	
339.00	-67.386	29.929	
340.00	-63.715	12.288	
341.00	-63.318	16.468	
342.00	-62.492	-0.118	
343.00	-59.886	-5.614	
344.00	-59.469	-6.717	
345.00	-58.595	-11.029	
346.00	-59.032	-16.966	
347.00	-58.544	-21.748	
348.00	-58.174	-30.700	
349.00	-59.341	-32.136	
350.00	-59.303	-38.611	
351.00	-60.067	-47.064	
352.00	-61.290	-48.602	
353.00	-61.559	-60.387	
354.00	-63.182	-67.496	
355.00	-62.192	-76.816	
356.00	-63.159	-85.160	
357.00	-64.226	-101.848	
358.00	-62.599	-103.311	
359.00	-62.481	-109.583	
Frequency	2170.00	MHz	
Channel	test		
Scan Axis name	Azimuth  [deg]		
Scan Axis	Amplitude	Phase	
			
0.00	-63.960	49.710	
1.00	-66.458	35.466	
2.00	-66.803	23.950	
3.00	-70.139	15.200	
4.00	-69.616	46.485	
5.00	-69.422	40.718	
6.00	-70.119	50.711	
7.00	-88.810	99.409	
8.00	-73.996	3.394	
9.00	-74.210	127.921	
10.00	-71.386	0.282	
11.00	-77.567	-18.270	
12.00	-79.638	116.338	
13.00	-84.581	-165.960	
14.00	-86.241	-101.461	
15.00	-76.091	-104.521	
16.00	-82.710	-54.688	
17.00	-75.411	-90.373	
18.00	-75.089	-44.129	
19.00	-75.950	-31.686	
20.00	-78.373	-67.375	
21.00	-74.151	-104.007	
22.00	-88.891	84.747	
23.00	-83.130	-128.198	
24.00	-73.114	-99.718	
25.00	-71.666	-105.780	
26.00	-72.987	-83.589	
27.00	-74.228	-83.604	
28.00	-72.281	-103.050	
29.00	-72.977	-111.575	
30.00	-70.757	-40.812	
31.00	-69.331	-89.905	
32.00	-72.141	-93.658	
33.00	-68.504	-134.751	
34.00	-67.547	-112.722	
35.00	-68.183	-103.556	
36.00	-68.519	-126.933	
37.00	-65.646	-138.168	
38.00	-65.018	-139.942	
39.00	-65.804	-139.449	
40.00	-64.460	-143.634	
41.00	-63.968	-142.141	
42.00	-66.289	-142.235	
43.00	-68.142	-124.757	
44.00	-68.613	-136.569	
45.00	-69.085	-165.921	
46.00	-73.617	-179.574	
47.00	-69.859	-164.848	
48.00	-63.600	-153.693	
49.00	-65.914	-145.518	
50.00	-66.267	157.264	
51.00	-63.904	137.249	
52.00	-64.519	137.125	
53.00	-61.682	135.507	
54.00	-64.015	148.907	
55.00	-65.661	136.244	
56.00	-68.491	152.341	
57.00	-63.908	153.623	
58.00	-64.331	160.187	
59.00	-60.198	174.460	
60.00	-66.374	146.763	
61.00	-66.617	178.614	
62.00	-69.948	179.452	
63.00	-71.720	-177.985	
64.00	-78.580	138.961	
65.00	-73.323	103.956	
66.00	-71.125	81.741	
67.00	-69.290	114.158	
68.00	-68.532	96.283	
69.00	-64.382	122.382	
70.00	-64.719	117.191	
71.00	-62.042	137.179	
72.00	-59.791	138.798	
73.00	-62.524	151.182	
74.00	-60.913	155.283	
75.00	-60.254	-167.765	
76.00	-61.681	-169.409	
77.00	-64.508	-162.643	
78.00	-61.377	-158.733	
79.00	-64.878	-141.917	
80.00	-66.530	-116.194	
81.00	-70.726	-88.741	
82.00	-69.579	-53.275	
83.00	-65.416	-19.341	
84.00	-65.215	3.161	
85.00	-62.077	16.719	
86.00	-60.690	32.717	
87.00	-58.558	56.278	
88.00	-59.043	67.657	
89.00	-58.002	83.427	
90.00	-58.102	100.011	
91.00	-57.192	105.740	
92.00	-56.624	120.243	
93.00	-56.806	140.395	
94.00	-55.873	154.047	
95.00	-56.481	170.505	
96.00	-55.913	178.938	
97.00	-55.594	-156.985	
98.00	-56.226	-126.834	
99.00	-56.760	-101.305	
100.00	-57.078	-86.006	
101.00	-54.753	-53.057	
102.00	-55.643	-30.775	
103.00	-53.947	-12.874	
104.00	-51.919	6.675	
105.00	-50.781	22.705	
106.00	-49.405	37.002	
107.00	-48.405	45.272	
108.00	-47.417	68.987	
109.00	-46.375	86.939	
110.00	-45.839	96.408	
111.00	-45.305	116.541	
112.00	-45.348	131.655	
113.00	-44.491	147.777	
114.00	-43.734	167.586	
115.00	-43.714	177.758	
116.00	-43.711	-159.122	
117.00	-43.055	-144.928	
118.00	-42.736	-125.678	
119.00	-42.335	-105.143	
120.00	-42.120	-91.385	
121.00	-41.412	-68.063	
122.00	-41.101	-47.896	
123.00	-40.223	-38.471	
124.00	-39.786	-12.191	
125.00	-39.297	4.626	
126.00	-38.688	25.687	
127.00	-37.953	37.729	
128.00	-37.616	54.302	
129.00	-37.203	71.856	
130.00	-36.557	90.629	
131.00	-36.046	105.873	
132.00	-35.739	127.758	
133.00	-35.296	140.939	
134.00	-34.946	163.089	
135.00	-34.637	-179.481	
136.00	-34.377	-163.809	
137.00	-33.898	-145.184	
138.00	-33.591	-132.163	
139.00	-33.317	-111.234	
140.00	-32.901	-97.117	
141.00	-32.689	-83.012	
142.00	-32.297	-71.757	
143.00	-31.997	-54.855	
144.00	-31.672	-40.993	
145.00	-31.408	-24.293	
146.00	-31.120	-12.052	
147.00	-30.764	2.438	
148.00	-30.509	16.073	
149.00	-30.236	32.072	
150.00	-29.935	43.052	
151.00	-29.695	57.756	
152.00	-29.408	64.293	
153.00	-29.103	80.791	
154.00	-28.891	90.581	
155.00	-28.668	98.300	
156.00	-28.422	110.208	
157.00	-28.231	119.458	
158.00	-27.984	131.755	
159.00	-27.784	141.815	
160.00	-27.673	152.449	
161.00	-27.493	162.744	
162.00	-27.405	174.290	
163.00	-27.181	-174.460	
164.00	-27.152	-165.614	
165.00	-26.920	-157.408	
166.00	-26.813	-145.255	
167.00	-26.694	-138.984	
168.00	-26.594	-127.576	
169.00	-26.463	-121.962	
170.00	-26.293	-113.128	
171.00	-26.152	-104.333	
172.00	-26.061	-100.243	
173.00	-25.931	-93.663	
174.00	-25.842	-85.473	
175.00	-25.736	-80.810	
176.00	-25.695	-75.239	
177.00	-25.624	-72.598	
178.00	-25.589	-70.027	
179.00	-25.528	-58.204	
180.00	-25.504	-55.933	
181.00	-25.487	-53.614	
182.00	-25.504	-49.214	
183.00	-25.539	-49.083	
184.00	-25.526	-48.749	
185.00	-25.546	-41.282	
186.00	-25.583	-41.057	
187.00	-25.670	-39.915	
188.00	-25.689	-40.428	
189.00	-25.767	-38.136	
190.00	-25.858	-35.722	
191.00	-25.946	-30.495	
192.00	-26.072	-34.535	
193.00	-26.139	-29.003	
194.00	-26.224	-35.083	
195.00	-26.349	-26.451	
196.00	-26.443	-32.814	
197.00	-26.560	-27.901	
198.00	-26.683	-30.275	
199.00	-26.851	-34.246	
200.00	-27.018	-37.082	
201.00	-27.149	-35.705	
202.00	-27.339	-36.496	
203.00	-27.511	-38.184	
204.00	-27.686	-45.758	
205.00	-27.879	-48.993	
206.00	-28.075	-48.876	
207.00	-28.299	-60.695	
208.00	-28.550	-64.052	
209.00	-28.742	-71.803	
210.00	-29.022	-73.284	
211.00	-29.240	-79.422	
212.00	-29.552	-81.886	
213.00	-29.743	-90.440	
214.00	-30.005	-95.722	
215.00	-30.258	-105.545	
216.00	-30.526	-111.018	
217.00	-30.766	-123.683	
218.00	-31.048	-137.002	
219.00	-31.305	-141.674	
220.00	-31.574	-153.711	
221.00	-31.869	-159.578	
222.00	-32.156	-172.144	
223.00	-32.502	-179.276	
224.00	-32.874	168.957	
225.00	-33.159	158.717	
226.00	-33.505	148.628	
227.00	-33.956	138.372	
228.00	-34.431	121.785	
229.00	-34.903	111.939	
230.00	-35.368	100.500	
231.00	-35.910	92.478	
232.00	-36.448	77.233	
233.00	-37.052	64.752	
234.00	-37.676	48.855	
235.00	-38.132	44.656	
236.00	-38.735	27.740	
237.00	-39.284	17.927	
238.00	-39.928	2.792	
239.00	-40.661	-8.936	
240.00	-41.118	-24.573	
241.00	-41.940	-36.464	
242.00	-42.664	-57.054	
243.00	-43.344	-66.872	
244.00	-44.070	-82.726	
245.00	-44.746	-96.183	
246.00	-45.453	-110.228	
247.00	-46.092	-129.571	
248.00	-46.422	-150.926	
249.00	-47.054	-163.019	
250.00	-47.290	-177.821	
251.00	-47.822	178.564	
252.00	-48.412	153.820	
253.00	-49.242	154.244	
254.00	-50.418	133.857	
255.00	-51.518	123.882	
256.00	-52.746	114.369	
257.00	-53.351	93.754	
258.00	-54.664	82.917	
259.00	-55.892	55.747	
260.00	-56.126	43.892	
261.00	-55.656	30.675	
262.00	-55.070	20.197	
263.00	-54.577	10.603	
264.00	-54.615	4.768	
265.00	-54.322	-9.331	
266.00	-54.397	-10.307	
267.00	-55.015	-22.159	
268.00	-56.073	-28.818	
269.00	-57.470	-44.311	
270.00	-58.787	-58.211	
271.00	-61.162	-86.339	
272.00	-61.820	-112.986	
273.00	-61.376	-137.108	
274.00	-58.723	-177.954	
275.00	-56.731	168.828	
276.00	-54.671	158.032	
277.00	-54.023	141.210	
278.00	-52.990	133.433	
279.00	-52.485	125.077	
280.00	-52.381	112.074	
281.00	-53.009	99.939	
282.00	-53.777	74.633	
283.00	-55.541	53.369	
284.00	-56.338	29.464	
285.00	-56.937	-8.315	
286.00	-57.164	-22.507	
287.00	-56.010	-56.287	
288.00	-55.859	-71.172	
289.00	-55.329	-88.081	
290.00	-55.493	-105.958	
291.00	-55.388	-120.104	
292.00	-55.722	-140.264	
293.00	-55.574	-167.404	
294.00	-56.138	-177.797	
295.00	-56.113	158.891	
296.00	-55.945	137.078	
297.00	-55.457	116.255	
298.00	-55.825	100.028	
299.00	-54.696	81.494	
300.00	-54.132	61.422	
301.00	-53.295	48.202	
302.00	-53.601	39.236	
303.00	-54.618	21.690	
304.00	-54.351	14.568	
305.00	-55.239	1.303	
306.00	-56.759	-10.213	
307.00	-58.599	-28.295	
308.00	-58.483	-55.453	
309.00	-60.914	-70.766	
310.00	-60.263	-94.122	
311.00	-62.597	-125.362	
312.00	-61.303	-148.690	
313.00	-60.993	-175.247	
314.00	-61.240	169.430	
315.00	-61.006	138.992	
316.00	-61.166	126.029	
317.00	-60.300	101.326	
318.00	-59.461	78.827	
319.00	-59.465	65.095	
320.00	-58.269	47.050	
321.00	-57.943	37.582	
322.00	-56.850	21.039	
323.00	-57.474	7.071	
324.00	-56.889	-2.517	
325.00	-56.072	-19.978	
326.00	-55.509	-34.010	
327.00	-55.915	-44.010	
328.00	-55.565	-58.518	
329.00	-55.864	-63.708	
330.00	-56.205	-78.242	
331.00	-56.341	-86.650	
332.00	-56.049	-98.062	
333.00	-56.737	-102.046	
334.00	-57.462	-123.745	
335.00	-57.509	-132.598	
336.00	-57.231	-144.925	
337.00	-57.082	-154.950	
338.00	-58.798	-172.949	
339.00	-57.796	-175.294	
340.00	-58.964	170.656	
341.00	-58.643	165.213	
342.00	-57.961	141.741	
343.00	-59.017	139.254	
344.00	-58.871	141.336	
345.00	-59.781	130.973	
346.00	-59.824	118.475	
347.00	-61.097	119.823	
348.00	-60.865	99.108	
349.00	-62.620	101.717	
350.00	-63.033	88.818	
351.00	-63.154	70.046	
352.00	-64.794	59.585	
353.00	-64.679	50.997	
354.00	-63.952	63.733	
355.00	-64.623	49.542	
356.00	-68.023	43.361	
357.00	-68.911	55.626	
358.00	-68.249	41.258	
359.00	-67.823	50.763	
Frequency	2300.00	MHz	
Channel	test		
Scan Axis name	Azimuth  [deg]		
Scan Axis	Amplitude	Phase	
			
0.00	-62.568	17.647	
1.00	-63.047	28.792	
2.00	-61.423	19.001	
3.00	-61.767	14.075	
4.00	-59.701	6.591	
5.00	-60.424	16.161	
6.00	-64.736	23.221	
7.00	-64.167	7.779	
8.00	-63.138	24.414	
9.00	-64.151	37.460	
10.00	-67.210	45.219	
11.00	-72.805	18.655	
12.00	-73.779	82.617	
13.00	-73.779	74.303	
14.00	-64.806	119.556	
15.00	-67.783	136.028	
16.00	-67.047	138.255	
17.00	-63.649	166.735	
18.00	-64.460	-178.542	
19.00	-61.808	176.790	
20.00	-61.390	166.098	
21.00	-62.286	177.026	
22.00	-61.837	170.912	
23.00	-61.875	-179.953	
24.00	-61.428	-177.036	
25.00	-62.800	-170.629	
26.00	-65.439	-162.393	
27.00	-67.516	173.540	
28.00	-63.159	-179.062	
29.00	-64.010	-161.786	
30.00	-65.784	-172.924	
31.00	-61.934	-167.314	
32.00	-63.376	170.690	
33.00	-66.413	-170.995	
34.00	-66.212	-153.444	
35.00	-68.774	-155.778	
36.00	-66.480	-117.169	
37.00	-66.166	-122.065	
38.00	-64.839	-113.524	
39.00	-66.025	-139.547	
40.00	-65.629	-106.866	
41.00	-70.288	-90.628	
42.00	-70.104	-108.017	
43.00	-78.633	-20.768	
44.00	-79.280	7.641	
45.00	-77.223	-43.055	
46.00	-74.326	35.585	
47.00	-65.743	101.188	
48.00	-62.523	90.548	
49.00	-63.488	102.723	
50.00	-62.053	114.934	
51.00	-58.917	112.142	
52.00	-58.354	113.866	
53.00	-57.935	134.812	
54.00	-57.834	139.136	
55.00	-57.391	144.306	
56.00	-56.703	142.596	
57.00	-57.715	145.966	
58.00	-58.936	179.574	
59.00	-57.933	-173.266	
60.00	-59.143	178.019	
61.00	-58.133	-158.019	
62.00	-59.944	-143.617	
63.00	-60.260	-154.156	
64.00	-61.675	-131.544	
65.00	-64.073	-93.129	
66.00	-62.272	-110.589	
67.00	-68.259	-53.040	
68.00	-69.868	-24.776	
69.00	-62.754	-7.430	
70.00	-62.667	-14.859	
71.00	-61.417	20.406	
72.00	-59.397	22.312	
73.00	-59.356	65.438	
74.00	-59.262	81.899	
75.00	-53.045	82.189	
76.00	-57.322	92.354	
77.00	-56.834	110.563	
78.00	-56.243	140.795	
79.00	-57.114	146.326	
80.00	-57.983	162.916	
81.00	-57.880	173.624	
82.00	-57.235	-176.192	
83.00	-58.578	-158.680	
84.00	-62.122	-127.345	
85.00	-56.465	-109.618	
86.00	-57.981	-107.677	
87.00	-59.874	-63.566	
88.00	-57.261	-58.810	
89.00	-57.116	-57.960	
90.00	-58.057	-34.220	
91.00	-58.164	-21.448	
92.00	-59.170	-9.070	
93.00	-58.944	4.062	
94.00	-59.607	26.167	
95.00	-58.418	33.741	
96.00	-60.445	62.342	
97.00	-60.235	77.703	
98.00	-58.998	107.768	
99.00	-61.456	137.457	
100.00	-58.638	142.888	
101.00	-56.531	158.877	
102.00	-56.968	171.314	
103.00	-54.901	-162.604	
104.00	-57.709	-148.223	
105.00	-54.829	-138.560	
106.00	-55.842	-124.525	
107.00	-54.876	-106.260	
108.00	-54.354	-99.536	
109.00	-54.574	-76.585	
110.00	-55.098	-54.008	
111.00	-53.198	-34.081	
112.00	-51.074	-13.499	
113.00	-51.012	6.078	
114.00	-51.265	25.259	
115.00	-49.858	48.905	
116.00	-49.262	67.354	
117.00	-47.491	80.248	
118.00	-47.480	103.578	
119.00	-46.620	121.972	
120.00	-45.740	134.345	
121.00	-45.161	157.598	
122.00	-45.285	-179.995	
123.00	-44.279	-173.943	
124.00	-44.123	-145.895	
125.00	-43.464	-130.118	
126.00	-42.884	-104.311	
127.00	-42.701	-91.014	
128.00	-41.838	-71.458	
129.00	-41.159	-52.695	
130.00	-40.891	-30.384	
131.00	-39.777	-13.887	
132.00	-39.105	9.863	
133.00	-38.652	24.026	
134.00	-37.893	49.322	
135.00	-37.561	66.130	
136.00	-37.013	82.685	
137.00	-36.574	102.598	
138.00	-36.314	115.967	
139.00	-35.824	138.007	
140.00	-35.566	151.882	
141.00	-35.163	167.640	
142.00	-34.960	178.302	
143.00	-34.481	-163.439	
144.00	-34.221	-148.802	
145.00	-33.845	-130.865	
146.00	-33.566	-117.891	
147.00	-33.255	-102.294	
148.00	-33.007	-88.275	
149.00	-32.687	-70.633	
150.00	-32.372	-58.885	
151.00	-31.979	-42.953	
152.00	-31.629	-36.097	
153.00	-31.329	-18.082	
154.00	-31.077	-8.462	
155.00	-30.761	0.464	
156.00	-30.545	13.220	
157.00	-30.219	22.866	
158.00	-30.090	36.780	
159.00	-29.660	47.358	
160.00	-29.452	58.134	
161.00	-29.211	69.166	
162.00	-29.043	82.275	
163.00	-28.968	92.671	
164.00	-28.722	102.408	
165.00	-28.615	110.952	
166.00	-28.305	123.371	
167.00	-28.293	130.615	
168.00	-28.074	141.840	
169.00	-27.945	147.679	
170.00	-27.799	156.759	
171.00	-27.719	165.768	
172.00	-27.569	170.050	
173.00	-27.501	176.821	
174.00	-27.447	-174.319	
175.00	-27.354	-169.089	
176.00	-27.309	-163.714	
177.00	-27.268	-160.774	
178.00	-27.242	-158.292	
179.00	-27.233	-145.805	
180.00	-27.235	-142.845	
181.00	-27.197	-140.668	
182.00	-27.204	-136.104	
183.00	-27.269	-136.531	
184.00	-27.258	-135.754	
185.00	-27.269	-127.700	
186.00	-27.330	-127.662	
187.00	-27.339	-126.740	
188.00	-27.386	-127.338	
189.00	-27.481	-124.653	
190.00	-27.558	-122.298	
191.00	-27.616	-116.688	
192.00	-27.733	-121.894	
193.00	-27.794	-115.307	
194.00	-27.909	-122.151	
195.00	-27.994	-112.863	
196.00	-28.119	-120.057	
197.00	-28.177	-115.140	
198.00	-28.355	-117.660	
199.00	-28.483	-122.004	
200.00	-28.603	-125.203	
201.00	-28.774	-124.101	
202.00	-28.954	-125.153	
203.00	-29.145	-127.111	
204.00	-29.342	-134.921	
205.00	-29.585	-138.821	
206.00	-29.818	-138.486	
207.00	-30.074	-151.249	
208.00	-30.267	-154.833	
209.00	-30.629	-163.029	
210.00	-30.927	-164.517	
211.00	-31.264	-170.718	
212.00	-31.614	-173.619	
213.00	-32.028	177.704	
214.00	-32.460	172.524	
215.00	-32.862	162.310	
216.00	-33.287	156.416	
217.00	-33.772	143.329	
218.00	-34.311	128.749	
219.00	-34.724	123.830	
220.00	-35.255	110.486	
221.00	-35.772	103.978	
222.00	-36.274	91.416	
223.00	-36.883	82.933	
224.00	-37.411	69.804	
225.00	-38.097	59.441	
226.00	-38.600	48.055	
227.00	-39.277	35.788	
228.00	-39.997	18.113	
229.00	-40.674	6.982	
230.00	-41.375	-5.179	
231.00	-42.311	-13.977	
232.00	-42.941	-30.382	
233.00	-43.734	-44.706	
234.00	-44.631	-60.912	
235.00	-45.340	-66.520	
236.00	-46.282	-84.586	
237.00	-47.121	-94.993	
238.00	-48.194	-110.140	
239.00	-49.224	-129.791	
240.00	-49.913	-142.710	
241.00	-51.102	-158.732	
242.00	-52.058	178.623	
243.00	-52.802	159.806	
244.00	-53.890	144.637	
245.00	-54.900	129.655	
246.00	-55.756	107.876	
247.00	-56.099	94.306	
248.00	-56.630	70.753	
249.00	-58.036	59.090	
250.00	-59.035	43.989	
251.00	-60.024	41.605	
252.00	-62.286	17.236	
253.00	-67.384	10.726	
254.00	-70.380	30.295	
255.00	-76.422	10.611	
256.00	-77.461	60.866	
257.00	-70.659	132.860	
258.00	-73.479	93.004	
259.00	-70.636	69.793	
260.00	-69.358	20.654	
261.00	-66.716	27.414	
262.00	-65.456	-12.002	
263.00	-63.950	-14.654	
264.00	-62.683	-40.864	
265.00	-62.743	-66.727	
266.00	-60.198	-72.992	
267.00	-60.706	-95.595	
268.00	-60.530	-107.285	
269.00	-60.371	-124.994	
270.00	-60.002	-143.431	
271.00	-60.812	-158.053	
272.00	-61.950	-176.557	
273.00	-62.258	160.658	
274.00	-64.207	141.268	
275.00	-66.328	135.540	
276.00	-69.520	104.512	
277.00	-70.876	35.842	
278.00	-68.544	-1.443	
279.00	-64.919	-30.189	
280.00	-61.948	-53.199	
281.00	-59.891	-68.146	
282.00	-58.014	-92.452	
283.00	-57.895	-103.080	
284.00	-58.425	-120.235	
285.00	-60.619	-146.895	
286.00	-60.589	-164.680	
287.00	-61.655	155.207	
288.00	-62.045	134.662	
289.00	-59.634	99.271	
290.00	-58.000	78.309	
291.00	-57.110	64.095	
292.00	-56.213	48.218	
293.00	-55.990	37.169	
294.00	-55.584	34.844	
295.00	-56.897	20.699	
296.00	-56.949	9.660	
297.00	-60.096	-8.502	
298.00	-61.109	-25.831	
299.00	-63.988	-56.599	
300.00	-68.126	-90.644	
301.00	-65.528	-135.646	
302.00	-63.366	-170.165	
303.00	-60.578	179.204	
304.00	-60.561	173.685	
305.00	-59.167	164.915	
306.00	-59.107	153.708	
307.00	-60.055	140.664	
308.00	-61.030	137.820	
309.00	-62.272	119.902	
310.00	-67.368	105.536	
311.00	-71.470	93.007	
312.00	-70.490	28.587	
313.00	-71.372	-115.633	
314.00	-67.085	-44.648	
315.00	-64.208	-55.749	
316.00	-63.894	-60.830	
317.00	-62.603	-69.475	
318.00	-62.778	-68.957	
319.00	-62.690	-65.875	
320.00	-64.332	-60.980	
321.00	-64.571	-65.286	
322.00	-67.748	-36.784	
323.00	-65.304	-26.140	
324.00	-64.298	-1.891	
325.00	-61.200	-11.331	
326.00	-62.054	-7.204	
327.00	-60.990	-8.370	
328.00	-59.716	-11.973	
329.00	-59.313	-14.281	
330.00	-59.993	-22.268	
331.00	-59.257	-21.705	
332.00	-59.138	-34.075	
333.00	-59.445	-44.112	
334.00	-60.617	-51.084	
335.00	-61.222	-65.408	
336.00	-62.278	-75.168	
337.00	-61.286	-83.770	
338.00	-61.341	-115.216	
339.00	-62.855	-102.942	
340.00	-63.092	-130.586	
341.00	-63.758	-135.525	
342.00	-63.008	-168.656	
343.00	-63.961	172.831	
344.00	-63.345	160.149	
345.00	-64.250	146.620	
346.00	-65.466	162.800	
347.00	-64.920	125.845	
348.00	-63.326	117.905	
349.00	-63.945	116.220	
350.00	-65.745	106.029	
351.00	-66.521	86.141	
352.00	-65.688	82.438	
353.00	-64.690	77.059	
354.00	-63.810	69.251	
355.00	-64.336	45.654	
356.00	-63.496	32.283	
357.00	-62.437	41.262	
358.00	-61.644	15.413	
359.00	-63.659	35.146	
Frequency	2350.00	MHz	
Channel	test		
Scan Axis name	Azimuth  [deg]		
Scan Axis	Amplitude	Phase	
			
0.00	-63.255	114.691	
1.00	-64.244	113.382	
2.00	-63.522	78.573	
3.00	-63.473	75.074	
4.00	-62.638	60.114	
5.00	-62.985	51.959	
6.00	-61.899	45.413	
7.00	-61.861	46.459	
8.00	-61.354	42.881	
9.00	-61.262	40.651	
10.00	-62.003	38.892	
11.00	-62.756	44.415	
12.00	-62.443	46.944	
13.00	-64.100	47.134	
14.00	-63.760	53.503	
15.00	-65.413	57.912	
16.00	-66.600	56.310	
17.00	-68.768	59.312	
18.00	-70.124	65.455	
19.00	-70.467	58.475	
20.00	-76.376	63.445	
21.00	-82.639	61.688	
22.00	-82.338	-17.092	
23.00	-73.402	-56.574	
24.00	-70.594	-64.339	
25.00	-70.025	-54.986	
26.00	-68.980	-68.956	
27.00	-66.353	-63.030	
28.00	-66.851	-49.554	
29.00	-65.075	-42.773	
30.00	-64.810	-35.942	
31.00	-63.740	-27.515	
32.00	-63.606	-27.786	
33.00	-63.213	-10.560	
34.00	-62.078	-2.908	
35.00	-61.784	-6.063	
36.00	-61.431	14.689	
37.00	-61.139	12.955	
38.00	-61.130	28.063	
39.00	-60.710	31.893	
40.00	-60.489	47.223	
41.00	-61.450	56.558	
42.00	-61.940	66.893	
43.00	-62.806	79.247	
44.00	-62.552	97.128	
45.00	-61.107	117.403	
46.00	-61.738	118.978	
47.00	-61.702	136.294	
48.00	-62.145	152.019	
49.00	-61.003	172.743	
50.00	-63.105	-175.685	
51.00	-61.131	-170.740	
52.00	-60.616	-154.419	
53.00	-61.053	-136.461	
54.00	-61.347	-130.291	
55.00	-59.662	-112.853	
56.00	-60.267	-102.874	
57.00	-59.374	-97.765	
58.00	-60.342	-72.888	
59.00	-62.754	-57.948	
60.00	-62.855	-68.097	
61.00	-64.121	-57.869	
62.00	-64.151	-53.336	
63.00	-69.196	1.526	
64.00	-65.655	-19.462	
65.00	-78.554	-19.730	
66.00	-69.646	9.426	
67.00	-68.662	47.482	
68.00	-67.922	110.304	
69.00	-69.824	105.604	
70.00	-68.623	121.937	
71.00	-67.196	146.349	
72.00	-69.145	-169.687	
73.00	-69.498	-176.129	
74.00	-65.266	-158.358	
75.00	-67.306	-152.177	
76.00	-65.835	-115.060	
77.00	-64.899	-96.760	
78.00	-62.705	-108.520	
79.00	-63.496	-79.580	
80.00	-62.368	-87.999	
81.00	-61.499	-76.850	
82.00	-63.816	-56.986	
83.00	-63.582	-43.077	
84.00	-63.745	-22.079	
85.00	-63.328	4.654	
86.00	-67.255	32.608	
87.00	-66.582	49.696	
88.00	-68.627	43.949	
89.00	-65.002	95.939	
90.00	-68.582	132.726	
91.00	-64.715	133.967	
92.00	-64.678	-173.405	
93.00	-63.156	-170.014	
94.00	-63.692	-156.257	
95.00	-63.455	-140.826	
96.00	-65.317	-136.889	
97.00	-64.235	-98.388	
98.00	-65.300	-87.982	
99.00	-67.774	-101.344	
100.00	-70.928	-98.039	
101.00	-71.461	-133.319	
102.00	-69.531	-162.445	
103.00	-68.332	-122.824	
104.00	-68.084	-150.005	
105.00	-64.939	-127.185	
106.00	-66.655	-91.246	
107.00	-63.777	-85.596	
108.00	-63.440	-63.661	
109.00	-60.777	-30.063	
110.00	-61.963	-5.789	
111.00	-60.130	22.817	
112.00	-58.171	50.372	
113.00	-55.874	71.366	
114.00	-54.669	95.057	
115.00	-53.333	114.480	
116.00	-51.521	139.041	
117.00	-50.087	153.847	
118.00	-48.687	172.840	
119.00	-47.858	-167.011	
120.00	-46.831	-153.444	
121.00	-46.169	-130.948	
122.00	-44.987	-110.411	
123.00	-44.315	-101.325	
124.00	-43.626	-75.599	
125.00	-42.875	-58.637	
126.00	-42.433	-36.727	
127.00	-41.762	-23.124	
128.00	-41.180	-6.332	
129.00	-40.711	10.074	
130.00	-40.162	34.051	
131.00	-39.675	50.799	
132.00	-39.191	74.535	
133.00	-38.625	89.426	
134.00	-38.145	114.350	
135.00	-37.644	132.337	
136.00	-37.212	149.169	
137.00	-36.813	169.838	
138.00	-36.419	-175.973	
139.00	-36.043	-153.181	
140.00	-35.654	-137.833	
141.00	-35.323	-122.040	
142.00	-34.933	-110.894	
143.00	-34.492	-92.252	
144.00	-34.186	-77.062	
145.00	-33.761	-58.498	
146.00	-33.411	-45.534	
147.00	-32.996	-30.044	
148.00	-32.650	-15.618	
149.00	-32.275	2.583	
150.00	-31.907	14.026	
151.00	-31.607	30.676	
152.00	-31.269	37.492	
153.00	-30.945	55.601	
154.00	-30.585	66.238	
155.00	-30.278	74.562	
156.00	-29.982	87.475	
157.00	-29.692	96.904	
158.00	-29.434	110.648	
159.00	-29.214	120.517	
160.00	-28.971	132.609	
161.00	-28.770	142.941	
162.00	-28.526	156.277	
163.00	-28.347	167.069	
164.00	-28.195	176.843	
165.00	-27.993	-175.161	
166.00	-27.862	-162.571	
167.00	-27.746	-155.245	
168.00	-27.625	-143.661	
169.00	-27.500	-137.662	
170.00	-27.370	-128.456	
171.00	-27.288	-119.350	
172.00	-27.201	-114.885	
173.00	-27.113	-108.117	
174.00	-27.063	-98.972	
175.00	-27.016	-93.232	
176.00	-27.000	-87.773	
177.00	-26.970	-84.589	
178.00	-26.957	-81.748	
179.00	-26.936	-68.991	
180.00	-26.943	-65.653	
181.00	-26.934	-63.426	
182.00	-26.945	-58.704	
183.00	-26.960	-58.572	
184.00	-26.983	-57.622	
185.00	-27.008	-49.443	
186.00	-27.046	-49.282	
187.00	-27.098	-48.529	
188.00	-27.148	-48.760	
189.00	-27.201	-45.841	
190.00	-27.263	-43.634	
191.00	-27.349	-37.569	
192.00	-27.473	-43.664	
193.00	-27.542	-36.137	
194.00	-27.654	-43.636	
195.00	-27.761	-34.120	
196.00	-27.900	-41.771	
197.00	-28.048	-36.877	
198.00	-28.208	-39.560	
199.00	-28.383	-43.951	
200.00	-28.568	-47.436	
201.00	-28.772	-46.736	
202.00	-28.998	-47.561	
203.00	-29.214	-49.926	
204.00	-29.492	-57.719	
205.00	-29.757	-62.921	
206.00	-29.985	-62.025	
207.00	-30.276	-75.574	
208.00	-30.576	-78.689	
209.00	-30.902	-87.415	
210.00	-31.236	-89.578	
211.00	-31.581	-95.680	
212.00	-31.949	-98.299	
213.00	-32.339	-107.076	
214.00	-32.739	-112.662	
215.00	-33.181	-122.883	
216.00	-33.647	-129.372	
217.00	-34.127	-141.629	
218.00	-34.624	-156.810	
219.00	-35.094	-161.203	
220.00	-35.606	-174.320	
221.00	-36.115	178.854	
222.00	-36.652	166.492	
223.00	-37.176	158.103	
224.00	-37.758	145.469	
225.00	-38.288	135.279	
226.00	-38.932	124.664	
227.00	-39.627	113.294	
228.00	-40.403	95.943	
229.00	-41.223	85.318	
230.00	-42.039	73.176	
231.00	-42.839	63.958	
232.00	-43.814	46.722	
233.00	-44.682	32.452	
234.00	-45.515	13.784	
235.00	-46.340	9.111	
236.00	-46.983	-10.960	
237.00	-47.771	-23.396	
238.00	-48.197	-40.274	
239.00	-48.788	-56.528	
240.00	-49.326	-72.091	
241.00	-50.096	-83.689	
242.00	-50.969	-102.407	
243.00	-51.810	-112.127	
244.00	-52.839	-127.925	
245.00	-54.066	-141.711	
246.00	-54.908	-155.567	
247.00	-55.872	-176.026	
248.00	-56.461	162.649	
249.00	-57.459	152.360	
250.00	-58.148	140.818	
251.00	-58.901	142.156	
252.00	-60.109	121.406	
253.00	-61.311	130.877	
254.00	-62.457	126.244	
255.00	-62.609	123.737	
256.00	-63.282	129.250	
257.00	-63.597	117.828	
258.00	-64.400	117.436	
259.00	-64.106	83.471	
260.00	-63.881	65.372	
261.00	-62.714	50.070	
262.00	-61.508	32.426	
263.00	-60.095	13.706	
264.00	-59.175	5.789	
265.00	-58.646	-20.383	
266.00	-58.553	-29.960	
267.00	-58.681	-52.182	
268.00	-58.977	-70.996	
269.00	-58.881	-94.879	
270.00	-59.170	-119.362	
271.00	-58.681	-144.710	
272.00	-58.348	-165.108	
273.00	-57.342	177.369	
274.00	-56.456	155.237	
275.00	-56.395	139.023	
276.00	-56.243	124.563	
277.00	-56.012	100.318	
278.00	-56.160	85.857	
279.00	-55.633	68.341	
280.00	-55.587	46.930	
281.00	-55.840	24.301	
282.00	-55.974	-10.312	
283.00	-55.873	-32.861	
284.00	-55.961	-52.757	
285.00	-56.404	-77.591	
286.00	-56.547	-93.463	
287.00	-58.103	-117.632	
288.00	-59.105	-134.704	
289.00	-60.874	-164.713	
290.00	-61.424	161.289	
291.00	-60.295	133.426	
292.00	-59.385	104.796	
293.00	-58.569	86.296	
294.00	-57.992	74.882	
295.00	-58.467	54.925	
296.00	-58.834	40.144	
297.00	-59.863	26.983	
298.00	-62.422	1.684	
299.00	-63.733	-29.060	
300.00	-64.445	-68.659	
301.00	-62.424	-110.805	
302.00	-60.881	-129.040	
303.00	-59.490	-152.610	
304.00	-58.748	-165.796	
305.00	-57.953	173.402	
306.00	-57.609	161.402	
307.00	-58.018	140.894	
308.00	-58.453	120.840	
309.00	-58.675	92.314	
310.00	-58.361	70.280	
311.00	-57.472	51.594	
312.00	-56.590	36.404	
313.00	-56.020	15.214	
314.00	-55.230	4.410	
315.00	-55.049	-16.855	
316.00	-54.784	-24.837	
317.00	-55.218	-42.543	
318.00	-55.513	-55.406	
319.00	-56.142	-70.152	
320.00	-56.558	-84.126	
321.00	-57.721	-92.381	
322.00	-58.938	-112.039	
323.00	-60.921	-128.331	
324.00	-62.602	-147.825	
325.00	-64.320	172.830	
326.00	-65.184	134.759	
327.00	-63.594	111.148	
328.00	-60.852	87.849	
329.00	-59.517	71.536	
330.00	-57.882	55.753	
331.00	-56.828	48.750	
332.00	-56.262	40.375	
333.00	-55.561	34.193	
334.00	-55.474	20.510	
335.00	-55.217	14.504	
336.00	-55.895	1.482	
337.00	-56.300	-4.515	
338.00	-57.176	-22.411	
339.00	-57.606	-29.807	
340.00	-58.724	-47.576	
341.00	-58.560	-58.185	
342.00	-58.578	-82.852	
343.00	-58.371	-96.879	
344.00	-58.258	-106.390	
345.00	-58.411	-118.868	
346.00	-57.582	-127.778	
347.00	-57.397	-139.778	
348.00	-57.198	-146.097	
349.00	-57.608	-154.101	
350.00	-57.401	-159.513	
351.00	-58.481	-170.091	
352.00	-58.423	-177.450	
353.00	-59.150	171.196	
354.00	-59.162	174.824	
355.00	-59.963	155.164	
356.00	-60.487	153.853	
357.00	-61.261	139.710	
358.00	-61.824	129.980	
359.00	-62.609	124.989	
Frequency	2400.00	MHz	
Channel	test		
Scan Axis name	Azimuth  [deg]		
Scan Axis	Amplitude	Phase	
			
0.00	-64.336	-125.293	
1.00	-63.524	-127.126	
2.00	-65.834	-127.279	
3.00	-66.500	-133.083	
4.00	-67.266	-143.270	
5.00	-68.817	-145.477	
6.00	-68.768	-161.519	
7.00	-66.018	-165.732	
8.00	-68.180	173.382	
9.00	-66.505	179.162	
10.00	-66.628	161.222	
11.00	-65.633	160.956	
12.00	-67.114	167.793	
13.00	-66.513	157.764	
14.00	-67.970	139.590	
15.00	-65.495	152.588	
16.00	-68.568	120.081	
17.00	-66.841	144.373	
18.00	-68.013	126.043	
19.00	-67.947	138.716	
20.00	-68.190	144.055	
21.00	-67.574	158.915	
22.00	-68.184	135.750	
23.00	-70.951	145.983	
24.00	-71.165	168.670	
25.00	-72.554	167.166	
26.00	-73.554	177.882	
27.00	-72.567	168.108	
28.00	-76.445	166.569	
29.00	-76.671	148.926	
30.00	-75.280	147.567	
31.00	-76.382	141.374	
32.00	-74.762	115.073	
33.00	-73.631	137.080	
34.00	-72.684	127.658	
35.00	-68.375	145.111	
36.00	-68.948	131.695	
37.00	-68.764	146.794	
38.00	-67.194	143.442	
39.00	-65.330	162.536	
40.00	-66.111	161.348	
41.00	-64.848	166.251	
42.00	-66.238	162.893	
43.00	-65.192	177.028	
44.00	-64.828	-169.888	
45.00	-65.336	-160.553	
46.00	-65.375	-155.430	
47.00	-64.785	-130.504	
48.00	-64.598	-112.695	
49.00	-65.061	-104.208	
50.00	-66.608	-84.764	
51.00	-66.945	-68.236	
52.00	-66.177	-47.698	
53.00	-66.034	-44.095	
54.00	-65.112	-25.837	
55.00	-68.700	-2.614	
56.00	-67.929	10.369	
57.00	-67.771	10.367	
58.00	-77.371	46.831	
59.00	-70.743	95.620	
60.00	-68.511	99.792	
61.00	-71.953	144.161	
62.00	-65.328	132.761	
63.00	-64.782	176.349	
64.00	-66.758	166.782	
65.00	-65.865	-175.490	
66.00	-67.196	-178.831	
67.00	-66.454	-142.600	
68.00	-68.703	-139.794	
69.00	-70.407	-137.930	
70.00	-71.294	-134.488	
71.00	-73.384	-90.076	
72.00	-66.240	-118.594	
73.00	-70.639	-93.387	
74.00	-73.547	-79.127	
75.00	-72.876	-131.856	
76.00	-71.361	-69.725	
77.00	-71.640	-57.838	
78.00	-69.533	-57.341	
79.00	-70.084	-8.203	
80.00	-74.141	-83.340	
81.00	-72.082	30.512	
82.00	-70.494	11.016	
83.00	-69.800	18.995	
84.00	-75.551	65.818	
85.00	-73.522	89.672	
86.00	-71.650	139.710	
87.00	-71.443	175.830	
88.00	-68.642	159.120	
89.00	-65.338	-157.594	
90.00	-65.254	-138.371	
91.00	-64.612	-114.717	
92.00	-62.196	-100.753	
93.00	-63.367	-74.953	
94.00	-63.449	-62.069	
95.00	-65.450	-36.118	
96.00	-66.405	-18.522	
97.00	-64.078	18.153	
98.00	-65.392	61.457	
99.00	-66.931	81.719	
100.00	-67.644	102.850	
101.00	-64.536	162.758	
102.00	-62.960	-166.028	
103.00	-61.624	-152.879	
104.00	-60.881	-128.015	
105.00	-60.317	-103.449	
106.00	-57.803	-84.859	
107.00	-57.346	-70.131	
108.00	-56.786	-43.784	
109.00	-56.873	-27.249	
110.00	-56.995	-4.742	
111.00	-57.049	16.888	
112.00	-56.738	43.077	
113.00	-56.073	68.274	
114.00	-55.437	96.562	
115.00	-55.246	116.146	
116.00	-54.857	149.324	
117.00	-54.093	168.586	
118.00	-53.598	-165.990	
119.00	-52.366	-146.333	
120.00	-52.214	-122.522	
121.00	-51.270	-96.217	
122.00	-51.016	-69.256	
123.00	-49.985	-54.499	
124.00	-48.926	-22.952	
125.00	-48.211	-3.856	
126.00	-47.488	22.589	
127.00	-46.645	41.604	
128.00	-45.702	60.001	
129.00	-44.728	78.528	
130.00	-43.658	104.452	
131.00	-42.827	121.707	
132.00	-42.015	146.168	
133.00	-41.285	161.671	
134.00	-40.563	-173.084	
135.00	-39.856	-154.821	
136.00	-39.390	-137.980	
137.00	-38.892	-117.681	
138.00	-38.369	-103.083	
139.00	-37.928	-80.023	
140.00	-37.495	-64.393	
141.00	-37.059	-48.111	
142.00	-36.693	-36.712	
143.00	-36.265	-17.719	
144.00	-35.844	-2.524	
145.00	-35.452	16.570	
146.00	-35.036	29.851	
147.00	-34.677	45.653	
148.00	-34.287	60.103	
149.00	-33.902	78.824	
150.00	-33.538	90.254	
151.00	-33.193	106.931	
152.00	-32.882	114.055	
153.00	-32.551	132.269	
154.00	-32.266	143.239	
155.00	-32.004	151.698	
156.00	-31.737	165.447	
157.00	-31.455	175.271	
158.00	-31.186	-170.203	
159.00	-30.918	-160.076	
160.00	-30.722	-147.437	
161.00	-30.509	-136.998	
162.00	-30.259	-122.641	
163.00	-30.068	-111.970	
164.00	-29.875	-101.308	
165.00	-29.691	-93.003	
166.00	-29.494	-80.049	
167.00	-29.360	-72.365	
168.00	-29.210	-60.675	
169.00	-29.084	-54.270	
170.00	-28.963	-45.111	
171.00	-28.871	-35.552	
172.00	-28.753	-30.982	
173.00	-28.684	-23.937	
174.00	-28.589	-14.490	
175.00	-28.524	-8.486	
176.00	-28.464	-3.004	
177.00	-28.428	0.317	
178.00	-28.393	3.089	
179.00	-28.368	16.032	
180.00	-28.367	19.692	
181.00	-28.358	21.756	
182.00	-28.383	26.143	
183.00	-28.377	26.479	
184.00	-28.438	27.362	
185.00	-28.462	35.943	
186.00	-28.513	35.918	
187.00	-28.580	36.408	
188.00	-28.646	36.347	
189.00	-28.712	39.415	
190.00	-28.811	41.665	
191.00	-28.899	48.308	
192.00	-29.045	41.260	
193.00	-29.140	49.975	
194.00	-29.232	42.035	
195.00	-29.359	52.184	
196.00	-29.493	44.288	
197.00	-29.694	49.369	
198.00	-29.880	46.839	
199.00	-30.081	42.510	
200.00	-30.274	39.205	
201.00	-30.516	39.851	
202.00	-30.741	39.276	
203.00	-31.045	37.215	
204.00	-31.298	29.700	
205.00	-31.615	23.766	
206.00	-31.899	25.190	
207.00	-32.231	10.978	
208.00	-32.551	8.276	
209.00	-32.903	-0.512	
210.00	-33.279	-3.071	
211.00	-33.622	-9.371	
212.00	-33.984	-12.020	
213.00	-34.381	-21.182	
214.00	-34.793	-27.017	
215.00	-35.199	-37.414	
216.00	-35.594	-44.137	
217.00	-36.013	-56.020	
218.00	-36.472	-71.609	
219.00	-36.928	-75.382	
220.00	-37.384	-88.605	
221.00	-37.863	-94.546	
222.00	-38.389	-105.965	
223.00	-38.929	-113.929	
224.00	-39.547	-126.110	
225.00	-40.174	-136.466	
226.00	-40.884	-146.682	
227.00	-41.657	-158.266	
228.00	-42.648	-175.519	
229.00	-43.273	172.580	
230.00	-44.122	159.830	
231.00	-44.981	149.854	
232.00	-45.801	131.594	
233.00	-46.413	116.105	
234.00	-46.976	97.121	
235.00	-47.503	93.460	
236.00	-48.001	74.474	
237.00	-48.571	63.083	
238.00	-49.019	49.783	
239.00	-49.674	35.418	
240.00	-50.405	22.359	
241.00	-51.434	12.193	
242.00	-52.594	-5.661	
243.00	-53.493	-15.611	
244.00	-54.873	-29.385	
245.00	-56.404	-45.597	
246.00	-57.263	-56.890	
247.00	-57.835	-80.152	
248.00	-58.153	-100.272	
249.00	-58.547	-105.629	
250.00	-58.986	-119.308	
251.00	-59.503	-119.034	
252.00	-59.736	-142.346	
253.00	-59.801	-132.325	
254.00	-60.322	-152.555	
255.00	-60.607	-155.412	
256.00	-59.632	-169.233	
257.00	-59.802	167.902	
258.00	-59.564	163.632	
259.00	-58.812	142.453	
260.00	-58.561	125.829	
261.00	-57.666	114.355	
262.00	-57.010	94.206	
263.00	-56.748	79.265	
264.00	-56.568	66.047	
265.00	-56.345	38.266	
266.00	-55.870	27.078	
267.00	-55.807	2.779	
268.00	-55.376	-11.663	
269.00	-55.477	-31.682	
270.00	-55.552	-50.388	
271.00	-55.484	-72.054	
272.00	-55.730	-93.060	
273.00	-55.952	-111.391	
274.00	-55.722	-140.391	
275.00	-55.605	-161.470	
276.00	-55.188	-177.083	
277.00	-54.728	158.847	
278.00	-54.442	143.601	
279.00	-54.402	125.416	
280.00	-54.351	104.855	
281.00	-54.479	82.819	
282.00	-54.873	47.568	
283.00	-54.973	21.916	
284.00	-55.125	-0.472	
285.00	-55.444	-29.455	
286.00	-55.502	-43.408	
287.00	-56.076	-70.971	
288.00	-55.922	-89.018	
289.00	-56.612	-115.529	
290.00	-56.848	-139.534	
291.00	-56.991	-165.480	
292.00	-56.123	169.859	
293.00	-55.857	145.200	
294.00	-55.353	133.099	
295.00	-55.148	108.808	
296.00	-55.371	93.341	
297.00	-55.780	76.276	
298.00	-57.060	55.734	
299.00	-57.942	33.154	
300.00	-57.949	4.103	
301.00	-57.963	-27.349	
302.00	-57.461	-48.637	
303.00	-56.233	-71.683	
304.00	-55.773	-85.634	
305.00	-54.468	-111.091	
306.00	-54.066	-126.175	
307.00	-53.488	-138.526	
308.00	-53.432	-149.675	
309.00	-54.483	-166.206	
310.00	-54.627	-178.477	
311.00	-55.295	163.639	
312.00	-56.134	153.380	
313.00	-57.638	130.467	
314.00	-58.720	115.524	
315.00	-58.700	71.692	
316.00	-59.299	52.898	
317.00	-57.852	26.431	
318.00	-57.302	10.644	
319.00	-57.577	-4.247	
320.00	-57.332	-17.391	
321.00	-56.963	-30.719	
322.00	-58.073	-41.458	
323.00	-58.329	-55.634	
324.00	-59.380	-70.755	
325.00	-60.665	-81.910	
326.00	-61.625	-105.271	
327.00	-62.440	-127.292	
328.00	-64.011	-153.260	
329.00	-63.566	-167.704	
330.00	-62.065	171.527	
331.00	-62.478	161.338	
332.00	-62.307	151.688	
333.00	-63.069	140.496	
334.00	-64.690	129.435	
335.00	-66.106	119.407	
336.00	-67.042	91.809	
337.00	-68.181	83.196	
338.00	-68.531	49.628	
339.00	-66.621	33.429	
340.00	-66.722	10.303	
341.00	-64.200	-5.676	
342.00	-63.506	-29.824	
343.00	-61.722	-38.120	
344.00	-61.404	-43.903	
345.00	-60.649	-52.529	
346.00	-59.633	-63.063	
347.00	-58.692	-69.848	
348.00	-58.178	-75.122	
349.00	-58.136	-79.996	
350.00	-58.251	-84.011	
351.00	-58.440	-88.813	
352.00	-58.589	-93.625	
353.00	-58.650	-95.966	
354.00	-59.292	-94.307	
355.00	-59.559	-98.684	
356.00	-60.272	-102.575	
357.00	-60.796	-104.566	
358.00	-61.357	-108.304	
359.00	-62.014	-114.691	
Frequency	2450.00	MHz	
Channel	test		
Scan Axis name	Azimuth  [deg]		
Scan Axis	Amplitude	Phase	
			
0.00	-64.182	68.257	
1.00	-64.812	76.818	
2.00	-66.369	68.714	
3.00	-63.581	73.999	
4.00	-63.626	66.568	
5.00	-65.695	70.477	
6.00	-66.459	67.035	
7.00	-65.413	72.559	
8.00	-64.992	64.774	
9.00	-66.779	45.996	
10.00	-66.753	54.385	
11.00	-67.017	41.672	
12.00	-71.921	37.440	
13.00	-69.226	63.807	
14.00	-74.947	31.836	
15.00	-77.350	47.023	
16.00	-82.114	119.425	
17.00	-78.542	-33.918	
18.00	-81.304	-76.267	
19.00	-74.583	-76.829	
20.00	-76.872	-85.215	
21.00	-79.987	-66.150	
22.00	-71.945	-80.688	
23.00	-69.874	-67.997	
24.00	-70.487	-52.393	
25.00	-76.657	-18.843	
26.00	-79.228	-4.963	
27.00	-89.047	-66.934	
28.00	-75.420	134.674	
29.00	-72.826	-168.991	
30.00	-80.844	48.652	
31.00	-69.843	-166.578	
32.00	-70.789	154.368	
33.00	-69.251	-139.645	
34.00	-71.241	-167.575	
35.00	-65.229	-159.411	
36.00	-64.124	-144.359	
37.00	-64.876	-121.567	
38.00	-65.571	-140.514	
39.00	-66.741	-110.567	
40.00	-73.455	-115.357	
41.00	-66.364	-50.869	
42.00	-65.980	-102.217	
43.00	-64.365	-58.282	
44.00	-62.730	-41.859	
45.00	-64.506	-39.444	
46.00	-64.614	-7.969	
47.00	-70.406	1.401	
48.00	-65.082	18.897	
49.00	-67.050	27.088	
50.00	-69.113	18.671	
51.00	-81.978	100.924	
52.00	-72.169	93.586	
53.00	-69.580	-173.209	
54.00	-72.099	-138.551	
55.00	-60.631	-137.819	
56.00	-62.107	-134.943	
57.00	-59.267	-105.177	
58.00	-57.921	-106.381	
59.00	-56.665	-83.898	
60.00	-56.989	-80.916	
61.00	-54.506	-69.153	
62.00	-60.448	-60.980	
63.00	-55.895	-38.484	
64.00	-57.519	-27.972	
65.00	-59.359	-26.120	
66.00	-60.025	-2.422	
67.00	-67.938	56.106	
68.00	-62.302	85.932	
69.00	-68.082	83.021	
70.00	-64.817	134.348	
71.00	-63.634	166.641	
72.00	-63.151	163.649	
73.00	-59.889	-166.739	
74.00	-59.761	-145.496	
75.00	-62.188	-113.304	
76.00	-58.394	-107.475	
77.00	-56.931	-94.307	
78.00	-60.115	-77.328	
79.00	-58.557	-53.337	
80.00	-56.483	-36.129	
81.00	-57.157	-2.064	
82.00	-56.861	3.137	
83.00	-55.375	27.519	
84.00	-58.591	40.861	
85.00	-56.502	79.684	
86.00	-55.871	104.296	
87.00	-56.727	105.020	
88.00	-56.473	147.758	
89.00	-58.419	-177.597	
90.00	-61.122	142.912	
91.00	-57.440	-143.760	
92.00	-70.567	-153.712	
93.00	-63.669	-110.007	
94.00	-65.350	-68.563	
95.00	-60.930	-57.905	
96.00	-69.472	40.884	
97.00	-62.625	30.339	
98.00	-81.032	72.182	
99.00	-63.000	89.619	
100.00	-66.049	-159.442	
101.00	-61.199	-152.492	
102.00	-62.146	-130.296	
103.00	-61.907	-107.485	
104.00	-60.125	-108.812	
105.00	-58.362	-70.181	
106.00	-59.438	-54.558	
107.00	-56.208	-21.000	
108.00	-55.528	-2.295	
109.00	-57.918	20.046	
110.00	-53.646	47.534	
111.00	-53.958	63.356	
112.00	-53.926	87.640	
113.00	-53.860	109.441	
114.00	-54.046	135.706	
115.00	-54.062	156.702	
116.00	-55.101	-175.207	
117.00	-53.382	-157.012	
118.00	-52.581	-122.972	
119.00	-52.231	-100.976	
120.00	-51.446	-79.211	
121.00	-50.778	-50.674	
122.00	-50.857	-21.304	
123.00	-50.432	-6.483	
124.00	-49.814	23.061	
125.00	-48.829	42.955	
126.00	-47.935	72.613	
127.00	-47.337	90.773	
128.00	-46.449	113.064	
129.00	-45.691	134.745	
130.00	-44.916	162.160	
131.00	-43.920	-179.923	
132.00	-43.062	-152.037	
133.00	-42.395	-134.211	
134.00	-41.463	-107.966	
135.00	-40.710	-87.417	
136.00	-40.027	-69.251	
137.00	-39.265	-47.911	
138.00	-38.658	-33.297	
139.00	-38.050	-10.377	
140.00	-37.546	5.454	
141.00	-37.158	22.570	
142.00	-36.663	33.353	
143.00	-36.229	52.311	
144.00	-35.682	68.146	
145.00	-35.261	87.663	
146.00	-34.870	101.655	
147.00	-34.502	117.084	
148.00	-34.029	131.446	
149.00	-33.714	151.058	
150.00	-33.323	162.685	
151.00	-32.954	179.815	
152.00	-32.605	-173.526	
153.00	-32.295	-154.786	
154.00	-31.975	-143.370	
155.00	-31.756	-135.033	
156.00	-31.429	-120.538	
157.00	-31.185	-110.650	
158.00	-30.932	-96.296	
159.00	-30.691	-85.220	
160.00	-30.521	-72.351	
161.00	-30.275	-61.685	
162.00	-30.090	-46.664	
163.00	-29.911	-35.867	
164.00	-29.698	-23.971	
165.00	-29.483	-15.536	
166.00	-29.289	-2.472	
167.00	-29.133	5.922	
168.00	-28.943	18.044	
169.00	-28.803	24.793	
170.00	-28.609	34.410	
171.00	-28.503	44.297	
172.00	-28.400	48.785	
173.00	-28.239	55.550	
174.00	-28.170	65.378	
175.00	-28.105	71.633	
176.00	-28.007	76.665	
177.00	-27.941	80.263	
178.00	-27.909	82.985	
179.00	-27.814	95.997	
180.00	-27.833	100.113	
181.00	-27.811	101.884	
182.00	-27.852	106.537	
183.00	-27.834	106.692	
184.00	-27.872	108.057	
185.00	-27.890	116.398	
186.00	-27.946	116.525	
187.00	-28.039	116.994	
188.00	-28.092	117.087	
189.00	-28.197	120.679	
190.00	-28.264	122.810	
191.00	-28.398	130.062	
192.00	-28.545	121.948	
193.00	-28.621	131.691	
194.00	-28.780	123.263	
195.00	-28.880	133.866	
196.00	-29.061	125.908	
197.00	-29.230	130.814	
198.00	-29.409	128.619	
199.00	-29.616	124.207	
200.00	-29.758	120.749	
201.00	-29.999	121.568	
202.00	-30.229	120.806	
203.00	-30.444	118.219	
204.00	-30.659	111.547	
205.00	-30.990	105.132	
206.00	-31.230	106.916	
207.00	-31.588	92.532	
208.00	-31.878	90.785	
209.00	-32.272	81.662	
210.00	-32.638	79.267	
211.00	-32.988	72.788	
212.00	-33.389	70.968	
213.00	-33.764	61.813	
214.00	-34.151	55.197	
215.00	-34.567	44.826	
216.00	-35.043	37.923	
217.00	-35.437	26.806	
218.00	-35.801	9.991	
219.00	-36.319	6.617	
220.00	-36.932	-7.196	
221.00	-37.461	-13.962	
222.00	-37.996	-25.193	
223.00	-38.569	-34.129	
224.00	-39.259	-47.287	
225.00	-39.796	-57.274	
226.00	-40.413	-69.503	
227.00	-41.169	-81.340	
228.00	-41.731	-102.115	
229.00	-42.275	-112.128	
230.00	-42.973	-124.832	
231.00	-43.348	-133.149	
232.00	-44.095	-146.945	
233.00	-44.690	-161.614	
234.00	-45.355	-177.423	
235.00	-46.150	-178.638	
236.00	-46.956	164.406	
237.00	-47.637	154.362	
238.00	-48.416	138.841	
239.00	-49.272	128.347	
240.00	-49.798	113.457	
241.00	-51.320	103.212	
242.00	-51.752	95.723	
243.00	-52.820	83.393	
244.00	-54.989	74.454	
245.00	-55.154	66.346	
246.00	-56.308	64.477	
247.00	-56.516	49.574	
248.00	-57.446	35.569	
249.00	-56.676	27.242	
250.00	-58.210	18.460	
251.00	-58.069	21.950	
252.00	-57.524	-9.812	
253.00	-57.085	-3.895	
254.00	-56.679	-29.171	
255.00	-56.410	-40.488	
256.00	-55.407	-53.413	
257.00	-56.239	-78.793	
258.00	-55.240	-82.409	
259.00	-55.312	-109.067	
260.00	-55.248	-127.968	
261.00	-55.451	-142.641	
262.00	-54.947	-164.076	
263.00	-55.201	171.832	
264.00	-54.645	156.515	
265.00	-53.511	123.078	
266.00	-53.703	107.510	
267.00	-52.963	82.650	
268.00	-52.895	67.003	
269.00	-52.314	46.822	
270.00	-52.073	30.071	
271.00	-52.146	10.194	
272.00	-51.855	-3.623	
273.00	-52.848	-19.915	
274.00	-53.016	-44.252	
275.00	-53.996	-60.411	
276.00	-54.647	-73.279	
277.00	-54.956	-102.766	
278.00	-56.440	-122.944	
279.00	-56.694	-151.965	
280.00	-57.408	174.508	
281.00	-56.018	148.139	
282.00	-55.136	110.743	
283.00	-54.845	89.498	
284.00	-55.404	69.297	
285.00	-56.398	45.367	
286.00	-56.629	28.791	
287.00	-57.932	-4.818	
288.00	-59.117	-28.903	
289.00	-58.745	-68.933	
290.00	-58.295	-89.063	
291.00	-57.248	-114.145	
292.00	-56.115	-134.784	
293.00	-56.487	-156.059	
294.00	-56.889	-167.327	
295.00	-57.826	166.102	
296.00	-57.858	141.431	
297.00	-59.560	110.667	
298.00	-58.541	76.077	
299.00	-56.886	54.086	
300.00	-55.274	29.337	
301.00	-54.550	11.406	
302.00	-54.155	-0.603	
303.00	-53.848	-19.313	
304.00	-54.072	-28.234	
305.00	-54.218	-50.788	
306.00	-55.189	-68.390	
307.00	-55.127	-87.201	
308.00	-54.482	-114.226	
309.00	-54.585	-134.505	
310.00	-54.243	-145.600	
311.00	-54.510	-163.997	
312.00	-54.969	-178.611	
313.00	-54.918	166.200	
314.00	-55.007	153.720	
315.00	-56.491	132.591	
316.00	-57.564	114.145	
317.00	-58.209	93.743	
318.00	-58.569	77.824	
319.00	-58.956	57.556	
320.00	-61.331	39.344	
321.00	-59.572	7.105	
322.00	-59.036	-14.087	
323.00	-60.523	-32.232	
324.00	-60.011	-48.571	
325.00	-60.402	-61.113	
326.00	-60.007	-81.793	
327.00	-60.206	-88.933	
328.00	-59.863	-104.755	
329.00	-62.484	-120.985	
330.00	-60.236	-126.450	
331.00	-62.324	-139.576	
332.00	-62.501	-141.661	
333.00	-62.198	-154.914	
334.00	-67.561	-152.875	
335.00	-69.991	-149.987	
336.00	-71.819	-106.058	
337.00	-81.304	-86.605	
338.00	-70.618	-66.527	
339.00	-72.866	-57.815	
340.00	-67.301	-33.217	
341.00	-65.694	-36.515	
342.00	-63.976	-43.977	
343.00	-63.851	-43.207	
344.00	-64.383	-49.089	
345.00	-65.564	-47.019	
346.00	-64.817	-42.718	
347.00	-66.620	-58.586	
348.00	-66.203	-47.506	
349.00	-70.626	-27.141	
350.00	-74.442	2.400	
351.00	-72.263	-3.074	
352.00	-79.196	14.929	
353.00	-72.903	77.632	
354.00	-69.787	71.602	
355.00	-68.047	65.375	
356.00	-70.028	67.177	
357.00	-66.086	50.112	
358.00	-65.351	57.688	
359.00	-66.707	73.323	
Frequency	2496.00	MHz	
Channel	test		
Scan Axis name	Azimuth  [deg]		
Scan Axis	Amplitude	Phase	
			
0.00	-61.570	-170.007	
1.00	-61.564	-165.101	
2.00	-63.578	-167.924	
3.00	-64.377	-163.868	
4.00	-66.563	-154.497	
5.00	-67.850	-153.789	
6.00	-68.374	-149.868	
7.00	-68.221	-134.250	
8.00	-70.494	-138.573	
9.00	-73.307	-123.548	
10.00	-72.384	-100.002	
11.00	-76.185	-82.508	
12.00	-73.483	-73.534	
13.00	-75.374	-47.219	
14.00	-69.963	-39.904	
15.00	-70.182	-22.604	
16.00	-69.744	-17.721	
17.00	-70.079	-6.586	
18.00	-69.428	-0.480	
19.00	-67.474	20.215	
20.00	-66.552	16.545	
21.00	-66.807	23.089	
22.00	-66.261	26.757	
23.00	-65.949	46.313	
24.00	-65.238	52.291	
25.00	-64.953	60.793	
26.00	-65.177	79.381	
27.00	-63.939	83.536	
28.00	-63.002	92.790	
29.00	-62.399	107.417	
30.00	-61.917	100.353	
31.00	-61.260	108.651	
32.00	-62.772	110.850	
33.00	-62.531	124.049	
34.00	-62.192	124.062	
35.00	-63.611	132.584	
36.00	-64.590	131.912	
37.00	-64.628	148.059	
38.00	-67.626	158.201	
39.00	-68.065	170.974	
40.00	-70.425	175.374	
41.00	-73.560	177.074	
42.00	-74.477	176.512	
43.00	-78.836	157.338	
44.00	-80.958	79.542	
45.00	-83.624	4.540	
46.00	-80.597	76.223	
47.00	-75.885	78.894	
48.00	-75.324	90.608	
49.00	-66.133	155.070	
50.00	-73.445	152.268	
51.00	-75.364	124.772	
52.00	-70.769	159.485	
53.00	-73.040	-139.205	
54.00	-72.499	-145.198	
55.00	-73.304	-111.322	
56.00	-70.971	-82.393	
57.00	-66.793	-58.511	
58.00	-67.626	-39.282	
59.00	-65.416	-17.215	
60.00	-67.004	3.601	
61.00	-65.859	6.804	
62.00	-63.735	40.025	
63.00	-62.193	57.606	
64.00	-62.206	74.546	
65.00	-60.364	88.436	
66.00	-61.228	100.159	
67.00	-59.644	126.136	
68.00	-60.542	137.605	
69.00	-60.972	162.963	
70.00	-59.395	174.686	
71.00	-60.026	-156.767	
72.00	-60.806	-145.006	
73.00	-60.760	-120.609	
74.00	-62.721	-93.548	
75.00	-63.946	-60.518	
76.00	-63.211	-40.045	
77.00	-62.040	-12.424	
78.00	-61.201	19.004	
79.00	-59.502	43.292	
80.00	-59.064	66.982	
81.00	-56.972	91.345	
82.00	-56.310	101.246	
83.00	-55.419	121.282	
84.00	-55.786	135.339	
85.00	-55.441	159.447	
86.00	-55.467	-178.476	
87.00	-56.039	-158.224	
88.00	-55.430	-141.759	
89.00	-55.924	-117.916	
90.00	-56.414	-90.976	
91.00	-56.005	-79.607	
92.00	-56.365	-46.457	
93.00	-56.141	-26.422	
94.00	-55.998	8.716	
95.00	-55.322	36.437	
96.00	-56.305	51.769	
97.00	-55.368	82.388	
98.00	-55.246	106.342	
99.00	-56.859	142.508	
100.00	-57.187	144.928	
101.00	-57.539	-173.162	
102.00	-58.018	-148.028	
103.00	-58.903	-126.946	
104.00	-57.885	-104.271	
105.00	-59.096	-70.699	
106.00	-57.619	-37.351	
107.00	-58.643	-5.081	
108.00	-58.263	11.925	
109.00	-58.028	41.885	
110.00	-58.480	69.344	
111.00	-57.079	104.662	
112.00	-58.114	128.596	
113.00	-57.377	156.728	
114.00	-57.397	178.400	
115.00	-57.781	-149.848	
116.00	-56.545	-123.252	
117.00	-55.993	-94.898	
118.00	-55.693	-69.412	
119.00	-54.743	-44.019	
120.00	-54.121	-17.294	
121.00	-54.040	11.838	
122.00	-52.707	37.339	
123.00	-52.137	55.805	
124.00	-51.384	92.118	
125.00	-50.483	115.916	
126.00	-49.253	145.123	
127.00	-48.393	163.592	
128.00	-47.294	-175.969	
129.00	-46.129	-155.934	
130.00	-45.228	-128.858	
131.00	-44.283	-108.991	
132.00	-43.358	-83.353	
133.00	-42.503	-65.786	
134.00	-41.729	-40.434	
135.00	-40.929	-19.271	
136.00	-40.182	-1.456	
137.00	-39.426	20.222	
138.00	-38.943	36.254	
139.00	-38.301	59.264	
140.00	-37.681	75.771	
141.00	-37.195	92.366	
142.00	-36.569	103.846	
143.00	-36.175	123.178	
144.00	-35.631	138.645	
145.00	-35.201	157.906	
146.00	-34.767	171.430	
147.00	-34.410	-172.847	
148.00	-34.073	-158.436	
149.00	-33.729	-138.326	
150.00	-33.400	-126.667	
151.00	-33.043	-109.217	
152.00	-32.726	-101.737	
153.00	-32.400	-83.063	
154.00	-32.089	-71.051	
155.00	-31.800	-62.425	
156.00	-31.542	-48.149	
157.00	-31.291	-37.685	
158.00	-30.951	-22.603	
159.00	-30.801	-11.619	
160.00	-30.537	1.699	
161.00	-30.337	12.449	
162.00	-30.070	27.684	
163.00	-29.861	38.435	
164.00	-29.719	50.260	
165.00	-29.534	58.735	
166.00	-29.353	72.235	
167.00	-29.188	80.840	
168.00	-29.062	92.510	
169.00	-28.943	99.483	
170.00	-28.823	109.019	
171.00	-28.708	119.167	
172.00	-28.611	123.809	
173.00	-28.528	130.912	
174.00	-28.425	140.820	
175.00	-28.382	147.255	
176.00	-28.318	152.689	
177.00	-28.283	156.277	
178.00	-28.248	159.299	
179.00	-28.212	172.226	
180.00	-28.202	176.812	
181.00	-28.181	178.534	
182.00	-28.183	-176.937	
183.00	-28.194	-176.739	
184.00	-28.215	-175.225	
185.00	-28.228	-166.669	
186.00	-28.280	-166.515	
187.00	-28.321	-166.511	
188.00	-28.388	-166.328	
189.00	-28.466	-162.768	
190.00	-28.533	-160.622	
191.00	-28.627	-152.927	
192.00	-28.795	-161.910	
193.00	-28.858	-151.147	
194.00	-29.018	-159.967	
195.00	-29.137	-149.152	
196.00	-29.300	-157.711	
197.00	-29.473	-152.386	
198.00	-29.645	-154.925	
199.00	-29.858	-158.773	
200.00	-30.062	-162.299	
201.00	-30.264	-161.850	
202.00	-30.530	-162.379	
203.00	-30.774	-164.546	
204.00	-31.061	-171.255	
205.00	-31.355	-178.408	
206.00	-31.599	-176.050	
207.00	-31.950	168.940	
208.00	-32.256	167.167	
209.00	-32.619	158.322	
210.00	-32.959	155.880	
211.00	-33.399	149.898	
212.00	-33.825	147.737	
213.00	-34.273	138.533	
214.00	-34.768	132.727	
215.00	-35.234	122.411	
216.00	-35.774	114.956	
217.00	-36.296	103.901	
218.00	-36.867	86.394	
219.00	-37.414	82.669	
220.00	-37.997	68.788	
221.00	-38.564	61.419	
222.00	-39.115	50.137	
223.00	-39.731	41.120	
224.00	-40.380	27.362	
225.00	-41.098	16.065	
226.00	-41.723	5.382	
227.00	-42.576	-7.134	
228.00	-43.306	-26.356	
229.00	-44.043	-37.571	
230.00	-44.917	-50.114	
231.00	-45.623	-59.675	
232.00	-46.380	-76.196	
233.00	-47.327	-90.626	
234.00	-47.960	-106.895	
235.00	-48.925	-110.350	
236.00	-49.646	-128.703	
237.00	-50.740	-139.248	
238.00	-51.639	-152.972	
239.00	-52.660	-166.872	
240.00	-53.768	-178.297	
241.00	-55.205	172.832	
242.00	-56.547	158.875	
243.00	-57.752	158.065	
244.00	-59.678	149.149	
245.00	-60.996	149.743	
246.00	-61.669	153.015	
247.00	-61.377	145.976	
248.00	-61.198	136.248	
249.00	-60.114	136.121	
250.00	-59.464	120.469	
251.00	-57.833	119.614	
252.00	-56.951	90.736	
253.00	-56.076	90.930	
254.00	-55.808	69.298	
255.00	-55.494	53.824	
256.00	-55.347	43.161	
257.00	-55.350	14.097	
258.00	-55.470	2.064	
259.00	-55.483	-26.659	
260.00	-55.549	-50.584	
261.00	-55.449	-68.786	
262.00	-55.035	-93.257	
263.00	-54.351	-115.239	
264.00	-53.843	-132.318	
265.00	-53.358	-163.934	
266.00	-53.127	-174.698	
267.00	-52.891	161.599	
268.00	-52.922	143.785	
269.00	-53.056	122.031	
270.00	-53.565	103.999	
271.00	-54.089	76.842	
272.00	-53.936	58.342	
273.00	-54.334	38.724	
274.00	-54.508	8.572	
275.00	-54.523	-10.460	
276.00	-54.992	-27.983	
277.00	-55.295	-55.403	
278.00	-55.844	-78.403	
279.00	-55.587	-101.656	
280.00	-55.571	-133.954	
281.00	-55.196	-160.098	
282.00	-54.524	160.627	
283.00	-53.989	135.283	
284.00	-53.406	115.298	
285.00	-53.674	87.517	
286.00	-54.119	74.651	
287.00	-54.951	48.448	
288.00	-55.292	27.437	
289.00	-55.314	0.733	
290.00	-55.622	-26.449	
291.00	-54.964	-49.394	
292.00	-54.864	-75.347	
293.00	-54.242	-97.061	
294.00	-53.765	-110.219	
295.00	-54.058	-132.645	
296.00	-54.373	-144.347	
297.00	-55.193	-164.500	
298.00	-56.015	172.867	
299.00	-57.245	150.345	
300.00	-56.858	127.345	
301.00	-57.293	99.932	
302.00	-56.899	84.644	
303.00	-57.697	57.072	
304.00	-57.272	48.362	
305.00	-57.769	22.577	
306.00	-59.005	-0.661	
307.00	-59.134	-23.820	
308.00	-60.990	-55.233	
309.00	-60.008	-77.640	
310.00	-59.305	-95.161	
311.00	-58.414	-111.756	
312.00	-58.377	-126.116	
313.00	-58.528	-141.956	
314.00	-58.655	-146.226	
315.00	-60.199	-161.411	
316.00	-60.650	-171.730	
317.00	-63.908	179.170	
318.00	-67.209	-171.753	
319.00	-78.066	152.478	
320.00	-95.133	139.754	
321.00	-72.769	-18.195	
322.00	-69.794	-30.672	
323.00	-67.668	-38.417	
324.00	-65.605	-60.132	
325.00	-64.611	-63.704	
326.00	-66.193	-68.065	
327.00	-63.927	-74.257	
328.00	-65.659	-68.811	
329.00	-64.423	-75.743	
330.00	-67.487	-75.459	
331.00	-67.917	-73.944	
332.00	-69.831	-62.358	
333.00	-71.856	-51.817	
334.00	-71.286	-31.373	
335.00	-69.135	-3.174	
336.00	-68.246	-0.040	
337.00	-66.425	-10.870	
338.00	-65.958	-22.151	
339.00	-67.360	-21.949	
340.00	-66.047	-32.443	
341.00	-66.930	-34.980	
342.00	-66.754	-47.868	
343.00	-67.546	-65.744	
344.00	-66.967	-64.595	
345.00	-66.873	-92.159	
346.00	-67.130	-99.890	
347.00	-65.948	-118.877	
348.00	-65.757	-135.986	
349.00	-64.706	-138.225	
350.00	-64.012	-150.781	
351.00	-62.163	-161.395	
352.00	-62.555	-169.701	
353.00	-61.409	-168.000	
354.00	-60.547	-172.016	
355.00	-61.024	-172.079	
356.00	-59.829	178.205	
357.00	-59.829	-178.905	
358.00	-60.765	-179.060	
359.00	-60.646	-173.215	
Frequency	2550.00	MHz	
Channel	test		
Scan Axis name	Azimuth  [deg]		
Scan Axis	Amplitude	Phase	
			
0.00	-80.753	-41.983	
1.00	-83.728	-78.424	
2.00	-78.576	39.658	
3.00	-75.952	73.684	
4.00	-71.719	72.981	
5.00	-70.868	70.392	
6.00	-67.833	71.042	
7.00	-67.635	83.840	
8.00	-67.988	82.811	
9.00	-68.458	100.595	
10.00	-66.346	84.047	
11.00	-66.253	95.671	
12.00	-66.066	99.460	
13.00	-66.756	109.692	
14.00	-68.034	85.841	
15.00	-67.296	100.118	
16.00	-69.133	77.353	
17.00	-70.594	118.030	
18.00	-74.541	118.694	
19.00	-74.763	115.548	
20.00	-77.629	140.183	
21.00	-75.879	-161.433	
22.00	-79.241	-165.150	
23.00	-76.079	-142.328	
24.00	-83.918	-40.526	
25.00	-73.122	-108.319	
26.00	-74.827	-78.405	
27.00	-72.264	-97.421	
28.00	-73.322	-61.144	
29.00	-73.008	-75.543	
30.00	-70.550	-51.584	
31.00	-70.338	-30.550	
32.00	-70.473	-28.289	
33.00	-70.669	-54.501	
34.00	-71.104	-27.310	
35.00	-72.689	-30.230	
36.00	-76.716	13.037	
37.00	-74.425	-27.074	
38.00	-72.538	2.880	
39.00	-72.371	-3.361	
40.00	-71.355	21.523	
41.00	-73.259	31.636	
42.00	-74.657	56.746	
43.00	-76.798	38.419	
44.00	-88.886	93.981	
45.00	-75.219	93.222	
46.00	-74.907	138.394	
47.00	-73.847	136.952	
48.00	-69.892	-175.976	
49.00	-63.249	-175.149	
50.00	-68.573	-167.850	
51.00	-65.794	-176.724	
52.00	-65.568	-152.809	
53.00	-65.558	-138.102	
54.00	-64.333	-122.157	
55.00	-63.606	-117.375	
56.00	-64.558	-102.183	
57.00	-62.519	-98.064	
58.00	-64.067	-72.818	
59.00	-63.026	-50.184	
60.00	-66.948	-45.403	
61.00	-66.104	-13.841	
62.00	-66.378	12.191	
63.00	-65.579	35.764	
64.00	-63.704	33.321	
65.00	-69.267	78.165	
66.00	-70.650	112.232	
67.00	-66.998	157.952	
68.00	-65.639	-154.005	
69.00	-63.252	-153.249	
70.00	-60.553	-135.736	
71.00	-59.848	-113.207	
72.00	-57.717	-99.400	
73.00	-57.793	-82.509	
74.00	-57.714	-74.180	
75.00	-58.005	-42.650	
76.00	-58.619	-25.239	
77.00	-60.124	-7.941	
78.00	-58.579	26.469	
79.00	-59.945	53.214	
80.00	-59.381	69.152	
81.00	-58.527	103.422	
82.00	-58.596	113.941	
83.00	-57.446	142.365	
84.00	-56.563	160.693	
85.00	-56.998	-178.037	
86.00	-57.197	-151.187	
87.00	-56.526	-125.572	
88.00	-56.215	-124.908	
89.00	-57.056	-83.337	
90.00	-56.106	-62.089	
91.00	-57.667	-28.954	
92.00	-57.899	-2.613	
93.00	-57.139	21.136	
94.00	-56.384	49.283	
95.00	-56.414	85.507	
96.00	-56.089	110.678	
97.00	-56.751	137.217	
98.00	-55.123	167.532	
99.00	-54.826	-157.411	
100.00	-54.077	-146.273	
101.00	-55.386	-123.854	
102.00	-55.499	-99.242	
103.00	-55.259	-66.324	
104.00	-54.976	-50.991	
105.00	-54.620	-34.488	
106.00	-54.854	-1.972	
107.00	-55.042	21.950	
108.00	-54.438	46.535	
109.00	-54.316	61.366	
110.00	-55.133	86.257	
111.00	-54.837	110.576	
112.00	-54.874	130.694	
113.00	-55.837	153.692	
114.00	-56.755	-178.538	
115.00	-58.717	-155.948	
116.00	-58.307	-127.639	
117.00	-60.384	-88.643	
118.00	-59.405	-47.077	
119.00	-60.172	-17.700	
120.00	-59.951	16.922	
121.00	-57.962	48.021	
122.00	-58.968	78.280	
123.00	-56.612	103.764	
124.00	-55.454	140.975	
125.00	-54.993	178.703	
126.00	-53.358	-158.677	
127.00	-52.255	-139.974	
128.00	-51.234	-117.750	
129.00	-49.910	-97.098	
130.00	-48.408	-67.145	
131.00	-47.298	-46.303	
132.00	-46.121	-19.316	
133.00	-45.065	-1.772	
134.00	-43.988	23.984	
135.00	-43.165	46.282	
136.00	-42.333	62.218	
137.00	-41.507	84.895	
138.00	-40.856	100.079	
139.00	-40.201	123.630	
140.00	-39.625	140.792	
141.00	-39.014	158.065	
142.00	-38.442	169.092	
143.00	-37.927	-170.566	
144.00	-37.411	-154.679	
145.00	-36.930	-134.661	
146.00	-36.459	-120.647	
147.00	-35.947	-104.916	
148.00	-35.553	-90.246	
149.00	-35.195	-69.242	
150.00	-34.769	-58.274	
151.00	-34.418	-40.221	
152.00	-34.042	-33.227	
153.00	-33.702	-14.434	
154.00	-33.393	-2.176	
155.00	-33.115	6.548	
156.00	-32.792	21.051	
157.00	-32.503	31.497	
158.00	-32.232	46.610	
159.00	-32.041	58.212	
160.00	-31.809	71.782	
161.00	-31.513	83.147	
162.00	-31.329	98.394	
163.00	-31.116	108.800	
164.00	-30.933	121.513	
165.00	-30.746	130.014	
166.00	-30.481	143.662	
167.00	-30.305	152.614	
168.00	-30.169	164.644	
169.00	-30.006	171.815	
170.00	-29.847	-178.513	
171.00	-29.722	-168.291	
172.00	-29.620	-163.322	
173.00	-29.508	-156.433	
174.00	-29.416	-146.396	
175.00	-29.350	-139.608	
176.00	-29.306	-134.265	
177.00	-29.256	-130.734	
178.00	-29.238	-127.509	
179.00	-29.208	-114.590	
180.00	-29.196	-109.423	
181.00	-29.203	-107.663	
182.00	-29.240	-102.952	
183.00	-29.278	-102.897	
184.00	-29.314	-101.307	
185.00	-29.329	-92.406	
186.00	-29.398	-92.100	
187.00	-29.462	-92.242	
188.00	-29.556	-91.780	
189.00	-29.673	-87.903	
190.00	-29.751	-86.024	
191.00	-29.837	-77.765	
192.00	-30.015	-87.874	
193.00	-30.124	-76.216	
194.00	-30.264	-85.800	
195.00	-30.400	-74.524	
196.00	-30.560	-83.636	
197.00	-30.744	-78.381	
198.00	-30.891	-80.945	
199.00	-31.100	-85.272	
200.00	-31.359	-88.933	
201.00	-31.567	-89.023	
202.00	-31.800	-89.617	
203.00	-32.065	-92.113	
204.00	-32.360	-98.351	
205.00	-32.683	-106.669	
206.00	-32.937	-104.119	
207.00	-33.313	-119.585	
208.00	-33.663	-121.387	
209.00	-34.031	-130.395	
210.00	-34.451	-133.427	
211.00	-34.809	-139.513	
212.00	-35.323	-141.947	
213.00	-35.799	-150.647	
214.00	-36.302	-157.272	
215.00	-36.781	-167.565	
216.00	-37.295	-175.670	
217.00	-37.900	174.142	
218.00	-38.484	156.028	
219.00	-39.110	153.174	
220.00	-39.729	139.343	
221.00	-40.418	131.903	
222.00	-41.125	120.260	
223.00	-41.853	110.650	
224.00	-42.570	96.411	
225.00	-43.248	85.353	
226.00	-43.985	73.720	
227.00	-44.851	60.440	
228.00	-45.772	41.111	
229.00	-46.454	30.209	
230.00	-47.246	18.464	
231.00	-48.042	8.558	
232.00	-48.974	-8.980	
233.00	-49.892	-22.995	
234.00	-51.149	-39.230	
235.00	-51.591	-39.817	
236.00	-52.753	-59.678	
237.00	-54.143	-66.133	
238.00	-54.728	-78.738	
239.00	-56.207	-92.384	
240.00	-56.426	-97.663	
241.00	-58.904	-97.401	
242.00	-59.409	-102.939	
243.00	-60.488	-92.703	
244.00	-60.637	-90.507	
245.00	-60.599	-90.135	
246.00	-59.268	-87.827	
247.00	-59.526	-102.523	
248.00	-59.152	-118.739	
249.00	-58.642	-125.736	
250.00	-58.737	-150.006	
251.00	-58.087	-156.602	
252.00	-57.897	162.129	
253.00	-57.750	157.051	
254.00	-56.659	126.384	
255.00	-55.600	106.767	
256.00	-54.641	91.887	
257.00	-54.135	63.561	
258.00	-53.488	52.801	
259.00	-53.102	27.714	
260.00	-52.968	3.690	
261.00	-53.099	-10.875	
262.00	-52.524	-33.436	
263.00	-52.647	-49.439	
264.00	-52.603	-66.947	
265.00	-52.647	-97.128	
266.00	-52.813	-110.430	
267.00	-52.847	-138.725	
268.00	-53.099	-154.788	
269.00	-53.273	-177.200	
270.00	-54.002	161.820	
271.00	-54.323	135.535	
272.00	-54.509	112.279	
273.00	-54.838	90.844	
274.00	-54.183	59.428	
275.00	-54.173	38.991	
276.00	-53.771	25.466	
277.00	-54.060	-0.107	
278.00	-54.485	-15.985	
279.00	-55.205	-35.950	
280.00	-56.225	-61.059	
281.00	-57.443	-90.682	
282.00	-58.026	-139.403	
283.00	-57.204	-179.545	
284.00	-56.535	158.385	
285.00	-55.350	118.189	
286.00	-54.635	108.957	
287.00	-54.338	86.938	
288.00	-54.330	73.442	
289.00	-55.015	54.233	
290.00	-56.287	40.349	
291.00	-58.412	17.732	
292.00	-60.289	-1.077	
293.00	-62.587	-48.002	
294.00	-63.843	-70.962	
295.00	-61.159	-126.988	
296.00	-58.612	-150.695	
297.00	-58.292	-167.783	
298.00	-58.152	172.336	
299.00	-58.003	152.605	
300.00	-58.363	133.714	
301.00	-58.841	103.351	
302.00	-58.987	83.721	
303.00	-58.447	56.159	
304.00	-59.031	32.074	
305.00	-58.098	8.819	
306.00	-56.935	-10.175	
307.00	-56.423	-27.091	
308.00	-56.487	-46.270	
309.00	-57.737	-62.130	
310.00	-57.406	-78.461	
311.00	-58.871	-95.689	
312.00	-59.948	-118.891	
313.00	-61.254	-141.905	
314.00	-61.943	-171.084	
315.00	-63.926	154.460	
316.00	-61.528	123.412	
317.00	-60.096	97.849	
318.00	-58.955	74.421	
319.00	-57.069	63.225	
320.00	-56.573	49.198	
321.00	-55.752	38.772	
322.00	-56.063	27.716	
323.00	-56.155	19.582	
324.00	-57.031	4.440	
325.00	-58.241	-3.609	
326.00	-59.438	-15.532	
327.00	-61.632	-23.549	
328.00	-63.168	-47.061	
329.00	-64.654	-49.788	
330.00	-68.459	-117.835	
331.00	-71.805	-105.279	
332.00	-67.224	-157.839	
333.00	-66.982	170.011	
334.00	-63.924	172.272	
335.00	-65.284	154.249	
336.00	-65.573	141.348	
337.00	-67.522	119.266	
338.00	-68.840	109.000	
339.00	-68.484	69.832	
340.00	-69.615	52.176	
341.00	-70.973	44.596	
342.00	-69.907	8.132	
343.00	-68.593	3.009	
344.00	-68.057	-16.887	
345.00	-66.662	-40.975	
346.00	-65.977	-41.485	
347.00	-65.816	-68.114	
348.00	-65.598	-73.770	
349.00	-65.683	-80.579	
350.00	-65.608	-82.695	
351.00	-65.505	-88.114	
352.00	-65.975	-87.829	
353.00	-65.712	-96.919	
354.00	-66.164	-90.184	
355.00	-67.343	-89.169	
356.00	-69.330	-93.727	
357.00	-71.215	-92.084	
358.00	-75.142	-92.070	
359.00	-78.877	-67.814	
Frequency	2600.00	MHz	
Channel	test		
Scan Axis name	Azimuth  [deg]		
Scan Axis	Amplitude	Phase	
			
0.00	-71.485	-87.372	
1.00	-70.904	-109.293	
2.00	-68.675	-125.802	
3.00	-68.770	-136.506	
4.00	-67.086	-136.054	
5.00	-66.533	-145.359	
6.00	-66.149	-156.405	
7.00	-65.171	-146.959	
8.00	-66.458	-136.514	
9.00	-66.162	-143.561	
10.00	-65.688	-140.099	
11.00	-65.908	-132.766	
12.00	-67.564	-127.013	
13.00	-68.949	-103.960	
14.00	-68.785	-110.501	
15.00	-69.397	-83.989	
16.00	-71.970	-89.682	
17.00	-67.423	-61.097	
18.00	-68.276	-53.005	
19.00	-67.772	-41.574	
20.00	-70.034	-33.014	
21.00	-66.618	-6.872	
22.00	-65.955	-5.387	
23.00	-66.475	17.082	
24.00	-67.166	20.136	
25.00	-65.855	39.414	
26.00	-65.356	58.054	
27.00	-67.162	86.020	
28.00	-66.863	85.808	
29.00	-65.636	106.567	
30.00	-64.564	125.404	
31.00	-66.136	132.819	
32.00	-63.980	148.722	
33.00	-66.122	166.736	
34.00	-63.927	-178.159	
35.00	-65.193	-174.765	
36.00	-64.561	-149.367	
37.00	-64.046	-123.132	
38.00	-64.356	-104.572	
39.00	-66.867	-109.012	
40.00	-66.410	-77.731	
41.00	-67.842	-78.320	
42.00	-70.494	-59.853	
43.00	-68.420	-31.208	
44.00	-71.475	-10.274	
45.00	-71.854	11.303	
46.00	-70.970	47.727	
47.00	-73.407	81.657	
48.00	-71.803	130.736	
49.00	-69.241	168.680	
50.00	-66.179	-171.324	
51.00	-65.962	-133.709	
52.00	-65.208	-134.404	
53.00	-62.452	-102.885	
54.00	-61.988	-95.633	
55.00	-59.874	-66.840	
56.00	-60.446	-58.764	
57.00	-59.448	-35.837	
58.00	-58.447	-19.223	
59.00	-58.182	4.345	
60.00	-58.170	15.545	
61.00	-57.280	34.021	
62.00	-57.357	47.987	
63.00	-57.714	64.338	
64.00	-57.873	81.884	
65.00	-57.750	104.624	
66.00	-59.425	123.163	
67.00	-59.210	148.243	
68.00	-59.891	171.504	
69.00	-60.793	-155.843	
70.00	-60.874	-130.731	
71.00	-61.167	-94.971	
72.00	-59.880	-62.585	
73.00	-58.501	-36.623	
74.00	-57.227	-13.129	
75.00	-56.492	6.288	
76.00	-55.586	22.611	
77.00	-55.616	43.555	
78.00	-55.758	59.097	
79.00	-55.958	76.313	
80.00	-56.531	95.304	
81.00	-58.049	121.542	
82.00	-58.478	136.577	
83.00	-59.014	168.316	
84.00	-59.904	-161.769	
85.00	-59.340	-121.341	
86.00	-59.055	-93.820	
87.00	-58.150	-62.436	
88.00	-57.726	-40.701	
89.00	-57.154	-11.561	
90.00	-56.539	8.172	
91.00	-56.753	31.388	
92.00	-56.158	57.789	
93.00	-56.597	86.397	
94.00	-56.531	119.439	
95.00	-55.909	150.036	
96.00	-55.417	176.904	
97.00	-53.930	-151.635	
98.00	-52.979	-115.705	
99.00	-52.162	-90.069	
100.00	-51.296	-76.352	
101.00	-50.310	-51.107	
102.00	-50.256	-29.475	
103.00	-49.968	-11.276	
104.00	-49.755	9.126	
105.00	-49.688	26.185	
106.00	-49.923	48.531	
107.00	-50.275	70.161	
108.00	-50.733	90.263	
109.00	-51.087	116.879	
110.00	-51.278	135.646	
111.00	-51.612	161.878	
112.00	-51.908	-171.131	
113.00	-52.204	-147.982	
114.00	-52.003	-122.266	
115.00	-52.467	-104.084	
116.00	-52.769	-77.107	
117.00	-53.095	-57.900	
118.00	-54.007	-35.917	
119.00	-55.097	-13.374	
120.00	-56.075	7.590	
121.00	-57.383	37.950	
122.00	-60.224	69.197	
123.00	-61.705	87.302	
124.00	-66.279	145.883	
125.00	-64.941	-146.937	
126.00	-60.643	-87.782	
127.00	-56.931	-64.594	
128.00	-54.377	-46.186	
129.00	-52.373	-21.181	
130.00	-50.486	5.087	
131.00	-48.867	24.881	
132.00	-47.599	50.632	
133.00	-46.696	69.787	
134.00	-45.408	95.897	
135.00	-44.543	117.293	
136.00	-43.805	136.641	
137.00	-42.829	160.962	
138.00	-42.115	177.333	
139.00	-41.278	-159.384	
140.00	-40.512	-141.572	
141.00	-39.747	-122.019	
142.00	-39.073	-111.037	
143.00	-38.339	-91.354	
144.00	-37.665	-74.991	
145.00	-37.120	-55.010	
146.00	-36.564	-40.923	
147.00	-36.057	-25.545	
148.00	-35.595	-10.851	
149.00	-35.198	10.571	
150.00	-34.816	21.790	
151.00	-34.391	39.917	
152.00	-34.033	47.061	
153.00	-33.677	66.178	
154.00	-33.379	78.600	
155.00	-33.041	87.105	
156.00	-32.729	102.258	
157.00	-32.415	112.488	
158.00	-32.127	127.763	
159.00	-31.885	139.256	
160.00	-31.665	153.165	
161.00	-31.397	164.016	
162.00	-31.180	-179.846	
163.00	-30.933	-169.710	
164.00	-30.732	-156.540	
165.00	-30.574	-147.756	
166.00	-30.371	-134.342	
167.00	-30.209	-125.106	
168.00	-30.008	-113.185	
169.00	-29.845	-105.668	
170.00	-29.723	-95.871	
171.00	-29.556	-85.586	
172.00	-29.452	-80.502	
173.00	-29.372	-73.363	
174.00	-29.277	-63.338	
175.00	-29.208	-56.124	
176.00	-29.129	-50.722	
177.00	-29.040	-47.046	
178.00	-29.030	-44.093	
179.00	-28.994	-31.049	
180.00	-28.982	-25.435	
181.00	-28.979	-23.779	
182.00	-28.961	-19.476	
183.00	-28.984	-19.329	
184.00	-29.045	-17.244	
185.00	-29.061	-8.643	
186.00	-29.096	-8.165	
187.00	-29.162	-8.637	
188.00	-29.221	-8.157	
189.00	-29.300	-4.040	
190.00	-29.382	-1.957	
191.00	-29.444	6.592	
192.00	-29.613	-4.394	
193.00	-29.685	8.513	
194.00	-29.824	-1.284	
195.00	-29.945	9.881	
196.00	-30.143	1.135	
197.00	-30.308	6.055	
198.00	-30.539	3.757	
199.00	-30.764	-0.125	
200.00	-31.035	-3.678	
201.00	-31.246	-3.780	
202.00	-31.586	-4.310	
203.00	-31.899	-6.663	
204.00	-32.245	-12.706	
205.00	-32.623	-21.854	
206.00	-33.016	-19.040	
207.00	-33.461	-35.144	
208.00	-33.882	-36.528	
209.00	-34.319	-46.232	
210.00	-34.800	-49.896	
211.00	-35.283	-56.047	
212.00	-35.770	-58.508	
213.00	-36.229	-68.714	
214.00	-36.831	-74.818	
215.00	-37.404	-86.013	
216.00	-37.948	-94.323	
217.00	-38.452	-104.733	
218.00	-39.120	-123.733	
219.00	-39.697	-126.925	
220.00	-40.280	-139.528	
221.00	-41.032	-147.722	
222.00	-41.576	-158.593	
223.00	-42.438	-168.097	
224.00	-43.183	177.717	
225.00	-44.196	167.014	
226.00	-44.875	154.791	
227.00	-45.833	142.523	
228.00	-46.499	122.050	
229.00	-47.281	110.402	
230.00	-48.102	98.120	
231.00	-48.973	86.478	
232.00	-49.731	71.680	
233.00	-50.380	58.358	
234.00	-51.855	40.201	
235.00	-52.908	40.774	
236.00	-53.278	24.389	
237.00	-54.531	16.501	
238.00	-56.463	8.872	
239.00	-57.278	-11.043	
240.00	-59.650	-9.957	
241.00	-61.131	-24.381	
242.00	-63.562	-13.653	
243.00	-64.869	-11.036	
244.00	-64.533	-1.194	
245.00	-62.132	-2.768	
246.00	-62.335	-18.294	
247.00	-61.892	-45.964	
248.00	-60.129	-58.608	
249.00	-59.090	-69.159	
250.00	-58.671	-91.234	
251.00	-57.862	-96.325	
252.00	-56.585	-130.961	
253.00	-55.767	-133.055	
254.00	-56.153	-158.625	
255.00	-55.187	-178.921	
256.00	-54.876	163.606	
257.00	-54.585	128.396	
258.00	-53.850	114.026	
259.00	-53.008	86.113	
260.00	-52.449	65.652	
261.00	-51.673	47.187	
262.00	-51.870	31.347	
263.00	-51.868	9.589	
264.00	-51.948	-4.182	
265.00	-52.392	-37.031	
266.00	-52.730	-54.017	
267.00	-52.795	-83.721	
268.00	-52.488	-106.033	
269.00	-52.191	-133.064	
270.00	-52.175	-153.413	
271.00	-52.511	-177.857	
272.00	-52.226	160.950	
273.00	-52.341	141.427	
274.00	-51.667	113.481	
275.00	-51.995	93.723	
276.00	-52.044	78.434	
277.00	-52.077	50.465	
278.00	-51.997	32.298	
279.00	-52.324	13.104	
280.00	-52.822	-15.660	
281.00	-52.996	-42.358	
282.00	-52.977	-84.682	
283.00	-52.769	-110.950	
284.00	-52.790	-131.915	
285.00	-53.239	-164.902	
286.00	-53.716	179.748	
287.00	-54.382	149.674	
288.00	-54.244	127.699	
289.00	-54.453	96.836	
290.00	-54.292	73.549	
291.00	-54.059	56.035	
292.00	-54.257	35.763	
293.00	-54.555	18.007	
294.00	-55.376	-2.182	
295.00	-58.774	-24.782	
296.00	-60.725	-46.620	
297.00	-61.745	-83.376	
298.00	-61.148	-131.260	
299.00	-60.377	-159.945	
300.00	-58.237	177.365	
301.00	-57.188	149.597	
302.00	-57.003	136.863	
303.00	-56.862	114.472	
304.00	-57.284	101.508	
305.00	-55.926	72.500	
306.00	-58.585	45.971	
307.00	-56.253	20.793	
308.00	-58.442	-2.070	
309.00	-57.335	-29.148	
310.00	-56.782	-47.707	
311.00	-56.031	-66.204	
312.00	-55.985	-82.519	
313.00	-55.954	-104.193	
314.00	-56.600	-120.080	
315.00	-57.701	-149.552	
316.00	-57.277	-165.395	
317.00	-57.879	167.991	
318.00	-56.747	148.602	
319.00	-56.983	130.756	
320.00	-56.563	113.792	
321.00	-56.953	101.951	
322.00	-56.650	89.252	
323.00	-56.954	78.392	
324.00	-57.347	64.862	
325.00	-57.667	49.755	
326.00	-60.645	44.951	
327.00	-63.175	39.783	
328.00	-66.121	40.873	
329.00	-70.786	33.419	
330.00	-76.436	104.740	
331.00	-77.338	89.909	
332.00	-67.600	90.266	
333.00	-65.082	162.868	
334.00	-62.808	147.490	
335.00	-62.250	138.032	
336.00	-61.244	127.932	
337.00	-60.867	118.629	
338.00	-59.215	107.319	
339.00	-59.174	100.104	
340.00	-59.237	87.888	
341.00	-59.722	78.039	
342.00	-58.753	61.899	
343.00	-58.274	51.531	
344.00	-57.544	43.635	
345.00	-57.077	35.133	
346.00	-56.748	25.424	
347.00	-56.361	19.293	
348.00	-56.510	14.556	
349.00	-56.563	12.604	
350.00	-56.639	3.816	
351.00	-57.325	-1.245	
352.00	-58.041	2.421	
353.00	-60.004	-13.016	
354.00	-60.350	-9.843	
355.00	-62.050	-18.244	
356.00	-63.768	-22.821	
357.00	-66.780	-31.378	
358.00	-69.330	-46.200	
359.00	-69.998	-71.994	
Frequency	2650.00	MHz	
Channel	test		
Scan Axis name	Azimuth  [deg]		
Scan Axis	Amplitude	Phase	
			
0.00	-65.245	136.460	
1.00	-62.900	123.347	
2.00	-65.273	120.776	
3.00	-65.099	128.267	
4.00	-65.599	112.724	
5.00	-65.637	113.567	
6.00	-68.011	108.390	
7.00	-67.895	123.243	
8.00	-70.920	93.529	
9.00	-68.743	129.322	
10.00	-68.730	107.100	
11.00	-75.692	132.153	
12.00	-69.855	147.973	
13.00	-68.578	148.743	
14.00	-69.905	178.884	
15.00	-71.446	174.363	
16.00	-68.413	-165.115	
17.00	-67.308	-162.745	
18.00	-67.125	-160.765	
19.00	-66.732	-156.926	
20.00	-64.459	-157.190	
21.00	-66.318	-150.318	
22.00	-63.932	-147.924	
23.00	-64.733	-154.233	
24.00	-66.271	-144.869	
25.00	-68.136	-152.182	
26.00	-66.673	-145.344	
27.00	-66.446	-131.097	
28.00	-64.533	-136.400	
29.00	-65.031	-136.938	
30.00	-69.124	-134.329	
31.00	-71.795	-117.098	
32.00	-68.099	-103.473	
33.00	-69.253	-101.153	
34.00	-72.593	-89.483	
35.00	-77.682	-55.935	
36.00	-78.859	43.923	
37.00	-74.357	30.858	
38.00	-71.785	42.584	
39.00	-71.930	48.258	
40.00	-65.490	65.921	
41.00	-67.484	36.420	
42.00	-66.569	87.438	
43.00	-66.815	98.640	
44.00	-70.467	123.779	
45.00	-68.127	136.036	
46.00	-65.204	136.451	
47.00	-65.756	175.221	
48.00	-64.812	-178.148	
49.00	-65.267	-141.544	
50.00	-62.329	-128.291	
51.00	-63.828	-104.357	
52.00	-61.015	-89.662	
53.00	-61.450	-66.924	
54.00	-60.134	-51.108	
55.00	-59.444	-20.606	
56.00	-58.627	-12.383	
57.00	-58.243	3.984	
58.00	-58.213	27.838	
59.00	-57.235	41.914	
60.00	-57.667	49.004	
61.00	-59.624	64.007	
62.00	-59.866	74.650	
63.00	-61.110	109.510	
64.00	-62.183	137.455	
65.00	-63.271	172.433	
66.00	-61.643	-151.323	
67.00	-60.955	-127.428	
68.00	-59.550	-97.967	
69.00	-59.000	-69.237	
70.00	-58.563	-56.506	
71.00	-57.427	-26.090	
72.00	-56.878	-11.593	
73.00	-55.825	11.619	
74.00	-55.714	38.778	
75.00	-56.109	56.649	
76.00	-54.982	75.820	
77.00	-54.147	98.301	
78.00	-54.693	120.177	
79.00	-54.369	140.690	
80.00	-54.155	166.619	
81.00	-54.598	-165.681	
82.00	-54.331	-154.892	
83.00	-54.595	-125.579	
84.00	-54.817	-103.213	
85.00	-54.749	-69.784	
86.00	-54.133	-49.091	
87.00	-53.967	-19.315	
88.00	-53.490	-0.491	
89.00	-53.449	25.676	
90.00	-53.000	50.685	
91.00	-52.261	70.908	
92.00	-51.651	94.576	
93.00	-52.337	116.948	
94.00	-51.846	144.311	
95.00	-52.315	172.137	
96.00	-52.599	-167.455	
97.00	-52.636	-138.053	
98.00	-53.129	-98.388	
99.00	-53.256	-66.794	
100.00	-53.333	-50.014	
101.00	-52.886	-14.403	
102.00	-52.386	11.996	
103.00	-51.680	38.608	
104.00	-51.074	59.508	
105.00	-50.544	82.561	
106.00	-50.391	104.141	
107.00	-50.035	126.358	
108.00	-50.018	147.565	
109.00	-49.876	171.248	
110.00	-50.080	-167.984	
111.00	-50.232	-143.652	
112.00	-50.422	-117.833	
113.00	-50.604	-95.864	
114.00	-50.672	-71.131	
115.00	-50.510	-49.001	
116.00	-50.630	-24.115	
117.00	-50.927	-2.264	
118.00	-50.963	20.523	
119.00	-51.516	42.825	
120.00	-52.150	62.349	
121.00	-52.355	87.748	
122.00	-53.487	113.335	
123.00	-54.473	126.185	
124.00	-56.478	156.642	
125.00	-58.260	-175.854	
126.00	-60.425	-139.102	
127.00	-62.544	-107.558	
128.00	-63.612	-54.410	
129.00	-61.179	-0.156	
130.00	-59.133	39.651	
131.00	-57.045	74.648	
132.00	-55.210	105.498	
133.00	-52.753	127.820	
134.00	-50.892	156.910	
135.00	-49.046	-175.975	
136.00	-47.656	-157.594	
137.00	-46.498	-133.894	
138.00	-45.401	-118.329	
139.00	-44.263	-92.889	
140.00	-43.388	-75.854	
141.00	-42.555	-57.253	
142.00	-41.642	-45.901	
143.00	-40.807	-25.905	
144.00	-40.083	-9.116	
145.00	-39.503	10.466	
146.00	-38.845	25.256	
147.00	-38.261	40.470	
148.00	-37.772	55.611	
149.00	-37.339	77.892	
150.00	-36.831	89.014	
151.00	-36.435	107.857	
152.00	-36.060	114.866	
153.00	-35.665	134.634	
154.00	-35.259	147.350	
155.00	-34.961	156.123	
156.00	-34.633	171.658	
157.00	-34.311	-177.706	
158.00	-34.017	-161.820	
159.00	-33.744	-149.767	
160.00	-33.468	-135.692	
161.00	-33.206	-124.206	
162.00	-32.969	-107.877	
163.00	-32.661	-97.064	
164.00	-32.396	-83.621	
165.00	-32.156	-74.953	
166.00	-31.874	-61.114	
167.00	-31.695	-51.770	
168.00	-31.503	-40.002	
169.00	-31.335	-32.348	
170.00	-31.201	-22.692	
171.00	-31.050	-11.986	
172.00	-30.922	-6.976	
173.00	-30.820	-0.163	
174.00	-30.684	10.274	
175.00	-30.648	17.793	
176.00	-30.537	23.140	
177.00	-30.464	26.956	
178.00	-30.425	30.416	
179.00	-30.364	43.219	
180.00	-30.371	49.283	
181.00	-30.367	50.768	
182.00	-30.380	55.077	
183.00	-30.401	55.078	
184.00	-30.463	57.381	
185.00	-30.422	66.347	
186.00	-30.516	66.732	
187.00	-30.571	65.484	
188.00	-30.660	66.269	
189.00	-30.736	70.518	
190.00	-30.822	72.155	
191.00	-30.928	81.474	
192.00	-31.058	69.246	
193.00	-31.160	82.414	
194.00	-31.285	72.600	
195.00	-31.417	84.034	
196.00	-31.654	74.948	
197.00	-31.822	79.728	
198.00	-32.053	77.223	
199.00	-32.274	72.906	
200.00	-32.493	69.453	
201.00	-32.731	69.459	
202.00	-33.077	68.726	
203.00	-33.423	65.865	
204.00	-33.748	60.868	
205.00	-34.080	49.819	
206.00	-34.568	53.528	
207.00	-34.921	37.271	
208.00	-35.350	35.577	
209.00	-35.865	26.799	
210.00	-36.242	22.964	
211.00	-36.821	17.203	
212.00	-37.222	15.084	
213.00	-37.700	6.543	
214.00	-38.352	-0.009	
215.00	-38.875	-10.421	
216.00	-39.521	-19.090	
217.00	-40.210	-28.970	
218.00	-40.803	-47.287	
219.00	-41.436	-50.552	
220.00	-42.113	-63.878	
221.00	-42.813	-71.570	
222.00	-43.429	-81.773	
223.00	-44.266	-92.112	
224.00	-45.015	-106.249	
225.00	-45.793	-117.041	
226.00	-46.637	-128.480	
227.00	-47.242	-142.912	
228.00	-48.102	-164.294	
229.00	-48.479	-173.120	
230.00	-49.399	174.603	
231.00	-49.779	164.775	
232.00	-50.679	150.505	
233.00	-51.807	134.406	
234.00	-52.674	120.362	
235.00	-53.678	118.313	
236.00	-54.858	102.559	
237.00	-56.489	91.582	
238.00	-58.089	78.399	
239.00	-60.016	64.754	
240.00	-61.205	53.748	
241.00	-62.499	47.964	
242.00	-62.422	43.861	
243.00	-63.024	47.369	
244.00	-63.161	47.511	
245.00	-61.710	46.820	
246.00	-61.993	44.371	
247.00	-60.768	27.391	
248.00	-59.995	4.499	
249.00	-58.917	-1.918	
250.00	-58.477	-25.404	
251.00	-57.556	-32.465	
252.00	-57.082	-70.526	
253.00	-56.427	-77.090	
254.00	-55.593	-104.766	
255.00	-54.934	-127.051	
256.00	-54.233	-144.063	
257.00	-53.534	-174.831	
258.00	-53.017	173.317	
259.00	-52.466	148.025	
260.00	-52.084	125.149	
261.00	-52.157	111.342	
262.00	-52.154	91.461	
263.00	-52.266	68.665	
264.00	-52.064	51.372	
265.00	-52.569	13.255	
266.00	-52.292	-2.005	
267.00	-51.827	-31.177	
268.00	-51.876	-51.821	
269.00	-51.233	-76.139	
270.00	-51.333	-93.523	
271.00	-51.213	-116.962	
272.00	-51.373	-136.070	
273.00	-51.616	-153.777	
274.00	-51.754	177.679	
275.00	-52.229	154.395	
276.00	-52.788	138.731	
277.00	-52.940	110.265	
278.00	-53.630	88.704	
279.00	-53.687	65.760	
280.00	-54.225	36.571	
281.00	-54.082	7.932	
282.00	-54.093	-30.801	
283.00	-54.436	-63.879	
284.00	-54.659	-84.518	
285.00	-54.196	-124.256	
286.00	-54.393	-141.545	
287.00	-54.177	-171.496	
288.00	-54.407	167.013	
289.00	-54.326	143.534	
290.00	-54.610	121.383	
291.00	-54.709	96.107	
292.00	-54.826	70.066	
293.00	-55.114	40.670	
294.00	-54.868	25.726	
295.00	-54.770	-5.165	
296.00	-54.323	-22.303	
297.00	-53.773	-42.929	
298.00	-54.007	-62.746	
299.00	-54.680	-83.236	
300.00	-55.114	-102.864	
301.00	-56.390	-131.819	
302.00	-56.972	-149.539	
303.00	-57.680	175.761	
304.00	-57.568	159.547	
305.00	-56.786	124.948	
306.00	-56.479	105.115	
307.00	-55.775	85.064	
308.00	-55.430	70.965	
309.00	-56.204	50.426	
310.00	-56.416	37.332	
311.00	-57.694	16.145	
312.00	-57.673	3.639	
313.00	-58.672	-21.432	
314.00	-59.943	-39.392	
315.00	-59.037	-69.445	
316.00	-59.061	-86.018	
317.00	-58.810	-105.439	
318.00	-59.608	-117.699	
319.00	-59.883	-130.318	
320.00	-61.237	-134.781	
321.00	-62.382	-148.609	
322.00	-64.147	-151.918	
323.00	-67.669	-157.101	
324.00	-75.119	-162.989	
325.00	-86.938	-121.326	
326.00	-76.273	-21.073	
327.00	-71.466	-18.116	
328.00	-70.556	-8.005	
329.00	-67.328	-2.871	
330.00	-71.511	-7.991	
331.00	-70.165	-36.249	
332.00	-71.754	-17.879	
333.00	-73.640	-43.621	
334.00	-70.910	-54.172	
335.00	-75.045	-71.521	
336.00	-75.502	-79.544	
337.00	-74.711	-79.374	
338.00	-70.520	-59.295	
339.00	-68.782	-81.207	
340.00	-69.971	-69.371	
341.00	-72.618	-111.379	
342.00	-71.770	-108.844	
343.00	-70.036	-76.855	
344.00	-70.759	-116.522	
345.00	-68.586	-118.318	
346.00	-68.417	-135.595	
347.00	-70.336	-143.679	
348.00	-69.341	-137.438	
349.00	-69.741	176.491	
350.00	-67.067	-173.533	
351.00	-65.641	-177.151	
352.00	-65.141	165.860	
353.00	-65.854	168.231	
354.00	-65.643	163.979	
355.00	-67.777	146.252	
356.00	-65.853	159.057	
357.00	-65.905	135.620	
358.00	-64.433	120.953	
359.00	-65.326	129.615	
Frequency	2700.00	MHz	
Channel	test		
Scan Axis name	Azimuth  [deg]		
Scan Axis	Amplitude	Phase	
			
0.00	-70.663	-120.214	
1.00	-73.909	-120.209	
2.00	-73.540	-137.746	
3.00	-70.723	-115.938	
4.00	-69.224	-122.358	
5.00	-72.156	-162.194	
6.00	-73.177	-150.987	
7.00	-69.865	176.052	
8.00	-72.266	-132.022	
9.00	-78.914	-100.953	
10.00	-73.390	-146.569	
11.00	-71.332	-137.792	
12.00	-76.198	-114.740	
13.00	-79.922	-120.629	
14.00	-79.602	-86.667	
15.00	-79.361	-46.189	
16.00	-77.954	145.763	
17.00	-80.743	80.512	
18.00	-77.203	122.042	
19.00	-84.946	55.995	
20.00	-75.710	84.087	
21.00	-74.539	78.922	
22.00	-71.431	80.525	
23.00	-70.957	84.242	
24.00	-71.533	98.943	
25.00	-70.506	109.840	
26.00	-69.328	102.477	
27.00	-72.661	122.669	
28.00	-68.357	155.666	
29.00	-69.745	178.941	
30.00	-67.966	169.595	
31.00	-68.279	-176.636	
32.00	-68.941	-175.248	
33.00	-69.493	-142.323	
34.00	-66.777	-128.516	
35.00	-68.291	-129.254	
36.00	-67.645	-119.935	
37.00	-73.373	-91.625	
38.00	-69.753	-83.853	
39.00	-73.018	-0.761	
40.00	-73.766	-24.489	
41.00	-80.853	43.913	
42.00	-77.018	68.154	
43.00	-68.981	56.658	
44.00	-67.859	101.932	
45.00	-67.938	130.917	
46.00	-66.728	122.448	
47.00	-64.098	135.641	
48.00	-65.952	170.348	
49.00	-66.492	171.178	
50.00	-64.848	-169.268	
51.00	-66.930	-174.288	
52.00	-69.923	-162.204	
53.00	-74.821	-89.313	
54.00	-70.757	-72.542	
55.00	-69.804	59.683	
56.00	-64.319	47.206	
57.00	-62.858	54.232	
58.00	-67.768	39.632	
59.00	-64.716	81.309	
60.00	-62.777	95.798	
61.00	-62.943	128.938	
62.00	-62.124	136.229	
63.00	-63.187	154.834	
64.00	-58.928	-168.147	
65.00	-60.278	-138.586	
66.00	-58.369	-122.467	
67.00	-61.370	-114.970	
68.00	-58.731	-71.141	
69.00	-58.135	-55.563	
70.00	-58.764	-30.833	
71.00	-57.585	-18.533	
72.00	-57.962	3.805	
73.00	-59.841	32.413	
74.00	-61.076	73.781	
75.00	-59.022	82.478	
76.00	-58.631	108.649	
77.00	-58.753	142.270	
78.00	-59.073	179.816	
79.00	-56.950	-158.058	
80.00	-57.446	-149.799	
81.00	-56.186	-105.978	
82.00	-55.548	-96.045	
83.00	-54.510	-74.469	
84.00	-55.261	-48.565	
85.00	-54.018	-17.574	
86.00	-54.357	6.545	
87.00	-54.542	23.371	
88.00	-54.524	55.981	
89.00	-54.769	78.700	
90.00	-55.935	106.783	
91.00	-53.780	132.694	
92.00	-53.191	154.781	
93.00	-53.737	-172.389	
94.00	-53.357	-144.416	
95.00	-51.831	-116.600	
96.00	-51.501	-92.455	
97.00	-51.657	-65.655	
98.00	-50.709	-28.855	
99.00	-50.776	-0.817	
100.00	-50.882	15.687	
101.00	-51.022	43.529	
102.00	-50.401	68.069	
103.00	-49.913	93.526	
104.00	-49.439	115.507	
105.00	-49.125	137.799	
106.00	-49.186	162.461	
107.00	-48.578	-173.136	
108.00	-48.650	-154.136	
109.00	-49.251	-128.158	
110.00	-49.319	-107.552	
111.00	-49.025	-80.735	
112.00	-48.660	-54.310	
113.00	-48.569	-31.436	
114.00	-48.876	-6.539	
115.00	-48.378	7.914	
116.00	-49.331	36.507	
117.00	-49.124	57.991	
118.00	-49.397	81.759	
119.00	-50.696	104.185	
120.00	-50.425	120.597	
121.00	-51.555	151.491	
122.00	-52.147	178.830	
123.00	-53.901	-174.077	
124.00	-54.617	-139.636	
125.00	-55.539	-110.530	
126.00	-56.800	-73.094	
127.00	-58.970	-44.097	
128.00	-58.308	-7.011	
129.00	-58.582	30.579	
130.00	-59.238	67.551	
131.00	-57.128	102.539	
132.00	-54.661	140.895	
133.00	-55.053	172.146	
134.00	-53.094	-154.881	
135.00	-51.760	-130.387	
136.00	-50.607	-100.622	
137.00	-48.903	-74.305	
138.00	-47.664	-55.000	
139.00	-46.597	-28.038	
140.00	-45.380	-9.772	
141.00	-44.382	9.225	
142.00	-43.504	21.018	
143.00	-42.641	41.822	
144.00	-41.934	59.935	
145.00	-41.217	81.095	
146.00	-40.517	95.527	
147.00	-39.951	111.315	
148.00	-39.275	127.882	
149.00	-38.814	150.252	
150.00	-38.407	162.041	
151.00	-37.960	-178.501	
152.00	-37.540	-170.747	
153.00	-37.169	-150.989	
154.00	-36.728	-137.456	
155.00	-36.360	-128.161	
156.00	-36.045	-112.106	
157.00	-35.702	-101.320	
158.00	-35.346	-85.057	
159.00	-35.098	-73.282	
160.00	-34.875	-58.021	
161.00	-34.483	-46.634	
162.00	-34.154	-29.025	
163.00	-33.889	-18.636	
164.00	-33.672	-4.403	
165.00	-33.408	4.964	
166.00	-33.195	18.534	
167.00	-32.898	28.698	
168.00	-32.695	41.125	
169.00	-32.522	49.359	
170.00	-32.344	59.324	
171.00	-32.173	70.309	
172.00	-32.042	75.556	
173.00	-31.881	82.758	
174.00	-31.775	93.338	
175.00	-31.694	101.291	
176.00	-31.642	106.934	
177.00	-31.556	110.638	
178.00	-31.518	114.199	
179.00	-31.447	127.054	
180.00	-31.411	133.735	
181.00	-31.419	135.058	
182.00	-31.398	139.252	
183.00	-31.385	139.255	
184.00	-31.356	141.990	
185.00	-31.467	150.843	
186.00	-31.522	151.039	
187.00	-31.565	149.909	
188.00	-31.642	150.762	
189.00	-31.690	154.717	
190.00	-31.740	156.302	
191.00	-31.867	165.864	
192.00	-32.006	152.837	
193.00	-32.074	167.335	
194.00	-32.301	156.512	
195.00	-32.392	168.531	
196.00	-32.645	159.395	
197.00	-32.811	163.734	
198.00	-33.028	161.218	
199.00	-33.308	157.641	
200.00	-33.597	154.080	
201.00	-33.870	153.823	
202.00	-34.200	153.233	
203.00	-34.561	151.084	
204.00	-34.993	145.267	
205.00	-35.403	135.430	
206.00	-35.846	139.308	
207.00	-36.365	121.709	
208.00	-36.819	122.270	
209.00	-37.348	112.790	
210.00	-37.725	109.190	
211.00	-38.272	103.229	
212.00	-38.963	102.404	
213.00	-39.454	92.931	
214.00	-40.113	85.944	
215.00	-40.642	75.636	
216.00	-41.365	67.616	
217.00	-41.932	58.223	
218.00	-42.503	39.492	
219.00	-43.053	34.958	
220.00	-43.586	21.305	
221.00	-44.422	14.284	
222.00	-44.732	2.851	
223.00	-45.454	-7.852	
224.00	-46.022	-23.170	
225.00	-46.505	-35.112	
226.00	-47.377	-45.854	
227.00	-47.861	-58.613	
228.00	-47.969	-76.191	
229.00	-48.851	-86.997	
230.00	-49.433	-98.150	
231.00	-49.397	-102.893	
232.00	-51.461	-122.418	
233.00	-51.729	-141.774	
234.00	-54.074	-151.026	
235.00	-54.547	-153.402	
236.00	-56.220	-166.710	
237.00	-57.655	-161.065	
238.00	-58.127	-173.647	
239.00	-59.766	-167.689	
240.00	-61.202	-168.778	
241.00	-61.834	-161.964	
242.00	-60.725	-162.927	
243.00	-62.528	-168.622	
244.00	-60.034	-179.921	
245.00	-59.773	168.386	
246.00	-58.424	155.677	
247.00	-58.323	120.683	
248.00	-57.064	98.030	
249.00	-55.734	86.399	
250.00	-55.394	57.982	
251.00	-54.193	54.826	
252.00	-54.361	10.319	
253.00	-54.664	4.839	
254.00	-53.105	-21.816	
255.00	-53.122	-43.803	
256.00	-52.326	-64.810	
257.00	-51.749	-96.608	
258.00	-50.958	-111.528	
259.00	-50.701	-136.537	
260.00	-50.327	-159.002	
261.00	-50.362	-173.120	
262.00	-50.224	165.053	
263.00	-50.395	143.086	
264.00	-49.910	131.644	
265.00	-50.502	90.211	
266.00	-50.751	76.596	
267.00	-51.073	49.110	
268.00	-50.278	25.484	
269.00	-50.589	-2.590	
270.00	-50.087	-23.057	
271.00	-49.866	-48.014	
272.00	-49.998	-63.777	
273.00	-50.110	-84.593	
274.00	-50.459	-113.317	
275.00	-51.243	-133.832	
276.00	-51.820	-148.176	
277.00	-52.523	-177.883	
278.00	-52.488	160.152	
279.00	-52.881	131.548	
280.00	-53.056	110.810	
281.00	-52.595	79.269	
282.00	-53.596	40.759	
283.00	-53.588	5.559	
284.00	-53.944	-16.201	
285.00	-54.157	-53.555	
286.00	-53.894	-64.061	
287.00	-54.131	-97.409	
288.00	-53.981	-119.612	
289.00	-54.359	-143.186	
290.00	-54.937	-167.484	
291.00	-55.007	168.039	
292.00	-55.160	150.468	
293.00	-55.929	119.428	
294.00	-56.457	102.755	
295.00	-57.188	70.137	
296.00	-57.211	51.382	
297.00	-58.079	26.772	
298.00	-58.291	-0.227	
299.00	-57.868	-27.283	
300.00	-57.948	-48.272	
301.00	-57.176	-75.440	
302.00	-58.444	-84.969	
303.00	-58.617	-111.013	
304.00	-59.783	-115.025	
305.00	-62.121	-140.353	
306.00	-61.518	-159.737	
307.00	-64.257	173.503	
308.00	-67.028	154.967	
309.00	-68.895	145.489	
310.00	-71.635	113.186	
311.00	-75.783	109.031	
312.00	-73.784	125.384	
313.00	-76.030	-147.344	
314.00	-69.533	175.436	
315.00	-66.550	-173.186	
316.00	-66.198	170.882	
317.00	-62.502	164.701	
318.00	-61.345	145.980	
319.00	-59.906	142.407	
320.00	-59.411	131.179	
321.00	-59.962	119.813	
322.00	-58.533	106.673	
323.00	-60.493	96.430	
324.00	-62.662	77.313	
325.00	-65.229	74.495	
326.00	-63.814	66.539	
327.00	-68.666	2.247	
328.00	-74.126	-2.306	
329.00	-71.499	-49.103	
330.00	-65.939	-72.645	
331.00	-69.445	-105.932	
332.00	-65.816	-124.006	
333.00	-65.204	-147.213	
334.00	-60.571	-147.879	
335.00	-60.765	-174.014	
336.00	-60.373	-177.571	
337.00	-60.609	170.111	
338.00	-59.531	158.704	
339.00	-59.233	154.807	
340.00	-59.758	142.534	
341.00	-60.835	137.755	
342.00	-61.286	121.210	
343.00	-61.045	115.330	
344.00	-65.175	107.409	
345.00	-64.892	87.111	
346.00	-65.123	68.103	
347.00	-64.901	44.909	
348.00	-65.292	28.905	
349.00	-64.456	21.464	
350.00	-66.164	9.371	
351.00	-65.494	0.106	
352.00	-66.881	-14.622	
353.00	-67.522	-23.781	
354.00	-69.265	-20.362	
355.00	-68.740	-32.487	
356.00	-71.302	-55.837	
357.00	-70.409	-82.410	
358.00	-70.418	-90.462	
359.00	-70.270	-71.645	
