Test Title:	Alpha Wireless Indoor Range						
Date:	03/11/2017						
Time:	10:09						
Operator Name:	FL						
Comment:	Version 2 Run 2
Cable length changed						
Caib. File Name:	C:\Program Files\Midas 2.01d\Calibration Files\test sigma 180900.cal						
							
[Scan Axis] Name: 	Azimuth  [deg]Start: 	0.000000	Stop	359.000000	Increment	1.000000[Step Axis] Name: 	Start: 	0.000000	Stop	0.000000	Increment	0.000000[Tert] Name: 	None [Forth] Name: 	None  [ Freq.]  (List) 	MHz.	1694.000000	1710.000000	1800.000000	1850.000000	1950.000000	2050.000000	2170.000000	2300.000000	2350.000000	2400.000000	2450.000000	2496.000000	2550.000000	2600.000000	2650.000000	2700.000000
 [Switch]  	None [Channel]  	test			 [ Beam] 	None			
Database:			
First Question			
2nd			
3rd			
4th			
			
Frequency	1694.00	MHz	
Channel	test		
Scan Axis name	Azimuth  [deg]		
Scan Axis	Amplitude	Phase	
			
0.00	-63.146	153.371	
1.00	-67.459	156.049	
2.00	-68.055	166.641	
3.00	-71.974	-173.281	
4.00	-74.092	-165.675	
5.00	-73.079	-96.251	
6.00	-71.327	-88.241	
7.00	-70.521	-72.186	
8.00	-68.188	-59.738	
9.00	-67.845	-52.055	
10.00	-67.444	-59.327	
11.00	-68.730	-64.280	
12.00	-71.037	-48.312	
13.00	-66.534	-66.809	
14.00	-67.943	-51.210	
15.00	-70.003	-47.212	
16.00	-70.642	-34.800	
17.00	-70.363	-49.809	
18.00	-75.084	-41.400	
19.00	-77.970	-13.840	
20.00	-84.473	161.923	
21.00	-79.435	108.125	
22.00	-71.956	86.288	
23.00	-69.378	107.060	
24.00	-67.592	141.400	
25.00	-64.304	146.729	
26.00	-65.930	161.022	
27.00	-61.647	146.859	
28.00	-59.926	155.478	
29.00	-60.330	151.931	
30.00	-61.207	163.683	
31.00	-59.763	174.766	
32.00	-57.643	172.197	
33.00	-58.806	-177.842	
34.00	-60.265	-169.251	
35.00	-57.997	-154.844	
36.00	-59.015	-138.888	
37.00	-57.525	-134.660	
38.00	-60.086	-113.599	
39.00	-59.137	-108.978	
40.00	-60.990	-99.318	
41.00	-61.260	-79.687	
42.00	-63.133	-51.657	
43.00	-62.377	-18.970	
44.00	-59.817	-21.120	
45.00	-58.738	-3.073	
46.00	-58.133	18.011	
47.00	-54.563	37.936	
48.00	-54.063	51.286	
49.00	-53.877	59.789	
50.00	-52.260	67.656	
51.00	-51.913	82.750	
52.00	-50.997	88.047	
53.00	-50.508	104.432	
54.00	-48.823	113.540	
55.00	-49.567	128.739	
56.00	-48.665	135.453	
57.00	-48.509	147.147	
58.00	-48.553	161.468	
59.00	-48.669	170.871	
60.00	-47.715	-165.864	
61.00	-47.923	-156.573	
62.00	-47.210	-145.984	
63.00	-47.631	-130.332	
64.00	-47.130	-121.788	
65.00	-46.945	-105.189	
66.00	-45.730	-87.791	
67.00	-46.167	-69.318	
68.00	-46.885	-61.590	
69.00	-46.765	-49.604	
70.00	-47.052	-29.015	
71.00	-46.582	-11.567	
72.00	-45.206	0.602	
73.00	-45.404	13.229	
74.00	-45.224	30.726	
75.00	-44.174	49.711	
76.00	-43.934	61.938	
77.00	-43.836	70.271	
78.00	-44.093	81.115	
79.00	-43.760	100.308	
80.00	-44.466	119.150	
81.00	-43.805	131.684	
82.00	-43.606	153.065	
83.00	-43.856	160.955	
84.00	-44.133	-178.619	
85.00	-43.953	-156.659	
86.00	-43.924	-141.794	
87.00	-44.021	-127.698	
88.00	-43.394	-114.181	
89.00	-43.450	-96.545	
90.00	-43.021	-75.418	
91.00	-42.293	-63.072	
92.00	-42.596	-46.534	
93.00	-41.276	-28.799	
94.00	-41.140	-11.446	
95.00	-41.149	1.640	
96.00	-40.497	15.862	
97.00	-39.894	33.984	
98.00	-39.842	51.250	
99.00	-39.770	62.037	
100.00	-39.047	85.078	
101.00	-38.718	103.654	
102.00	-38.604	118.455	
103.00	-37.817	133.189	
104.00	-37.916	147.683	
105.00	-37.554	162.330	
106.00	-37.361	176.683	
107.00	-37.246	-168.612	
108.00	-37.156	-152.845	
109.00	-36.603	-137.167	
110.00	-36.336	-122.585	
111.00	-36.133	-107.151	
112.00	-35.803	-89.373	
113.00	-35.382	-76.799	
114.00	-35.028	-61.593	
115.00	-34.739	-48.029	
116.00	-34.334	-31.648	
117.00	-34.184	-17.569	
118.00	-33.831	-4.393	
119.00	-33.469	8.846	
120.00	-33.286	22.562	
121.00	-32.914	38.048	
122.00	-32.720	50.597	
123.00	-32.393	63.449	
124.00	-32.084	77.801	
125.00	-31.967	90.334	
126.00	-31.657	104.391	
127.00	-31.416	116.871	
128.00	-31.137	130.550	
129.00	-30.931	140.632	
130.00	-30.800	157.106	
131.00	-30.575	169.101	
132.00	-30.412	-176.998	
133.00	-30.285	-164.736	
134.00	-30.050	-150.957	
135.00	-29.914	-139.459	
136.00	-29.787	-125.226	
137.00	-29.623	-116.293	
138.00	-29.406	-100.871	
139.00	-29.285	-90.325	
140.00	-29.101	-76.876	
141.00	-29.001	-68.503	
142.00	-28.833	-56.674	
143.00	-28.784	-45.170	
144.00	-28.650	-33.403	
145.00	-28.561	-23.337	
146.00	-28.485	-11.762	
147.00	-28.413	-1.065	
148.00	-28.350	10.316	
149.00	-28.251	22.542	
150.00	-28.167	30.184	
151.00	-28.104	41.395	
152.00	-28.047	48.488	
153.00	-27.921	61.296	
154.00	-27.876	69.698	
155.00	-27.781	79.954	
156.00	-27.741	88.076	
157.00	-27.692	96.367	
158.00	-27.598	107.284	
159.00	-27.527	114.224	
160.00	-27.500	122.805	
161.00	-27.421	130.490	
162.00	-27.378	137.512	
163.00	-27.330	145.810	
164.00	-27.257	152.594	
165.00	-27.216	160.902	
166.00	-27.152	167.915	
167.00	-27.105	177.042	
168.00	-27.057	-177.231	
169.00	-27.004	-169.415	
170.00	-26.959	-165.464	
171.00	-26.927	-157.844	
172.00	-26.898	-151.274	
173.00	-26.879	-146.016	
174.00	-26.886	-141.901	
175.00	-26.871	-136.979	
176.00	-26.909	-132.654	
177.00	-26.955	-129.251	
178.00	-26.996	-123.279	
179.00	-27.073	-124.632	
180.00	-27.143	-119.120	
181.00	-27.259	-118.174	
182.00	-27.345	-114.020	
183.00	-27.479	-111.204	
184.00	-27.621	-108.713	
185.00	-27.756	-106.601	
186.00	-27.923	-102.949	
187.00	-28.103	-102.753	
188.00	-28.310	-99.647	
189.00	-28.520	-99.471	
190.00	-28.711	-99.005	
191.00	-28.941	-96.955	
192.00	-29.182	-98.282	
193.00	-29.429	-96.975	
194.00	-29.680	-94.856	
195.00	-29.938	-95.767	
196.00	-30.217	-95.882	
197.00	-30.476	-95.510	
198.00	-30.773	-98.118	
199.00	-31.066	-96.897	
200.00	-31.331	-100.238	
201.00	-31.606	-100.059	
202.00	-31.905	-102.166	
203.00	-32.200	-103.627	
204.00	-32.494	-105.630	
205.00	-32.729	-107.830	
206.00	-33.007	-112.231	
207.00	-33.247	-114.064	
208.00	-33.473	-117.787	
209.00	-33.680	-120.426	
210.00	-33.861	-122.461	
211.00	-34.024	-127.616	
212.00	-34.205	-130.544	
213.00	-34.386	-135.132	
214.00	-34.516	-139.890	
215.00	-34.604	-145.023	
216.00	-34.799	-150.318	
217.00	-35.004	-155.103	
218.00	-35.139	-160.738	
219.00	-35.341	-166.685	
220.00	-35.472	-171.140	
221.00	-35.782	-178.709	
222.00	-36.055	174.332	
223.00	-36.327	166.935	
224.00	-36.672	160.679	
225.00	-36.998	153.622	
226.00	-37.267	143.294	
227.00	-37.601	131.913	
228.00	-37.985	125.032	
229.00	-38.221	115.794	
230.00	-38.564	106.368	
231.00	-38.968	95.647	
232.00	-39.222	87.496	
233.00	-39.543	77.437	
234.00	-39.848	68.495	
235.00	-40.164	55.681	
236.00	-40.549	47.952	
237.00	-41.005	35.650	
238.00	-41.347	27.140	
239.00	-42.059	16.295	
240.00	-42.364	4.768	
241.00	-42.952	-5.312	
242.00	-43.663	-19.196	
243.00	-44.527	-29.220	
244.00	-45.328	-41.700	
245.00	-45.969	-54.613	
246.00	-46.972	-67.357	
247.00	-47.606	-82.086	
248.00	-48.316	-98.381	
249.00	-49.276	-109.559	
250.00	-49.805	-126.130	
251.00	-50.080	-142.542	
252.00	-50.761	-155.956	
253.00	-51.493	-167.044	
254.00	-52.008	-178.683	
255.00	-53.046	172.061	
256.00	-53.879	163.853	
257.00	-55.183	158.985	
258.00	-56.731	156.955	
259.00	-58.270	154.902	
260.00	-59.278	165.131	
261.00	-60.303	162.262	
262.00	-60.482	-175.733	
263.00	-59.063	-174.775	
264.00	-58.230	-178.727	
265.00	-57.853	174.626	
266.00	-57.564	165.219	
267.00	-57.183	153.825	
268.00	-56.126	141.003	
269.00	-55.328	122.898	
270.00	-54.634	109.622	
271.00	-53.818	96.038	
272.00	-53.021	80.181	
273.00	-52.100	67.313	
274.00	-51.208	55.825	
275.00	-50.737	43.204	
276.00	-50.700	31.317	
277.00	-51.117	17.942	
278.00	-50.892	4.850	
279.00	-51.211	-10.079	
280.00	-51.513	-24.764	
281.00	-51.787	-38.904	
282.00	-51.975	-61.215	
283.00	-52.130	-81.977	
284.00	-51.841	-99.608	
285.00	-51.006	-124.018	
286.00	-50.922	-141.920	
287.00	-50.363	-156.458	
288.00	-50.239	-170.219	
289.00	-50.129	177.360	
290.00	-50.273	159.202	
291.00	-50.154	145.342	
292.00	-49.863	125.751	
293.00	-50.009	111.695	
294.00	-49.617	93.777	
295.00	-49.645	77.795	
296.00	-49.121	60.625	
297.00	-48.955	44.583	
298.00	-48.450	31.692	
299.00	-47.872	18.740	
300.00	-47.708	5.206	
301.00	-47.397	-7.090	
302.00	-47.003	-20.168	
303.00	-46.938	-32.425	
304.00	-46.981	-42.863	
305.00	-47.202	-57.197	
306.00	-47.459	-68.496	
307.00	-47.652	-85.055	
308.00	-47.738	-97.815	
309.00	-47.993	-113.161	
310.00	-48.440	-123.826	
311.00	-48.705	-139.330	
312.00	-48.804	-153.482	
313.00	-48.692	-166.070	
314.00	-48.863	177.934	
315.00	-49.141	163.682	
316.00	-49.187	152.576	
317.00	-49.414	138.242	
318.00	-49.551	126.029	
319.00	-50.114	111.950	
320.00	-50.467	94.627	
321.00	-50.651	82.163	
322.00	-50.734	66.142	
323.00	-51.291	49.131	
324.00	-51.248	37.308	
325.00	-50.704	19.983	
326.00	-50.543	5.679	
327.00	-50.013	-9.360	
328.00	-49.586	-19.936	
329.00	-49.292	-28.503	
330.00	-48.788	-41.701	
331.00	-48.682	-47.402	
332.00	-48.773	-58.461	
333.00	-48.642	-64.312	
334.00	-48.576	-73.095	
335.00	-48.759	-82.353	
336.00	-48.842	-91.531	
337.00	-49.074	-99.266	
338.00	-49.414	-107.425	
339.00	-49.866	-115.802	
340.00	-50.066	-125.738	
341.00	-50.464	-135.280	
342.00	-50.602	-142.679	
343.00	-50.913	-151.273	
344.00	-51.069	-160.088	
345.00	-51.167	-170.018	
346.00	-51.365	-171.062	
347.00	-51.343	179.486	
348.00	-51.991	179.897	
349.00	-52.157	170.080	
350.00	-52.605	167.950	
351.00	-53.135	164.394	
352.00	-53.893	161.041	
353.00	-54.650	162.183	
354.00	-55.447	157.970	
355.00	-56.911	157.432	
356.00	-57.987	158.332	
357.00	-59.334	158.044	
358.00	-60.403	165.435	
359.00	-61.778	166.637	
Frequency	1710.00	MHz	
Channel	test		
Scan Axis name	Azimuth  [deg]		
Scan Axis	Amplitude	Phase	
			
0.00	-59.681	92.140	
1.00	-60.915	91.685	
2.00	-63.623	102.910	
3.00	-63.194	113.749	
4.00	-66.233	128.662	
5.00	-65.545	155.824	
6.00	-68.493	158.299	
7.00	-64.207	-170.958	
8.00	-62.616	-153.522	
9.00	-61.321	-144.481	
10.00	-60.078	-133.058	
11.00	-58.870	-129.883	
12.00	-57.873	-122.313	
13.00	-56.855	-123.103	
14.00	-55.995	-112.254	
15.00	-56.236	-112.704	
16.00	-55.338	-109.155	
17.00	-54.964	-106.770	
18.00	-54.320	-105.098	
19.00	-53.816	-102.874	
20.00	-53.997	-94.511	
21.00	-53.957	-97.076	
22.00	-54.588	-93.618	
23.00	-54.399	-89.756	
24.00	-54.369	-92.036	
25.00	-54.496	-92.738	
26.00	-54.955	-94.490	
27.00	-55.270	-90.678	
28.00	-55.417	-91.503	
29.00	-56.943	-80.030	
30.00	-56.221	-97.345	
31.00	-59.403	-97.852	
32.00	-58.889	-101.975	
33.00	-59.387	-108.544	
34.00	-61.628	-112.001	
35.00	-59.810	-122.631	
36.00	-59.195	-112.720	
37.00	-58.150	-128.290	
38.00	-59.938	-141.242	
39.00	-61.204	-132.114	
40.00	-59.073	-101.339	
41.00	-60.108	-128.733	
42.00	-58.231	-94.029	
43.00	-59.564	-104.688	
44.00	-60.374	-53.512	
45.00	-59.828	-38.032	
46.00	-61.348	-47.144	
47.00	-58.442	-20.074	
48.00	-55.865	1.197	
49.00	-57.020	12.646	
50.00	-53.477	31.291	
51.00	-53.667	49.246	
52.00	-53.539	51.716	
53.00	-52.485	71.184	
54.00	-51.412	79.843	
55.00	-50.394	84.617	
56.00	-49.909	92.258	
57.00	-50.087	116.446	
58.00	-49.871	130.120	
59.00	-48.699	135.941	
60.00	-49.155	165.800	
61.00	-49.268	172.329	
62.00	-48.008	-168.935	
63.00	-47.912	-156.021	
64.00	-46.237	-134.457	
65.00	-45.673	-130.126	
66.00	-44.956	-117.643	
67.00	-44.925	-105.570	
68.00	-45.009	-89.587	
69.00	-45.055	-82.533	
70.00	-44.388	-61.930	
71.00	-43.478	-47.084	
72.00	-42.712	-28.950	
73.00	-42.829	-20.975	
74.00	-42.785	-5.127	
75.00	-42.231	9.721	
76.00	-42.129	23.086	
77.00	-41.907	37.617	
78.00	-41.949	51.007	
79.00	-41.542	63.461	
80.00	-41.320	79.331	
81.00	-41.225	95.975	
82.00	-41.034	112.522	
83.00	-41.851	125.865	
84.00	-41.467	140.753	
85.00	-41.430	159.855	
86.00	-41.921	174.884	
87.00	-41.374	-167.199	
88.00	-41.391	-149.612	
89.00	-40.962	-136.776	
90.00	-40.793	-110.549	
91.00	-40.657	-101.366	
92.00	-40.413	-76.338	
93.00	-40.033	-64.455	
94.00	-39.530	-51.084	
95.00	-39.135	-30.302	
96.00	-38.788	-16.346	
97.00	-38.336	3.001	
98.00	-37.995	19.146	
99.00	-38.033	35.748	
100.00	-37.178	54.200	
101.00	-36.978	77.460	
102.00	-36.202	88.737	
103.00	-36.323	104.626	
104.00	-36.145	120.500	
105.00	-35.882	133.357	
106.00	-35.233	150.488	
107.00	-35.185	165.391	
108.00	-34.948	178.879	
109.00	-34.309	-166.484	
110.00	-34.176	-150.124	
111.00	-34.132	-134.951	
112.00	-33.723	-117.380	
113.00	-33.459	-105.424	
114.00	-33.245	-87.604	
115.00	-32.949	-72.741	
116.00	-32.670	-57.282	
117.00	-32.332	-42.373	
118.00	-32.062	-29.233	
119.00	-31.683	-15.347	
120.00	-31.402	-1.052	
121.00	-31.053	14.504	
122.00	-30.830	27.247	
123.00	-30.643	40.598	
124.00	-30.330	55.096	
125.00	-30.002	68.396	
126.00	-29.725	82.235	
127.00	-29.516	94.814	
128.00	-29.353	108.356	
129.00	-29.095	119.824	
130.00	-28.970	136.435	
131.00	-28.712	148.094	
132.00	-28.555	162.263	
133.00	-28.441	174.817	
134.00	-28.294	-171.074	
135.00	-28.153	-159.372	
136.00	-28.031	-145.488	
137.00	-27.943	-136.009	
138.00	-27.772	-120.307	
139.00	-27.638	-109.455	
140.00	-27.575	-95.430	
141.00	-27.512	-86.853	
142.00	-27.341	-74.695	
143.00	-27.280	-62.495	
144.00	-27.165	-50.589	
145.00	-27.092	-40.191	
146.00	-27.022	-28.443	
147.00	-26.952	-17.599	
148.00	-26.870	-6.255	
149.00	-26.824	6.381	
150.00	-26.778	14.181	
151.00	-26.710	25.524	
152.00	-26.691	32.767	
153.00	-26.660	45.682	
154.00	-26.588	54.380	
155.00	-26.550	64.811	
156.00	-26.510	73.248	
157.00	-26.466	81.735	
158.00	-26.406	92.885	
159.00	-26.375	99.953	
160.00	-26.304	108.842	
161.00	-26.259	116.549	
162.00	-26.207	123.690	
163.00	-26.154	132.070	
164.00	-26.118	138.953	
165.00	-26.072	147.412	
166.00	-26.025	154.249	
167.00	-25.987	163.587	
168.00	-25.935	169.440	
169.00	-25.895	177.082	
170.00	-25.881	-178.722	
171.00	-25.833	-171.165	
172.00	-25.827	-164.499	
173.00	-25.803	-159.038	
174.00	-25.803	-154.871	
175.00	-25.817	-150.026	
176.00	-25.843	-145.658	
177.00	-25.898	-142.189	
178.00	-25.945	-136.299	
179.00	-26.003	-137.464	
180.00	-26.080	-132.040	
181.00	-26.165	-131.048	
182.00	-26.307	-126.608	
183.00	-26.422	-123.638	
184.00	-26.572	-121.018	
185.00	-26.719	-118.646	
186.00	-26.905	-114.790	
187.00	-27.071	-114.151	
188.00	-27.261	-110.681	
189.00	-27.462	-110.083	
190.00	-27.654	-109.168	
191.00	-27.853	-106.373	
192.00	-28.065	-107.356	
193.00	-28.304	-105.606	
194.00	-28.542	-103.033	
195.00	-28.739	-103.330	
196.00	-28.956	-103.322	
197.00	-29.177	-102.223	
198.00	-29.400	-104.420	
199.00	-29.616	-102.745	
200.00	-29.837	-105.544	
201.00	-30.022	-105.247	
202.00	-30.206	-107.096	
203.00	-30.441	-108.081	
204.00	-30.568	-110.034	
205.00	-30.766	-111.981	
206.00	-30.934	-116.274	
207.00	-31.069	-117.888	
208.00	-31.213	-121.596	
209.00	-31.375	-124.035	
210.00	-31.537	-126.074	
211.00	-31.721	-131.338	
212.00	-31.881	-134.443	
213.00	-32.089	-139.260	
214.00	-32.276	-144.068	
215.00	-32.447	-149.468	
216.00	-32.675	-155.852	
217.00	-32.897	-161.049	
218.00	-33.111	-166.765	
219.00	-33.411	-173.636	
220.00	-33.658	-178.662	
221.00	-33.955	173.135	
222.00	-34.280	166.108	
223.00	-34.566	158.112	
224.00	-34.923	151.292	
225.00	-35.246	144.401	
226.00	-35.658	133.580	
227.00	-36.066	123.114	
228.00	-36.526	116.554	
229.00	-37.030	107.771	
230.00	-37.491	99.113	
231.00	-37.989	89.380	
232.00	-38.633	80.839	
233.00	-39.334	71.453	
234.00	-40.053	62.445	
235.00	-40.760	50.900	
236.00	-41.656	42.980	
237.00	-42.459	29.278	
238.00	-43.344	20.519	
239.00	-44.255	8.206	
240.00	-45.138	-3.517	
241.00	-46.272	-14.848	
242.00	-47.246	-28.556	
243.00	-48.168	-40.210	
244.00	-49.457	-52.213	
245.00	-50.790	-66.206	
246.00	-52.113	-77.079	
247.00	-53.342	-88.242	
248.00	-54.983	-98.255	
249.00	-57.272	-102.278	
250.00	-59.326	-108.560	
251.00	-61.596	-103.276	
252.00	-61.858	-89.036	
253.00	-61.278	-74.069	
254.00	-58.632	-76.948	
255.00	-57.210	-72.945	
256.00	-54.990	-79.381	
257.00	-53.569	-88.505	
258.00	-52.464	-93.938	
259.00	-51.828	-109.318	
260.00	-51.041	-117.802	
261.00	-50.581	-133.803	
262.00	-50.096	-143.650	
263.00	-50.546	-159.730	
264.00	-49.765	-173.549	
265.00	-49.448	170.359	
266.00	-49.372	153.787	
267.00	-48.972	138.106	
268.00	-48.315	123.277	
269.00	-47.465	104.695	
270.00	-47.075	90.679	
271.00	-46.993	78.606	
272.00	-46.270	64.291	
273.00	-46.038	53.683	
274.00	-45.584	40.235	
275.00	-45.815	28.946	
276.00	-46.164	15.116	
277.00	-46.542	-0.873	
278.00	-46.973	-16.047	
279.00	-47.526	-34.116	
280.00	-47.837	-48.488	
281.00	-48.014	-68.950	
282.00	-47.876	-87.896	
283.00	-47.799	-108.420	
284.00	-47.461	-126.205	
285.00	-46.966	-146.491	
286.00	-46.731	-165.783	
287.00	-46.351	-178.351	
288.00	-46.340	164.776	
289.00	-46.114	154.488	
290.00	-46.455	138.133	
291.00	-46.832	125.131	
292.00	-46.928	104.748	
293.00	-47.148	90.460	
294.00	-47.063	69.770	
295.00	-47.050	53.516	
296.00	-46.697	38.639	
297.00	-46.483	21.982	
298.00	-46.171	9.103	
299.00	-46.003	-4.615	
300.00	-45.830	-20.594	
301.00	-45.567	-33.412	
302.00	-45.631	-48.514	
303.00	-45.519	-61.419	
304.00	-45.424	-75.438	
305.00	-45.416	-92.503	
306.00	-45.412	-105.682	
307.00	-45.254	-122.927	
308.00	-44.977	-136.768	
309.00	-44.813	-149.718	
310.00	-44.658	-160.240	
311.00	-44.428	-172.739	
312.00	-44.321	176.228	
313.00	-44.330	166.748	
314.00	-44.549	155.139	
315.00	-44.942	143.073	
316.00	-45.360	133.902	
317.00	-45.920	120.873	
318.00	-46.636	110.302	
319.00	-47.299	95.338	
320.00	-48.097	75.888	
321.00	-48.550	63.404	
322.00	-48.858	42.699	
323.00	-49.009	29.640	
324.00	-48.744	12.748	
325.00	-48.365	-2.116	
326.00	-48.341	-15.572	
327.00	-48.065	-28.602	
328.00	-47.727	-40.011	
329.00	-47.693	-50.131	
330.00	-47.496	-64.376	
331.00	-47.351	-71.602	
332.00	-47.485	-83.453	
333.00	-47.176	-92.585	
334.00	-47.114	-103.820	
335.00	-46.844	-116.283	
336.00	-46.370	-125.486	
337.00	-46.128	-132.266	
338.00	-46.023	-140.638	
339.00	-45.989	-147.825	
340.00	-45.911	-152.911	
341.00	-46.006	-159.549	
342.00	-46.305	-163.566	
343.00	-46.447	-168.248	
344.00	-46.907	-173.316	
345.00	-47.428	-179.749	
346.00	-48.390	177.422	
347.00	-48.685	171.496	
348.00	-49.685	170.377	
349.00	-51.087	159.832	
350.00	-51.916	155.396	
351.00	-53.242	148.293	
352.00	-53.967	137.873	
353.00	-54.920	132.009	
354.00	-55.964	123.754	
355.00	-56.354	118.946	
356.00	-56.764	111.150	
357.00	-58.324	105.593	
358.00	-57.932	103.433	
359.00	-59.527	95.302	
Frequency	1800.00	MHz	
Channel	test		
Scan Axis name	Azimuth  [deg]		
Scan Axis	Amplitude	Phase	
			
0.00	-59.200	-43.062	
1.00	-60.323	-40.798	
2.00	-60.813	-49.800	
3.00	-61.430	-61.002	
4.00	-61.662	-65.100	
5.00	-62.413	-70.829	
6.00	-62.521	-90.027	
7.00	-62.800	-96.349	
8.00	-61.512	-98.481	
9.00	-61.565	-109.548	
10.00	-62.178	-114.488	
11.00	-62.232	-119.416	
12.00	-62.517	-122.237	
13.00	-62.284	-124.931	
14.00	-62.731	-119.352	
15.00	-62.591	-125.258	
16.00	-62.819	-121.782	
17.00	-63.815	-130.545	
18.00	-63.458	-119.775	
19.00	-63.515	-107.629	
20.00	-65.594	-112.763	
21.00	-65.487	-114.256	
22.00	-65.652	-121.990	
23.00	-70.994	-107.626	
24.00	-70.935	-136.984	
25.00	-70.234	-142.225	
26.00	-75.314	-160.860	
27.00	-74.374	148.659	
28.00	-87.493	78.101	
29.00	-70.831	127.581	
30.00	-66.535	125.380	
31.00	-61.695	141.365	
32.00	-61.405	136.279	
33.00	-61.746	147.082	
34.00	-61.839	163.112	
35.00	-58.816	158.119	
36.00	-58.946	165.287	
37.00	-57.019	170.742	
38.00	-57.634	-179.360	
39.00	-56.584	-177.100	
40.00	-56.916	-171.129	
41.00	-57.139	-176.357	
42.00	-57.444	-160.809	
43.00	-59.344	-148.941	
44.00	-58.383	-154.050	
45.00	-60.685	-132.951	
46.00	-62.858	-96.764	
47.00	-67.581	-70.610	
48.00	-62.709	-73.929	
49.00	-67.812	-92.280	
50.00	-73.825	-71.017	
51.00	-63.436	-9.000	
52.00	-75.675	18.442	
53.00	-61.244	4.256	
54.00	-63.691	28.435	
55.00	-63.906	87.016	
56.00	-60.225	89.387	
57.00	-61.376	87.098	
58.00	-62.676	154.478	
59.00	-57.508	163.378	
60.00	-58.538	169.465	
61.00	-59.390	178.867	
62.00	-57.382	-169.984	
63.00	-59.259	-162.298	
64.00	-60.619	-148.554	
65.00	-56.487	-142.304	
66.00	-60.459	-120.116	
67.00	-62.011	-111.880	
68.00	-63.768	-64.217	
69.00	-65.293	-77.461	
70.00	-62.995	-12.405	
71.00	-58.237	32.041	
72.00	-56.335	35.290	
73.00	-55.892	17.790	
74.00	-55.460	71.278	
75.00	-51.567	74.464	
76.00	-52.099	85.361	
77.00	-50.233	98.488	
78.00	-52.163	108.186	
79.00	-50.236	113.854	
80.00	-51.302	139.153	
81.00	-49.776	154.277	
82.00	-49.697	162.968	
83.00	-49.867	177.621	
84.00	-49.367	-160.943	
85.00	-48.954	-151.497	
86.00	-48.673	-132.606	
87.00	-47.950	-116.133	
88.00	-48.499	-109.782	
89.00	-48.706	-86.365	
90.00	-49.071	-68.737	
91.00	-48.617	-53.540	
92.00	-47.537	-31.071	
93.00	-48.275	-18.137	
94.00	-46.870	4.050	
95.00	-46.070	25.098	
96.00	-45.537	35.430	
97.00	-45.364	50.704	
98.00	-45.037	71.331	
99.00	-46.235	87.184	
100.00	-44.428	114.148	
101.00	-43.776	129.269	
102.00	-44.693	149.108	
103.00	-44.035	169.330	
104.00	-43.036	-174.788	
105.00	-42.425	-163.257	
106.00	-41.519	-143.078	
107.00	-41.087	-128.583	
108.00	-40.531	-114.290	
109.00	-39.991	-95.969	
110.00	-39.614	-82.526	
111.00	-39.249	-67.038	
112.00	-39.010	-47.849	
113.00	-38.633	-34.672	
114.00	-37.797	-17.586	
115.00	-37.892	-3.174	
116.00	-37.379	12.169	
117.00	-36.682	29.488	
118.00	-36.610	43.520	
119.00	-35.831	56.171	
120.00	-35.637	71.195	
121.00	-35.145	86.198	
122.00	-34.742	99.774	
123.00	-34.562	114.226	
124.00	-34.197	130.105	
125.00	-33.867	143.377	
126.00	-33.528	159.365	
127.00	-33.377	172.083	
128.00	-33.061	-173.220	
129.00	-32.773	-160.927	
130.00	-32.494	-143.024	
131.00	-32.175	-130.078	
132.00	-31.983	-115.002	
133.00	-31.741	-101.943	
134.00	-31.495	-86.961	
135.00	-31.212	-74.642	
136.00	-31.019	-59.682	
137.00	-30.865	-48.720	
138.00	-30.615	-32.553	
139.00	-30.479	-20.560	
140.00	-30.214	-5.662	
141.00	-29.990	4.149	
142.00	-29.770	16.853	
143.00	-29.501	29.908	
144.00	-29.280	43.419	
145.00	-29.093	53.619	
146.00	-28.816	66.014	
147.00	-28.595	77.615	
148.00	-28.383	89.587	
149.00	-28.151	102.409	
150.00	-27.919	110.172	
151.00	-27.757	121.908	
152.00	-27.564	129.169	
153.00	-27.398	141.791	
154.00	-27.290	150.543	
155.00	-27.124	160.695	
156.00	-27.028	169.025	
157.00	-26.947	177.324	
158.00	-26.835	-171.709	
159.00	-26.768	-164.741	
160.00	-26.719	-155.647	
161.00	-26.634	-147.687	
162.00	-26.584	-140.496	
163.00	-26.532	-131.722	
164.00	-26.460	-124.687	
165.00	-26.393	-115.900	
166.00	-26.339	-108.796	
167.00	-26.268	-98.814	
168.00	-26.217	-92.532	
169.00	-26.150	-84.267	
170.00	-26.094	-79.700	
171.00	-26.035	-71.846	
172.00	-25.965	-64.352	
173.00	-25.925	-58.625	
174.00	-25.886	-53.759	
175.00	-25.816	-48.306	
176.00	-25.796	-43.438	
177.00	-25.754	-39.382	
178.00	-25.743	-32.798	
179.00	-25.697	-33.731	
180.00	-25.699	-27.810	
181.00	-25.697	-26.185	
182.00	-25.724	-21.586	
183.00	-25.752	-17.967	
184.00	-25.798	-15.201	
185.00	-25.847	-12.548	
186.00	-25.902	-8.648	
187.00	-25.968	-8.100	
188.00	-26.057	-4.495	
189.00	-26.138	-4.067	
190.00	-26.258	-3.560	
191.00	-26.352	-0.999	
192.00	-26.477	-2.498	
193.00	-26.602	-1.150	
194.00	-26.758	0.961	
195.00	-26.903	0.106	
196.00	-27.069	-0.612	
197.00	-27.259	-0.076	
198.00	-27.402	-3.620	
199.00	-27.614	-2.553	
200.00	-27.822	-6.354	
201.00	-27.999	-7.308	
202.00	-28.204	-9.985	
203.00	-28.414	-12.122	
204.00	-28.654	-15.038	
205.00	-28.870	-18.009	
206.00	-29.096	-23.190	
207.00	-29.347	-25.880	
208.00	-29.647	-30.575	
209.00	-29.874	-34.413	
210.00	-30.125	-37.007	
211.00	-30.356	-43.197	
212.00	-30.709	-47.310	
213.00	-30.976	-53.153	
214.00	-31.268	-58.916	
215.00	-31.626	-64.626	
216.00	-31.883	-71.615	
217.00	-32.198	-77.916	
218.00	-32.502	-84.247	
219.00	-32.763	-91.862	
220.00	-33.178	-97.480	
221.00	-33.442	-106.359	
222.00	-33.801	-113.559	
223.00	-34.162	-122.466	
224.00	-34.489	-129.734	
225.00	-34.899	-136.516	
226.00	-35.255	-147.690	
227.00	-35.565	-158.639	
228.00	-36.032	-166.245	
229.00	-36.367	-176.005	
230.00	-36.756	175.120	
231.00	-37.236	165.271	
232.00	-37.641	155.868	
233.00	-37.993	145.414	
234.00	-38.392	136.716	
235.00	-38.820	124.115	
236.00	-39.318	116.228	
237.00	-39.447	102.239	
238.00	-39.898	93.004	
239.00	-40.343	82.589	
240.00	-40.731	70.469	
241.00	-41.229	60.615	
242.00	-41.595	46.616	
243.00	-41.990	35.667	
244.00	-42.480	25.460	
245.00	-42.971	11.258	
246.00	-43.511	0.139	
247.00	-43.817	-12.319	
248.00	-44.267	-23.238	
249.00	-44.559	-34.498	
250.00	-45.147	-48.270	
251.00	-45.487	-61.942	
252.00	-45.887	-73.577	
253.00	-46.205	-85.435	
254.00	-46.777	-97.053	
255.00	-47.268	-108.382	
256.00	-47.381	-118.873	
257.00	-47.935	-130.562	
258.00	-48.490	-139.974	
259.00	-48.779	-152.298	
260.00	-49.441	-161.336	
261.00	-49.902	-172.060	
262.00	-50.383	-177.589	
263.00	-50.759	174.078	
264.00	-51.600	165.877	
265.00	-53.027	160.437	
266.00	-53.986	153.016	
267.00	-54.934	147.614	
268.00	-56.021	148.229	
269.00	-58.695	135.767	
270.00	-60.810	132.932	
271.00	-65.170	128.926	
272.00	-69.985	87.703	
273.00	-72.858	47.258	
274.00	-66.270	-27.169	
275.00	-62.832	-42.165	
276.00	-60.107	-45.528	
277.00	-58.453	-48.883	
278.00	-56.820	-56.556	
279.00	-54.831	-63.639	
280.00	-54.670	-71.908	
281.00	-53.959	-73.301	
282.00	-53.652	-83.905	
283.00	-53.638	-90.611	
284.00	-53.652	-95.656	
285.00	-53.945	-105.711	
286.00	-54.501	-121.503	
287.00	-54.443	-126.845	
288.00	-54.905	-141.285	
289.00	-55.739	-144.992	
290.00	-55.745	-159.096	
291.00	-56.788	-165.047	
292.00	-58.313	178.082	
293.00	-58.273	172.993	
294.00	-60.143	162.618	
295.00	-61.822	151.343	
296.00	-64.158	139.334	
297.00	-64.185	115.754	
298.00	-66.817	99.620	
299.00	-66.247	78.023	
300.00	-66.102	46.087	
301.00	-65.416	34.058	
302.00	-64.766	20.250	
303.00	-64.653	13.305	
304.00	-65.630	15.177	
305.00	-67.654	11.544	
306.00	-67.864	24.597	
307.00	-69.659	47.650	
308.00	-70.831	80.437	
309.00	-66.890	91.491	
310.00	-67.697	97.397	
311.00	-63.477	99.053	
312.00	-63.445	96.442	
313.00	-62.083	97.759	
314.00	-61.892	98.112	
315.00	-61.765	97.112	
316.00	-61.162	89.176	
317.00	-62.964	84.650	
318.00	-63.384	73.118	
319.00	-63.345	60.129	
320.00	-66.312	46.856	
321.00	-66.146	25.573	
322.00	-64.318	11.405	
323.00	-65.926	-7.262	
324.00	-64.345	-15.916	
325.00	-64.057	-31.778	
326.00	-64.258	-44.217	
327.00	-65.402	-42.791	
328.00	-63.861	-47.217	
329.00	-64.103	-52.420	
330.00	-66.550	-84.372	
331.00	-68.029	-73.430	
332.00	-71.754	-85.147	
333.00	-69.096	-122.430	
334.00	-72.191	-174.429	
335.00	-69.130	154.210	
336.00	-66.905	140.952	
337.00	-64.247	133.872	
338.00	-62.419	118.276	
339.00	-60.894	113.361	
340.00	-60.300	111.396	
341.00	-59.788	107.525	
342.00	-59.519	101.143	
343.00	-60.057	95.239	
344.00	-59.839	91.918	
345.00	-60.665	80.167	
346.00	-60.427	72.364	
347.00	-61.135	62.472	
348.00	-62.612	53.709	
349.00	-62.405	40.809	
350.00	-62.528	32.569	
351.00	-62.684	15.091	
352.00	-61.693	-2.798	
353.00	-61.398	-14.176	
354.00	-61.029	-21.001	
355.00	-60.562	-27.332	
356.00	-60.084	-32.502	
357.00	-59.733	-38.846	
358.00	-59.928	-45.160	
359.00	-60.357	-46.568	
Frequency	1850.00	MHz	
Channel	test		
Scan Axis name	Azimuth  [deg]		
Scan Axis	Amplitude	Phase	
			
0.00	-64.422	12.474	
1.00	-62.444	18.826	
2.00	-60.766	19.992	
3.00	-60.120	20.634	
4.00	-59.575	20.460	
5.00	-59.542	21.589	
6.00	-59.419	22.043	
7.00	-59.141	22.681	
8.00	-59.395	23.017	
9.00	-59.987	21.358	
10.00	-60.059	20.072	
11.00	-60.889	20.706	
12.00	-61.825	18.705	
13.00	-63.400	15.132	
14.00	-65.106	8.161	
15.00	-66.422	-1.320	
16.00	-66.870	-15.306	
17.00	-67.212	-30.907	
18.00	-68.028	-46.336	
19.00	-66.092	-60.756	
20.00	-64.806	-64.476	
21.00	-63.606	-72.602	
22.00	-63.620	-70.000	
23.00	-61.718	-76.147	
24.00	-61.437	-71.486	
25.00	-60.639	-72.890	
26.00	-59.302	-71.434	
27.00	-59.299	-68.437	
28.00	-58.299	-65.394	
29.00	-57.848	-61.314	
30.00	-57.697	-56.702	
31.00	-56.954	-54.746	
32.00	-57.157	-51.975	
33.00	-56.390	-45.158	
34.00	-57.730	-41.938	
35.00	-57.919	-35.535	
36.00	-57.796	-28.387	
37.00	-57.661	-20.138	
38.00	-57.558	-11.450	
39.00	-57.914	-1.891	
40.00	-57.106	12.447	
41.00	-56.910	19.396	
42.00	-58.366	26.041	
43.00	-56.816	37.476	
44.00	-56.309	43.898	
45.00	-56.385	64.567	
46.00	-56.104	64.319	
47.00	-56.166	83.812	
48.00	-56.626	96.228	
49.00	-56.764	107.222	
50.00	-56.326	120.245	
51.00	-56.217	133.777	
52.00	-55.888	153.186	
53.00	-55.268	158.654	
54.00	-54.958	169.494	
55.00	-54.596	-179.846	
56.00	-54.274	-165.674	
57.00	-53.569	-157.948	
58.00	-52.812	-143.286	
59.00	-53.260	-130.304	
60.00	-53.883	-123.503	
61.00	-54.099	-113.926	
62.00	-54.934	-101.261	
63.00	-55.418	-90.871	
64.00	-56.057	-78.293	
65.00	-56.364	-67.802	
66.00	-57.857	-55.177	
67.00	-57.353	-12.657	
68.00	-59.648	-8.787	
69.00	-61.718	-6.469	
70.00	-61.035	32.598	
71.00	-59.423	42.158	
72.00	-59.371	57.862	
73.00	-60.614	76.690	
74.00	-60.263	93.826	
75.00	-60.978	122.445	
76.00	-62.014	144.860	
77.00	-61.525	169.786	
78.00	-61.664	-159.435	
79.00	-59.409	-141.766	
80.00	-58.412	-118.630	
81.00	-56.264	-98.638	
82.00	-55.168	-82.646	
83.00	-53.938	-73.323	
84.00	-53.448	-55.913	
85.00	-53.282	-39.581	
86.00	-52.538	-24.430	
87.00	-52.148	-17.189	
88.00	-52.783	6.112	
89.00	-52.894	24.131	
90.00	-52.895	43.813	
91.00	-52.439	61.952	
92.00	-51.834	82.402	
93.00	-50.820	101.567	
94.00	-50.428	117.070	
95.00	-49.992	134.394	
96.00	-48.926	152.458	
97.00	-48.292	169.602	
98.00	-47.648	-171.594	
99.00	-47.282	-155.198	
100.00	-46.535	-132.843	
101.00	-46.112	-113.704	
102.00	-45.514	-96.773	
103.00	-44.975	-79.743	
104.00	-44.421	-63.738	
105.00	-43.668	-50.892	
106.00	-43.448	-34.330	
107.00	-42.603	-19.608	
108.00	-42.043	-3.497	
109.00	-41.687	11.981	
110.00	-41.388	26.997	
111.00	-41.021	42.289	
112.00	-40.704	60.455	
113.00	-40.359	74.451	
114.00	-40.109	91.585	
115.00	-39.950	107.966	
116.00	-39.529	124.332	
117.00	-39.115	141.735	
118.00	-38.644	157.316	
119.00	-38.240	172.113	
120.00	-37.769	-171.662	
121.00	-37.300	-155.428	
122.00	-36.734	-141.123	
123.00	-36.414	-126.653	
124.00	-35.872	-110.397	
125.00	-35.493	-96.839	
126.00	-35.143	-81.320	
127.00	-34.781	-68.137	
128.00	-34.452	-52.924	
129.00	-34.174	-41.166	
130.00	-33.901	-23.515	
131.00	-33.626	-10.025	
132.00	-33.333	5.767	
133.00	-33.065	19.203	
134.00	-32.795	34.555	
135.00	-32.585	47.253	
136.00	-32.319	63.417	
137.00	-32.047	73.920	
138.00	-31.837	90.320	
139.00	-31.513	102.409	
140.00	-31.278	117.355	
141.00	-31.036	126.781	
142.00	-30.788	140.354	
143.00	-30.574	153.202	
144.00	-30.349	166.289	
145.00	-30.086	177.298	
146.00	-29.942	-170.008	
147.00	-29.737	-158.115	
148.00	-29.530	-146.211	
149.00	-29.351	-132.573	
150.00	-29.154	-124.531	
151.00	-28.977	-112.257	
152.00	-28.793	-104.645	
153.00	-28.629	-91.396	
154.00	-28.465	-81.718	
155.00	-28.314	-71.128	
156.00	-28.167	-62.404	
157.00	-28.018	-53.582	
158.00	-27.874	-42.074	
159.00	-27.748	-34.802	
160.00	-27.617	-25.538	
161.00	-27.458	-17.699	
162.00	-27.356	-10.520	
163.00	-27.252	-1.783	
164.00	-27.160	5.130	
165.00	-27.076	13.964	
166.00	-26.987	20.929	
167.00	-26.933	30.728	
168.00	-26.868	36.819	
169.00	-26.813	44.790	
170.00	-26.775	49.311	
171.00	-26.735	57.075	
172.00	-26.716	64.324	
173.00	-26.684	70.092	
174.00	-26.651	74.663	
175.00	-26.647	80.375	
176.00	-26.639	85.075	
177.00	-26.636	88.794	
178.00	-26.641	95.596	
179.00	-26.656	94.562	
180.00	-26.677	100.391	
181.00	-26.703	101.975	
182.00	-26.749	106.534	
183.00	-26.785	110.136	
184.00	-26.833	112.989	
185.00	-26.891	115.528	
186.00	-26.956	119.573	
187.00	-27.022	120.239	
188.00	-27.104	123.628	
189.00	-27.188	124.121	
190.00	-27.272	124.513	
191.00	-27.357	127.049	
192.00	-27.459	125.578	
193.00	-27.556	126.791	
194.00	-27.678	128.833	
195.00	-27.787	128.022	
196.00	-27.910	127.250	
197.00	-28.024	127.646	
198.00	-28.153	124.130	
199.00	-28.285	125.157	
200.00	-28.414	121.555	
201.00	-28.563	120.630	
202.00	-28.696	118.007	
203.00	-28.846	116.216	
204.00	-28.996	113.509	
205.00	-29.157	110.751	
206.00	-29.327	105.489	
207.00	-29.502	103.155	
208.00	-29.690	98.899	
209.00	-29.905	95.310	
210.00	-30.109	93.123	
211.00	-30.330	87.188	
212.00	-30.588	83.441	
213.00	-30.823	77.874	
214.00	-31.094	72.387	
215.00	-31.381	66.253	
216.00	-31.663	59.272	
217.00	-31.970	53.437	
218.00	-32.263	47.133	
219.00	-32.575	38.824	
220.00	-32.864	33.527	
221.00	-33.185	24.463	
222.00	-33.501	16.772	
223.00	-33.822	7.799	
224.00	-34.121	0.317	
225.00	-34.422	-7.415	
226.00	-34.692	-18.599	
227.00	-35.034	-30.256	
228.00	-35.316	-37.716	
229.00	-35.661	-47.540	
230.00	-35.944	-56.869	
231.00	-36.268	-67.589	
232.00	-36.522	-76.825	
233.00	-36.814	-87.239	
234.00	-37.132	-95.981	
235.00	-37.376	-108.110	
236.00	-37.669	-115.450	
237.00	-37.993	-128.003	
238.00	-38.359	-137.366	
239.00	-38.782	-147.525	
240.00	-39.200	-158.344	
241.00	-39.677	-168.208	
242.00	-40.175	177.800	
243.00	-40.761	167.739	
244.00	-41.279	155.906	
245.00	-41.888	142.920	
246.00	-42.418	131.018	
247.00	-42.890	117.247	
248.00	-43.422	103.795	
249.00	-43.873	92.817	
250.00	-44.180	78.455	
251.00	-44.636	63.443	
252.00	-45.005	51.353	
253.00	-45.378	38.854	
254.00	-45.721	26.670	
255.00	-46.206	14.367	
256.00	-46.655	3.199	
257.00	-47.184	-8.686	
258.00	-47.784	-19.183	
259.00	-48.229	-33.278	
260.00	-48.918	-43.738	
261.00	-49.583	-60.956	
262.00	-50.209	-71.012	
263.00	-50.903	-83.969	
264.00	-51.268	-97.893	
265.00	-51.741	-110.734	
266.00	-51.822	-125.731	
267.00	-51.672	-138.464	
268.00	-52.050	-149.575	
269.00	-51.655	-163.768	
270.00	-51.678	-174.020	
271.00	-51.357	175.785	
272.00	-50.931	166.380	
273.00	-51.227	159.389	
274.00	-51.128	149.294	
275.00	-51.409	141.799	
276.00	-51.924	130.677	
277.00	-52.378	118.486	
278.00	-52.754	106.303	
279.00	-53.305	92.453	
280.00	-53.310	81.383	
281.00	-53.371	67.203	
282.00	-53.386	51.464	
283.00	-53.781	35.252	
284.00	-53.539	23.922	
285.00	-53.237	6.605	
286.00	-53.235	-6.528	
287.00	-53.981	-16.554	
288.00	-54.364	-25.946	
289.00	-55.657	-34.829	
290.00	-57.394	-49.807	
291.00	-58.717	-64.631	
292.00	-61.450	-94.027	
293.00	-62.272	-124.923	
294.00	-60.817	-169.041	
295.00	-58.890	170.450	
296.00	-56.761	157.378	
297.00	-55.488	145.212	
298.00	-54.326	135.003	
299.00	-53.422	130.150	
300.00	-52.856	121.763	
301.00	-53.404	108.379	
302.00	-53.317	98.919	
303.00	-53.949	88.683	
304.00	-54.348	78.707	
305.00	-55.848	68.985	
306.00	-56.913	52.193	
307.00	-58.731	30.246	
308.00	-61.242	-2.771	
309.00	-59.749	-27.917	
310.00	-58.887	-47.505	
311.00	-57.124	-73.729	
312.00	-55.673	-84.734	
313.00	-53.988	-98.747	
314.00	-53.096	-107.087	
315.00	-52.294	-118.632	
316.00	-51.766	-123.816	
317.00	-51.690	-134.132	
318.00	-51.394	-141.101	
319.00	-51.573	-150.337	
320.00	-51.561	-160.834	
321.00	-52.434	-165.487	
322.00	-53.236	-174.216	
323.00	-54.376	177.797	
324.00	-55.356	170.865	
325.00	-56.623	157.181	
326.00	-58.701	145.168	
327.00	-60.324	127.031	
328.00	-62.556	102.854	
329.00	-64.028	71.924	
330.00	-63.107	40.660	
331.00	-61.992	18.996	
332.00	-61.000	2.503	
333.00	-59.737	-10.407	
334.00	-58.806	-24.559	
335.00	-57.482	-34.872	
336.00	-56.581	-50.913	
337.00	-55.602	-58.658	
338.00	-54.845	-65.781	
339.00	-54.145	-72.988	
340.00	-53.640	-79.120	
341.00	-53.420	-85.801	
342.00	-53.140	-89.442	
343.00	-53.074	-96.039	
344.00	-53.196	-99.388	
345.00	-53.224	-105.611	
346.00	-53.673	-107.209	
347.00	-53.978	-109.989	
348.00	-54.707	-110.153	
349.00	-55.648	-115.168	
350.00	-56.673	-115.655	
351.00	-58.146	-115.205	
352.00	-59.756	-118.234	
353.00	-61.814	-117.416	
354.00	-63.658	-117.256	
355.00	-68.080	-109.284	
356.00	-74.947	-92.043	
357.00	-76.072	-28.542	
358.00	-70.046	11.554	
359.00	-66.639	22.453	
Frequency	1950.00	MHz	
Channel	test		
Scan Axis name	Azimuth  [deg]		
Scan Axis	Amplitude	Phase	
			
0.00	-67.099	145.347	
1.00	-71.254	132.995	
2.00	-73.449	108.323	
3.00	-77.074	98.677	
4.00	-76.223	22.984	
5.00	-71.191	7.425	
6.00	-68.398	-1.931	
7.00	-64.908	-6.374	
8.00	-63.706	-7.240	
9.00	-62.673	-4.539	
10.00	-60.207	7.372	
11.00	-61.124	3.096	
12.00	-58.978	-1.321	
13.00	-59.313	4.754	
14.00	-58.409	3.884	
15.00	-58.678	13.303	
16.00	-58.855	9.020	
17.00	-58.507	18.201	
18.00	-58.824	22.913	
19.00	-58.723	21.004	
20.00	-58.592	26.427	
21.00	-59.344	23.194	
22.00	-60.664	25.937	
23.00	-60.234	26.038	
24.00	-61.487	18.553	
25.00	-60.246	23.283	
26.00	-61.377	19.597	
27.00	-61.122	15.975	
28.00	-61.248	6.988	
29.00	-60.153	2.058	
30.00	-60.060	2.614	
31.00	-58.170	-0.766	
32.00	-58.490	1.582	
33.00	-57.858	-1.350	
34.00	-57.779	0.640	
35.00	-57.182	0.997	
36.00	-56.884	-1.985	
37.00	-56.646	2.870	
38.00	-56.952	7.407	
39.00	-56.928	7.096	
40.00	-56.950	10.501	
41.00	-57.468	13.032	
42.00	-58.399	18.272	
43.00	-58.241	19.185	
44.00	-60.481	29.238	
45.00	-63.189	28.410	
46.00	-64.297	33.594	
47.00	-66.776	29.213	
48.00	-72.300	34.788	
49.00	-76.433	88.386	
50.00	-81.889	176.581	
51.00	-76.434	-161.089	
52.00	-73.309	-130.552	
53.00	-67.367	-152.042	
54.00	-69.069	-138.386	
55.00	-62.109	-123.404	
56.00	-65.680	-99.394	
57.00	-63.760	-90.479	
58.00	-64.829	-94.408	
59.00	-64.686	-92.297	
60.00	-63.336	-61.121	
61.00	-65.442	-59.136	
62.00	-65.198	-37.581	
63.00	-64.284	-20.363	
64.00	-64.009	-17.041	
65.00	-64.371	-10.773	
66.00	-61.443	19.000	
67.00	-64.659	18.216	
68.00	-61.110	23.191	
69.00	-58.818	46.172	
70.00	-63.601	71.764	
71.00	-62.597	69.947	
72.00	-63.244	78.005	
73.00	-60.995	96.108	
74.00	-59.853	119.038	
75.00	-60.420	134.323	
76.00	-59.791	141.428	
77.00	-61.799	175.509	
78.00	-60.608	177.164	
79.00	-59.915	-176.196	
80.00	-60.528	-167.170	
81.00	-58.698	-142.142	
82.00	-57.824	-132.872	
83.00	-59.102	-125.409	
84.00	-58.893	-99.456	
85.00	-57.949	-83.394	
86.00	-58.093	-66.385	
87.00	-56.955	-43.971	
88.00	-56.615	-30.959	
89.00	-56.033	-9.610	
90.00	-55.707	0.525	
91.00	-54.560	15.770	
92.00	-55.189	27.608	
93.00	-53.501	42.604	
94.00	-53.006	57.044	
95.00	-52.129	70.239	
96.00	-52.197	84.028	
97.00	-51.686	100.118	
98.00	-50.973	113.530	
99.00	-51.275	129.930	
100.00	-50.567	148.355	
101.00	-50.129	169.377	
102.00	-49.770	-174.536	
103.00	-49.161	-156.487	
104.00	-48.435	-137.912	
105.00	-48.001	-127.466	
106.00	-47.432	-110.654	
107.00	-46.813	-96.247	
108.00	-45.972	-80.367	
109.00	-45.343	-63.088	
110.00	-44.820	-49.151	
111.00	-44.409	-35.015	
112.00	-43.865	-17.606	
113.00	-43.431	-4.222	
114.00	-43.012	11.505	
115.00	-42.957	25.516	
116.00	-42.618	42.795	
117.00	-42.322	59.214	
118.00	-42.025	74.198	
119.00	-41.690	89.954	
120.00	-41.379	107.665	
121.00	-40.771	125.702	
122.00	-40.250	141.870	
123.00	-39.740	157.210	
124.00	-39.105	174.495	
125.00	-38.435	-171.389	
126.00	-37.640	-154.264	
127.00	-37.292	-141.082	
128.00	-36.829	-125.994	
129.00	-36.142	-113.737	
130.00	-35.783	-94.926	
131.00	-35.249	-81.996	
132.00	-34.704	-66.186	
133.00	-34.246	-53.597	
134.00	-33.854	-38.389	
135.00	-33.456	-25.800	
136.00	-33.188	-10.534	
137.00	-32.806	-0.463	
138.00	-32.459	15.784	
139.00	-32.159	26.967	
140.00	-31.862	42.037	
141.00	-31.601	51.688	
142.00	-31.330	64.384	
143.00	-31.079	77.377	
144.00	-30.857	90.469	
145.00	-30.639	101.660	
146.00	-30.466	114.162	
147.00	-30.268	126.249	
148.00	-30.088	137.944	
149.00	-29.929	151.744	
150.00	-29.798	159.641	
151.00	-29.634	172.220	
152.00	-29.522	-179.967	
153.00	-29.401	-166.602	
154.00	-29.305	-156.381	
155.00	-29.170	-145.488	
156.00	-29.052	-136.269	
157.00	-28.954	-126.883	
158.00	-28.813	-114.834	
159.00	-28.695	-107.059	
160.00	-28.574	-97.293	
161.00	-28.449	-88.809	
162.00	-28.332	-81.230	
163.00	-28.217	-71.828	
164.00	-28.132	-64.437	
165.00	-28.019	-55.058	
166.00	-27.934	-47.823	
167.00	-27.881	-37.342	
168.00	-27.796	-31.028	
169.00	-27.722	-22.575	
170.00	-27.667	-17.534	
171.00	-27.617	-9.382	
172.00	-27.552	-1.455	
173.00	-27.505	4.641	
174.00	-27.487	9.499	
175.00	-27.416	15.736	
176.00	-27.396	20.999	
177.00	-27.343	24.987	
178.00	-27.308	32.484	
179.00	-27.272	31.682	
180.00	-27.249	37.631	
181.00	-27.248	39.253	
182.00	-27.224	44.313	
183.00	-27.180	48.262	
184.00	-27.186	51.051	
185.00	-27.135	53.863	
186.00	-27.179	57.695	
187.00	-27.174	58.617	
188.00	-27.195	61.551	
189.00	-27.222	62.124	
190.00	-27.246	61.971	
191.00	-27.317	64.670	
192.00	-27.387	62.378	
193.00	-27.451	63.591	
194.00	-27.520	65.265	
195.00	-27.605	64.443	
196.00	-27.725	63.217	
197.00	-27.817	63.118	
198.00	-27.956	59.331	
199.00	-28.126	60.150	
200.00	-28.246	55.956	
201.00	-28.419	54.654	
202.00	-28.594	51.837	
203.00	-28.790	49.516	
204.00	-28.997	46.217	
205.00	-29.208	42.990	
206.00	-29.412	36.933	
207.00	-29.645	34.169	
208.00	-29.861	29.194	
209.00	-30.102	24.996	
210.00	-30.348	22.366	
211.00	-30.612	15.634	
212.00	-30.862	11.215	
213.00	-31.097	4.888	
214.00	-31.376	-1.105	
215.00	-31.644	-7.956	
216.00	-31.927	-15.267	
217.00	-32.196	-21.827	
218.00	-32.465	-28.236	
219.00	-32.722	-37.382	
220.00	-32.990	-42.801	
221.00	-33.280	-52.515	
222.00	-33.584	-60.459	
223.00	-33.856	-69.591	
224.00	-34.178	-77.538	
225.00	-34.528	-85.692	
226.00	-34.803	-97.119	
227.00	-35.105	-109.090	
228.00	-35.509	-116.540	
229.00	-35.794	-127.529	
230.00	-36.197	-137.040	
231.00	-36.510	-147.867	
232.00	-36.862	-157.487	
233.00	-37.210	-167.729	
234.00	-37.587	-177.599	
235.00	-37.951	168.723	
236.00	-38.303	160.854	
237.00	-38.932	147.131	
238.00	-39.388	136.529	
239.00	-39.936	124.952	
240.00	-40.610	111.096	
241.00	-41.215	98.382	
242.00	-41.682	81.909	
243.00	-42.357	69.242	
244.00	-42.887	53.478	
245.00	-43.226	38.294	
246.00	-43.616	23.655	
247.00	-44.039	8.257	
248.00	-44.250	-6.794	
249.00	-44.527	-19.145	
250.00	-44.751	-34.989	
251.00	-45.255	-49.242	
252.00	-45.783	-60.602	
253.00	-46.544	-73.758	
254.00	-47.400	-87.315	
255.00	-48.638	-101.658	
256.00	-49.694	-118.791	
257.00	-50.643	-137.104	
258.00	-51.790	-152.751	
259.00	-52.185	-178.569	
260.00	-52.696	161.995	
261.00	-53.358	140.907	
262.00	-53.868	125.675	
263.00	-53.794	108.248	
264.00	-53.980	90.895	
265.00	-54.902	71.847	
266.00	-55.252	54.394	
267.00	-56.535	36.743	
268.00	-57.536	16.415	
269.00	-57.342	-5.986	
270.00	-57.933	-23.597	
271.00	-57.449	-38.405	
272.00	-57.277	-53.598	
273.00	-58.369	-62.969	
274.00	-58.271	-72.582	
275.00	-60.291	-88.322	
276.00	-61.237	-90.906	
277.00	-65.818	-91.555	
278.00	-73.502	-105.607	
279.00	-90.095	-123.027	
280.00	-73.385	52.261	
281.00	-66.149	38.075	
282.00	-62.334	38.543	
283.00	-60.661	30.937	
284.00	-61.611	26.249	
285.00	-59.823	13.940	
286.00	-59.652	4.256	
287.00	-60.827	1.134	
288.00	-62.128	-16.256	
289.00	-62.017	-38.360	
290.00	-63.426	-48.136	
291.00	-64.834	-65.774	
292.00	-64.092	-94.016	
293.00	-64.942	-123.014	
294.00	-64.939	-131.873	
295.00	-64.022	-152.090	
296.00	-65.036	-165.283	
297.00	-64.514	-177.438	
298.00	-64.968	166.848	
299.00	-67.581	150.575	
300.00	-67.124	135.526	
301.00	-66.612	120.477	
302.00	-67.863	84.902	
303.00	-66.913	59.827	
304.00	-64.833	47.531	
305.00	-64.003	22.853	
306.00	-62.552	14.963	
307.00	-62.122	2.482	
308.00	-62.127	-6.502	
309.00	-61.815	-17.316	
310.00	-62.267	-22.149	
311.00	-62.447	-36.725	
312.00	-63.817	-40.164	
313.00	-66.245	-48.789	
314.00	-67.313	-66.259	
315.00	-68.197	-82.321	
316.00	-70.149	-94.950	
317.00	-71.520	-123.438	
318.00	-72.183	-171.512	
319.00	-69.255	-178.791	
320.00	-66.918	147.264	
321.00	-66.988	144.357	
322.00	-66.264	134.349	
323.00	-65.732	119.478	
324.00	-65.966	99.027	
325.00	-67.800	90.658	
326.00	-66.628	75.983	
327.00	-68.510	58.253	
328.00	-65.377	42.187	
329.00	-67.700	28.294	
330.00	-66.641	11.334	
331.00	-66.003	-1.285	
332.00	-63.807	-19.664	
333.00	-63.198	-25.657	
334.00	-65.179	-35.205	
335.00	-64.134	-57.007	
336.00	-64.616	-58.771	
337.00	-64.181	-66.947	
338.00	-64.629	-74.827	
339.00	-64.784	-80.547	
340.00	-64.050	-99.152	
341.00	-64.512	-111.398	
342.00	-64.220	-124.008	
343.00	-63.484	-139.336	
344.00	-63.354	-147.413	
345.00	-62.759	-160.834	
346.00	-62.969	-168.095	
347.00	-61.827	-177.167	
348.00	-61.484	174.946	
349.00	-61.114	171.286	
350.00	-60.925	165.548	
351.00	-60.334	160.470	
352.00	-60.322	158.459	
353.00	-59.795	147.510	
354.00	-60.483	145.944	
355.00	-60.059	145.825	
356.00	-61.752	146.636	
357.00	-60.441	148.281	
358.00	-61.498	147.374	
359.00	-62.973	146.115	
Frequency	2050.00	MHz	
Channel	test		
Scan Axis name	Azimuth  [deg]		
Scan Axis	Amplitude	Phase	
			
0.00	-57.827	-165.232	
1.00	-57.145	-168.937	
2.00	-56.450	-170.139	
3.00	-55.753	-172.747	
4.00	-56.040	-176.209	
5.00	-55.740	-176.606	
6.00	-56.033	-176.520	
7.00	-54.840	-177.541	
8.00	-55.430	-177.113	
9.00	-56.315	179.790	
10.00	-56.321	-179.213	
11.00	-56.710	-177.160	
12.00	-57.277	178.707	
13.00	-58.325	179.997	
14.00	-59.237	-176.510	
15.00	-60.865	-175.933	
16.00	-61.955	179.555	
17.00	-63.893	-177.090	
18.00	-65.323	-176.140	
19.00	-69.197	-175.827	
20.00	-72.052	177.267	
21.00	-77.599	152.899	
22.00	-77.794	107.011	
23.00	-73.884	32.030	
24.00	-71.733	40.296	
25.00	-69.836	41.003	
26.00	-67.537	52.619	
27.00	-66.253	68.193	
28.00	-63.829	81.676	
29.00	-64.861	65.853	
30.00	-64.973	84.959	
31.00	-63.481	79.872	
32.00	-63.429	97.211	
33.00	-63.358	106.778	
34.00	-64.000	103.165	
35.00	-65.297	143.253	
36.00	-65.814	155.410	
37.00	-62.068	138.810	
38.00	-63.772	158.651	
39.00	-65.613	163.466	
40.00	-63.692	-177.293	
41.00	-63.549	-159.141	
42.00	-61.668	-140.848	
43.00	-62.429	-141.929	
44.00	-62.298	-125.283	
45.00	-59.183	-131.600	
46.00	-61.097	-114.478	
47.00	-60.098	-101.316	
48.00	-59.802	-98.365	
49.00	-61.904	-100.363	
50.00	-60.741	-87.831	
51.00	-60.574	-91.237	
52.00	-62.969	-97.244	
53.00	-60.908	-84.723	
54.00	-60.574	-66.906	
55.00	-61.788	-102.081	
56.00	-75.210	-127.150	
57.00	-66.908	-57.232	
58.00	-76.537	-116.705	
59.00	-82.111	136.030	
60.00	-84.703	68.255	
61.00	-69.464	-168.438	
62.00	-66.068	145.757	
63.00	-63.859	143.312	
64.00	-64.220	143.974	
65.00	-65.076	155.189	
66.00	-63.543	170.039	
67.00	-62.655	151.459	
68.00	-62.249	171.774	
69.00	-65.525	137.635	
70.00	-79.889	-10.369	
71.00	-67.029	-171.605	
72.00	-66.381	-49.349	
73.00	-62.556	-5.638	
74.00	-61.053	-30.110	
75.00	-61.881	7.011	
76.00	-60.323	-5.064	
77.00	-59.764	22.772	
78.00	-58.093	23.210	
79.00	-57.854	34.254	
80.00	-58.463	56.698	
81.00	-57.863	67.893	
82.00	-58.647	79.449	
83.00	-59.296	90.687	
84.00	-58.742	90.112	
85.00	-59.921	126.863	
86.00	-58.796	139.729	
87.00	-59.126	148.949	
88.00	-59.162	-174.406	
89.00	-61.107	-162.807	
90.00	-59.757	-146.700	
91.00	-60.036	-136.710	
92.00	-58.966	-118.647	
93.00	-62.052	-91.938	
94.00	-59.722	-72.135	
95.00	-58.692	-45.858	
96.00	-57.059	-28.477	
97.00	-56.513	-5.311	
98.00	-55.809	7.683	
99.00	-55.255	25.065	
100.00	-53.888	49.202	
101.00	-53.442	72.705	
102.00	-53.138	78.927	
103.00	-52.508	99.076	
104.00	-52.351	110.736	
105.00	-51.474	130.685	
106.00	-50.542	144.866	
107.00	-49.680	161.150	
108.00	-48.911	177.297	
109.00	-48.650	-165.529	
110.00	-46.880	-148.857	
111.00	-47.383	-130.453	
112.00	-46.668	-115.919	
113.00	-46.295	-100.778	
114.00	-45.818	-85.153	
115.00	-45.143	-70.381	
116.00	-44.053	-51.734	
117.00	-43.988	-32.503	
118.00	-43.296	-19.407	
119.00	-42.661	-4.034	
120.00	-41.845	13.056	
121.00	-41.153	28.576	
122.00	-40.614	43.206	
123.00	-40.152	57.247	
124.00	-39.523	74.040	
125.00	-39.014	87.497	
126.00	-38.356	104.254	
127.00	-38.274	118.270	
128.00	-37.869	134.574	
129.00	-37.548	146.818	
130.00	-37.237	165.992	
131.00	-36.797	-179.214	
132.00	-36.372	-163.132	
133.00	-36.020	-148.176	
134.00	-35.730	-131.361	
135.00	-35.270	-118.488	
136.00	-34.959	-98.796	
137.00	-34.714	-88.730	
138.00	-34.352	-70.325	
139.00	-33.915	-57.369	
140.00	-33.496	-41.222	
141.00	-33.181	-30.485	
142.00	-32.793	-17.163	
143.00	-32.560	-2.665	
144.00	-32.205	10.962	
145.00	-31.917	23.534	
146.00	-31.680	36.117	
147.00	-31.420	49.298	
148.00	-31.150	61.674	
149.00	-30.898	76.856	
150.00	-30.686	85.534	
151.00	-30.447	98.733	
152.00	-30.232	107.291	
153.00	-30.015	120.946	
154.00	-29.802	131.628	
155.00	-29.605	142.828	
156.00	-29.449	152.179	
157.00	-29.275	161.595	
158.00	-29.144	173.967	
159.00	-28.994	-177.971	
160.00	-28.837	-167.696	
161.00	-28.703	-159.160	
162.00	-28.576	-151.458	
163.00	-28.447	-141.480	
164.00	-28.342	-133.754	
165.00	-28.198	-123.591	
166.00	-28.085	-115.956	
167.00	-27.951	-104.945	
168.00	-27.834	-97.973	
169.00	-27.692	-89.157	
170.00	-27.569	-83.865	
171.00	-27.450	-75.563	
172.00	-27.325	-67.195	
173.00	-27.209	-60.899	
174.00	-27.103	-55.966	
175.00	-26.978	-49.576	
176.00	-26.898	-44.414	
177.00	-26.762	-40.765	
178.00	-26.684	-33.199	
179.00	-26.608	-34.408	
180.00	-26.527	-28.528	
181.00	-26.482	-26.769	
182.00	-26.421	-22.243	
183.00	-26.394	-18.331	
184.00	-26.372	-15.656	
185.00	-26.375	-12.983	
186.00	-26.390	-9.134	
187.00	-26.420	-8.226	
188.00	-26.456	-5.261	
189.00	-26.532	-4.632	
190.00	-26.611	-4.862	
191.00	-26.688	-2.120	
192.00	-26.785	-4.070	
193.00	-26.893	-2.998	
194.00	-27.016	-1.196	
195.00	-27.142	-2.035	
196.00	-27.283	-3.379	
197.00	-27.429	-3.091	
198.00	-27.591	-7.400	
199.00	-27.757	-6.581	
200.00	-27.919	-10.627	
201.00	-28.095	-12.254	
202.00	-28.273	-15.312	
203.00	-28.454	-17.770	
204.00	-28.644	-21.264	
205.00	-28.812	-24.834	
206.00	-29.008	-31.145	
207.00	-29.212	-34.268	
208.00	-29.401	-39.552	
209.00	-29.639	-44.327	
210.00	-29.831	-47.371	
211.00	-30.057	-54.621	
212.00	-30.274	-59.444	
213.00	-30.482	-66.292	
214.00	-30.698	-72.914	
215.00	-30.933	-80.562	
216.00	-31.161	-88.329	
217.00	-31.424	-95.820	
218.00	-31.671	-103.052	
219.00	-31.937	-112.817	
220.00	-32.227	-118.852	
221.00	-32.516	-129.445	
222.00	-32.808	-138.509	
223.00	-33.074	-148.771	
224.00	-33.390	-157.957	
225.00	-33.681	-166.659	
226.00	-33.954	-179.703	
227.00	-34.202	167.198	
228.00	-34.448	158.433	
229.00	-34.718	147.005	
230.00	-35.033	137.120	
231.00	-35.327	125.326	
232.00	-35.625	115.053	
233.00	-35.983	103.868	
234.00	-36.399	93.767	
235.00	-36.820	79.576	
236.00	-37.254	70.925	
237.00	-37.806	56.411	
238.00	-38.360	44.623	
239.00	-38.864	32.292	
240.00	-39.425	18.102	
241.00	-39.925	5.662	
242.00	-40.482	-11.670	
243.00	-41.007	-24.089	
244.00	-41.650	-37.817	
245.00	-42.223	-52.424	
246.00	-42.805	-66.499	
247.00	-43.553	-81.084	
248.00	-44.360	-96.123	
249.00	-45.187	-109.697	
250.00	-45.967	-127.491	
251.00	-46.868	-145.129	
252.00	-47.811	-162.711	
253.00	-48.309	178.805	
254.00	-48.843	160.608	
255.00	-49.304	144.606	
256.00	-49.917	127.707	
257.00	-50.324	111.358	
258.00	-51.123	96.780	
259.00	-51.686	80.356	
260.00	-52.593	66.924	
261.00	-53.480	48.461	
262.00	-54.959	34.409	
263.00	-56.524	17.232	
264.00	-57.974	1.704	
265.00	-59.783	-18.905	
266.00	-61.370	-45.623	
267.00	-62.117	-73.288	
268.00	-63.429	-94.815	
269.00	-63.321	-119.095	
270.00	-62.785	-139.210	
271.00	-63.477	-158.155	
272.00	-63.844	-172.504	
273.00	-64.196	176.835	
274.00	-66.057	167.928	
275.00	-67.622	168.913	
276.00	-67.918	-179.656	
277.00	-71.801	-156.535	
278.00	-70.744	-133.941	
279.00	-71.257	-118.431	
280.00	-68.255	-121.286	
281.00	-65.993	-104.111	
282.00	-64.321	-105.226	
283.00	-64.038	-97.345	
284.00	-63.569	-95.820	
285.00	-65.721	-92.181	
286.00	-63.190	-76.468	
287.00	-63.330	-66.105	
288.00	-62.319	-55.102	
289.00	-61.841	-48.441	
290.00	-60.576	-39.925	
291.00	-59.485	-39.763	
292.00	-59.349	-40.195	
293.00	-58.393	-39.248	
294.00	-58.266	-41.691	
295.00	-58.140	-46.583	
296.00	-58.378	-54.334	
297.00	-58.482	-61.773	
298.00	-58.543	-65.353	
299.00	-59.374	-70.765	
300.00	-59.356	-76.005	
301.00	-60.344	-87.306	
302.00	-61.942	-90.858	
303.00	-63.858	-102.890	
304.00	-64.983	-105.206	
305.00	-66.039	-108.517	
306.00	-66.852	-97.428	
307.00	-66.231	-83.351	
308.00	-67.961	-55.751	
309.00	-66.512	-53.299	
310.00	-66.026	-45.983	
311.00	-62.195	-45.351	
312.00	-60.523	-48.033	
313.00	-58.531	-46.187	
314.00	-57.392	-49.284	
315.00	-56.837	-54.706	
316.00	-56.061	-55.589	
317.00	-55.322	-61.415	
318.00	-55.323	-63.276	
319.00	-55.168	-67.902	
320.00	-55.272	-75.492	
321.00	-55.572	-77.995	
322.00	-55.908	-84.139	
323.00	-56.701	-87.865	
324.00	-57.545	-93.127	
325.00	-59.162	-100.040	
326.00	-61.408	-101.736	
327.00	-63.526	-103.412	
328.00	-68.129	-99.866	
329.00	-74.286	-103.384	
330.00	-78.387	-2.617	
331.00	-68.496	54.145	
332.00	-65.098	49.295	
333.00	-60.770	54.176	
334.00	-59.327	53.296	
335.00	-57.717	47.764	
336.00	-56.699	46.179	
337.00	-56.060	42.385	
338.00	-55.944	39.913	
339.00	-55.413	37.011	
340.00	-55.290	34.843	
341.00	-55.319	32.270	
342.00	-54.839	32.097	
343.00	-55.668	29.778	
344.00	-55.862	26.415	
345.00	-56.717	20.644	
346.00	-57.402	17.628	
347.00	-59.163	9.442	
348.00	-60.856	9.499	
349.00	-62.276	-5.829	
350.00	-64.493	-7.067	
351.00	-66.548	-23.204	
352.00	-68.432	-59.183	
353.00	-68.698	-88.266	
354.00	-66.390	-118.963	
355.00	-64.943	-130.004	
356.00	-62.373	-135.374	
357.00	-60.239	-148.948	
358.00	-59.553	-153.806	
359.00	-58.774	-160.562	
Frequency	2170.00	MHz	
Channel	test		
Scan Axis name	Azimuth  [deg]		
Scan Axis	Amplitude	Phase	
			
0.00	-72.225	-49.306	
1.00	-73.474	-48.283	
2.00	-71.887	-57.991	
3.00	-75.348	-91.804	
4.00	-71.337	-98.044	
5.00	-71.223	-104.444	
6.00	-70.486	-113.839	
7.00	-73.386	-141.013	
8.00	-70.986	-140.200	
9.00	-69.986	-157.110	
10.00	-67.482	-161.816	
11.00	-68.003	-166.815	
12.00	-65.282	-167.467	
13.00	-67.586	177.038	
14.00	-67.597	178.956	
15.00	-63.997	177.684	
16.00	-63.540	174.499	
17.00	-62.773	174.984	
18.00	-62.338	178.569	
19.00	-62.507	-173.505	
20.00	-61.695	-172.368	
21.00	-62.775	-171.855	
22.00	-61.576	-167.935	
23.00	-61.340	-161.161	
24.00	-61.434	-161.254	
25.00	-60.284	-147.884	
26.00	-60.611	-148.827	
27.00	-60.234	-139.751	
28.00	-60.048	-132.296	
29.00	-60.055	-127.482	
30.00	-60.578	-117.327	
31.00	-60.767	-121.603	
32.00	-60.909	-109.940	
33.00	-61.820	-102.802	
34.00	-61.023	-96.836	
35.00	-61.485	-83.156	
36.00	-61.877	-84.809	
37.00	-63.018	-76.639	
38.00	-63.709	-74.352	
39.00	-64.092	-67.472	
40.00	-64.059	-66.282	
41.00	-64.146	-61.159	
42.00	-65.405	-72.565	
43.00	-65.276	-48.120	
44.00	-65.148	-51.864	
45.00	-65.383	-43.716	
46.00	-64.062	-46.093	
47.00	-64.425	-43.060	
48.00	-65.043	-37.719	
49.00	-64.338	-37.514	
50.00	-63.738	-36.407	
51.00	-65.419	-30.134	
52.00	-63.881	-31.403	
53.00	-61.002	-3.632	
54.00	-69.054	-45.164	
55.00	-65.400	-57.390	
56.00	-66.775	-9.479	
57.00	-72.304	-25.159	
58.00	-68.675	-19.881	
59.00	-68.616	-39.257	
60.00	-67.474	-50.529	
61.00	-64.977	-44.529	
62.00	-64.974	-40.040	
63.00	-66.301	-62.162	
64.00	-62.416	-35.726	
65.00	-64.187	-57.492	
66.00	-60.788	-4.642	
67.00	-60.120	-23.073	
68.00	-58.466	-1.131	
69.00	-63.996	-2.224	
70.00	-59.055	28.156	
71.00	-58.995	26.479	
72.00	-59.926	48.035	
73.00	-60.529	50.764	
74.00	-61.283	70.278	
75.00	-61.313	85.949	
76.00	-63.205	103.570	
77.00	-63.062	123.885	
78.00	-62.371	136.125	
79.00	-64.544	147.685	
80.00	-66.190	173.197	
81.00	-67.107	-155.021	
82.00	-69.955	-138.626	
83.00	-69.928	-98.616	
84.00	-69.513	-72.246	
85.00	-69.531	-26.893	
86.00	-66.188	13.118	
87.00	-63.506	27.236	
88.00	-60.778	50.248	
89.00	-59.540	68.282	
90.00	-57.857	76.644	
91.00	-57.155	87.267	
92.00	-55.526	102.847	
93.00	-54.793	114.026	
94.00	-54.691	123.789	
95.00	-53.927	134.710	
96.00	-53.837	147.606	
97.00	-53.279	162.467	
98.00	-53.458	-176.782	
99.00	-54.442	-161.474	
100.00	-53.975	-134.401	
101.00	-54.139	-112.130	
102.00	-53.396	-88.237	
103.00	-52.381	-69.577	
104.00	-51.640	-56.009	
105.00	-50.710	-33.908	
106.00	-49.226	-20.350	
107.00	-48.487	-2.269	
108.00	-47.838	12.652	
109.00	-46.812	30.918	
110.00	-46.199	46.252	
111.00	-45.942	61.720	
112.00	-45.294	79.365	
113.00	-44.568	94.368	
114.00	-44.352	112.591	
115.00	-43.917	128.460	
116.00	-43.578	144.378	
117.00	-43.280	162.198	
118.00	-43.014	178.206	
119.00	-42.647	-164.519	
120.00	-42.163	-146.032	
121.00	-41.853	-126.242	
122.00	-41.503	-108.046	
123.00	-40.952	-89.893	
124.00	-40.291	-70.870	
125.00	-39.681	-54.385	
126.00	-38.789	-34.310	
127.00	-38.416	-19.719	
128.00	-37.905	-0.872	
129.00	-37.211	11.545	
130.00	-36.806	32.102	
131.00	-36.175	47.712	
132.00	-35.735	64.416	
133.00	-35.477	79.313	
134.00	-35.152	96.590	
135.00	-34.746	111.039	
136.00	-34.376	129.323	
137.00	-34.161	140.748	
138.00	-33.859	160.492	
139.00	-33.500	174.536	
140.00	-33.125	-167.966	
141.00	-32.869	-156.277	
142.00	-32.521	-141.117	
143.00	-32.282	-125.914	
144.00	-31.952	-110.515	
145.00	-31.657	-97.701	
146.00	-31.348	-83.114	
147.00	-31.030	-68.954	
148.00	-30.746	-55.979	
149.00	-30.488	-39.704	
150.00	-30.306	-30.760	
151.00	-30.050	-16.512	
152.00	-29.884	-7.799	
153.00	-29.659	7.226	
154.00	-29.524	19.282	
155.00	-29.329	31.567	
156.00	-29.179	42.298	
157.00	-28.978	53.073	
158.00	-28.772	66.478	
159.00	-28.552	75.663	
160.00	-28.370	86.939	
161.00	-28.143	96.249	
162.00	-27.921	104.796	
163.00	-27.692	115.441	
164.00	-27.477	123.551	
165.00	-27.301	134.353	
166.00	-27.088	142.048	
167.00	-26.873	153.370	
168.00	-26.710	160.582	
169.00	-26.530	169.366	
170.00	-26.379	174.822	
171.00	-26.244	-176.904	
172.00	-26.106	-168.440	
173.00	-26.013	-161.959	
174.00	-25.909	-157.077	
175.00	-25.830	-150.464	
176.00	-25.761	-145.337	
177.00	-25.702	-141.551	
178.00	-25.665	-133.642	
179.00	-25.646	-134.734	
180.00	-25.625	-128.747	
181.00	-25.625	-126.498	
182.00	-25.636	-121.644	
183.00	-25.643	-117.138	
184.00	-25.664	-114.140	
185.00	-25.691	-111.216	
186.00	-25.733	-106.835	
187.00	-25.784	-105.643	
188.00	-25.842	-102.281	
189.00	-25.912	-101.482	
190.00	-25.985	-101.621	
191.00	-26.071	-98.375	
192.00	-26.157	-100.291	
193.00	-26.258	-99.004	
194.00	-26.367	-97.152	
195.00	-26.486	-97.753	
196.00	-26.619	-99.309	
197.00	-26.740	-98.796	
198.00	-26.880	-103.368	
199.00	-27.013	-102.607	
200.00	-27.173	-106.787	
201.00	-27.328	-108.716	
202.00	-27.496	-112.094	
203.00	-27.668	-114.804	
204.00	-27.858	-118.787	
205.00	-28.048	-122.873	
206.00	-28.238	-129.888	
207.00	-28.423	-133.565	
208.00	-28.623	-139.390	
209.00	-28.837	-144.988	
210.00	-29.057	-148.482	
211.00	-29.283	-156.349	
212.00	-29.499	-161.898	
213.00	-29.751	-169.651	
214.00	-30.002	-177.057	
215.00	-30.266	174.665	
216.00	-30.542	166.243	
217.00	-30.855	157.846	
218.00	-31.122	150.201	
219.00	-31.435	139.262	
220.00	-31.762	132.856	
221.00	-32.090	121.596	
222.00	-32.413	111.965	
223.00	-32.744	101.326	
224.00	-33.123	91.812	
225.00	-33.464	82.948	
226.00	-33.844	69.544	
227.00	-34.248	56.321	
228.00	-34.785	47.532	
229.00	-35.206	35.334	
230.00	-35.736	24.959	
231.00	-36.192	12.451	
232.00	-36.698	1.158	
233.00	-37.237	-11.296	
234.00	-37.707	-22.373	
235.00	-38.179	-38.450	
236.00	-38.693	-46.780	
237.00	-39.276	-61.993	
238.00	-39.843	-73.723	
239.00	-40.498	-85.592	
240.00	-41.147	-99.579	
241.00	-41.977	-111.215	
242.00	-42.792	-128.067	
243.00	-43.624	-140.801	
244.00	-44.511	-155.378	
245.00	-45.403	-171.794	
246.00	-46.217	172.343	
247.00	-46.890	155.869	
248.00	-47.532	138.923	
249.00	-48.121	127.752	
250.00	-48.525	110.711	
251.00	-49.301	97.857	
252.00	-50.039	85.718	
253.00	-50.860	74.021	
254.00	-51.855	64.289	
255.00	-52.946	54.307	
256.00	-54.413	43.906	
257.00	-55.784	33.150	
258.00	-57.938	25.318	
259.00	-58.775	13.461	
260.00	-60.452	4.920	
261.00	-62.210	-15.138	
262.00	-62.577	-28.445	
263.00	-63.729	-36.995	
264.00	-62.673	-58.188	
265.00	-64.039	-72.209	
266.00	-63.197	-89.324	
267.00	-62.079	-106.297	
268.00	-61.407	-114.039	
269.00	-61.265	-133.767	
270.00	-61.402	-148.885	
271.00	-60.690	-168.412	
272.00	-60.350	172.045	
273.00	-59.277	145.019	
274.00	-57.789	121.611	
275.00	-56.845	106.569	
276.00	-56.087	96.925	
277.00	-54.232	79.735	
278.00	-53.789	68.794	
279.00	-53.295	57.399	
280.00	-53.073	48.668	
281.00	-53.835	38.660	
282.00	-54.846	24.413	
283.00	-55.702	9.762	
284.00	-56.702	-7.761	
285.00	-59.721	-34.358	
286.00	-60.837	-66.568	
287.00	-60.613	-104.223	
288.00	-60.833	-128.547	
289.00	-59.359	-153.324	
290.00	-58.384	-170.811	
291.00	-57.885	168.189	
292.00	-57.489	146.251	
293.00	-56.646	132.672	
294.00	-56.907	110.755	
295.00	-56.319	95.732	
296.00	-55.999	79.553	
297.00	-56.036	63.503	
298.00	-56.043	48.951	
299.00	-55.921	32.619	
300.00	-56.068	14.950	
301.00	-57.003	-1.776	
302.00	-56.242	-20.581	
303.00	-56.555	-38.216	
304.00	-55.978	-51.184	
305.00	-55.808	-69.769	
306.00	-56.120	-81.275	
307.00	-56.228	-98.360	
308.00	-56.552	-109.643	
309.00	-57.097	-124.978	
310.00	-57.468	-133.262	
311.00	-58.430	-148.897	
312.00	-60.041	-162.637	
313.00	-60.868	-174.360	
314.00	-63.950	163.876	
315.00	-66.226	139.874	
316.00	-65.059	105.991	
317.00	-65.337	69.472	
318.00	-63.282	40.469	
319.00	-61.383	25.009	
320.00	-59.211	11.526	
321.00	-58.814	0.393	
322.00	-58.502	-5.457	
323.00	-58.464	-18.896	
324.00	-58.178	-26.124	
325.00	-58.812	-30.770	
326.00	-59.051	-40.557	
327.00	-59.517	-50.830	
328.00	-60.633	-68.345	
329.00	-62.290	-77.785	
330.00	-62.549	-98.198	
331.00	-62.329	-114.889	
332.00	-63.659	-128.978	
333.00	-64.171	-142.246	
334.00	-63.459	-154.008	
335.00	-62.882	-170.535	
336.00	-63.257	-177.918	
337.00	-64.068	162.962	
338.00	-64.028	160.366	
339.00	-64.292	143.070	
340.00	-64.274	124.715	
341.00	-64.189	113.546	
342.00	-63.433	101.231	
343.00	-62.387	93.144	
344.00	-62.211	81.992	
345.00	-61.685	78.097	
346.00	-61.754	69.303	
347.00	-61.712	73.080	
348.00	-63.038	63.487	
349.00	-61.772	71.018	
350.00	-63.510	67.056	
351.00	-65.113	72.474	
352.00	-64.923	67.174	
353.00	-66.619	60.410	
354.00	-67.687	69.787	
355.00	-71.401	58.920	
356.00	-73.225	45.536	
357.00	-80.386	-19.844	
358.00	-82.005	82.314	
359.00	-81.847	-18.662	
Frequency	2300.00	MHz	
Channel	test		
Scan Axis name	Azimuth  [deg]		
Scan Axis	Amplitude	Phase	
			
0.00	-65.537	-160.855	
1.00	-65.815	-161.575	
2.00	-67.515	-165.779	
3.00	-68.395	-173.897	
4.00	-67.918	-179.928	
5.00	-68.253	-174.658	
6.00	-70.364	-164.956	
7.00	-69.201	-168.943	
8.00	-69.035	-158.776	
9.00	-70.203	-172.095	
10.00	-70.541	-134.770	
11.00	-73.476	-153.572	
12.00	-69.072	-118.637	
13.00	-70.639	-123.404	
14.00	-67.602	-94.927	
15.00	-65.960	-102.634	
16.00	-66.807	-87.659	
17.00	-65.441	-89.342	
18.00	-66.362	-73.297	
19.00	-64.344	-61.621	
20.00	-63.433	-56.375	
21.00	-62.846	-34.118	
22.00	-61.287	-32.303	
23.00	-62.709	-37.281	
24.00	-62.536	-20.589	
25.00	-64.468	1.883	
26.00	-60.527	-11.778	
27.00	-61.359	-6.937	
28.00	-65.157	3.059	
29.00	-64.182	9.702	
30.00	-68.053	52.716	
31.00	-67.961	42.315	
32.00	-65.121	92.399	
33.00	-74.638	104.571	
34.00	-65.729	119.264	
35.00	-62.111	156.966	
36.00	-66.257	178.603	
37.00	-59.493	179.008	
38.00	-62.686	-169.733	
39.00	-58.291	-160.884	
40.00	-60.090	-157.946	
41.00	-57.028	-147.551	
42.00	-60.425	-145.054	
43.00	-57.649	-129.835	
44.00	-59.240	-125.635	
45.00	-59.841	-136.072	
46.00	-55.542	-111.797	
47.00	-57.632	-114.578	
48.00	-59.073	-117.409	
49.00	-59.548	-106.035	
50.00	-63.313	-105.454	
51.00	-59.980	-106.304	
52.00	-67.971	-130.595	
53.00	-69.483	-129.301	
54.00	-61.013	-86.102	
55.00	-69.911	-22.096	
56.00	-72.626	-122.492	
57.00	-70.436	-110.869	
58.00	-65.979	-139.629	
59.00	-61.530	-115.825	
60.00	-64.918	150.159	
61.00	-69.189	85.391	
62.00	-60.835	150.717	
63.00	-69.470	-137.585	
64.00	-67.468	-22.321	
65.00	-68.567	-164.658	
66.00	-67.730	-99.161	
67.00	-60.363	29.149	
68.00	-62.231	-79.531	
69.00	-81.883	18.231	
70.00	-72.490	-10.784	
71.00	-68.147	-110.525	
72.00	-68.401	-112.522	
73.00	-69.764	64.632	
74.00	-70.096	-92.037	
75.00	-70.409	-62.805	
76.00	-62.606	-164.587	
77.00	-65.629	-158.396	
78.00	-63.698	-63.293	
79.00	-84.673	-121.146	
80.00	-64.000	-81.900	
81.00	-61.987	-90.674	
82.00	-59.362	1.006	
83.00	-61.624	-31.084	
84.00	-59.167	5.933	
85.00	-60.097	-16.882	
86.00	-59.261	128.081	
87.00	-66.586	-23.976	
88.00	-60.914	34.453	
89.00	-69.391	156.437	
90.00	-66.884	55.135	
91.00	-62.925	-178.125	
92.00	-66.646	127.785	
93.00	-57.060	108.768	
94.00	-68.116	122.386	
95.00	-66.625	117.713	
96.00	-74.527	161.013	
97.00	-58.531	-171.277	
98.00	-67.430	174.586	
99.00	-66.213	-176.100	
100.00	-59.080	-89.370	
101.00	-64.447	-116.226	
102.00	-60.333	-69.483	
103.00	-63.935	-42.790	
104.00	-65.765	-64.129	
105.00	-67.899	-17.842	
106.00	-67.199	6.266	
107.00	-58.816	18.274	
108.00	-62.391	42.141	
109.00	-58.276	64.924	
110.00	-56.868	91.634	
111.00	-52.630	103.116	
112.00	-54.538	114.473	
113.00	-51.283	123.785	
114.00	-50.037	148.910	
115.00	-51.127	167.451	
116.00	-50.685	179.598	
117.00	-48.715	-147.645	
118.00	-48.577	-136.873	
119.00	-47.362	-122.672	
120.00	-46.422	-99.054	
121.00	-46.181	-84.132	
122.00	-45.777	-64.208	
123.00	-45.217	-49.102	
124.00	-44.555	-27.936	
125.00	-44.203	-12.451	
126.00	-43.000	7.676	
127.00	-43.042	24.735	
128.00	-42.066	47.611	
129.00	-41.731	60.757	
130.00	-40.979	85.819	
131.00	-40.527	100.897	
132.00	-39.911	120.329	
133.00	-39.206	137.443	
134.00	-38.871	156.210	
135.00	-38.148	170.119	
136.00	-37.859	-170.034	
137.00	-37.256	-156.276	
138.00	-37.036	-136.728	
139.00	-36.592	-123.495	
140.00	-36.214	-104.560	
141.00	-35.768	-91.840	
142.00	-35.549	-76.475	
143.00	-35.176	-59.975	
144.00	-34.779	-43.146	
145.00	-34.572	-28.618	
146.00	-34.123	-13.328	
147.00	-33.742	2.734	
148.00	-33.439	16.852	
149.00	-33.047	34.319	
150.00	-32.706	44.346	
151.00	-32.327	59.826	
152.00	-31.994	69.608	
153.00	-31.654	85.086	
154.00	-31.322	97.937	
155.00	-31.022	110.392	
156.00	-30.706	120.941	
157.00	-30.398	131.872	
158.00	-30.130	145.560	
159.00	-29.843	154.780	
160.00	-29.615	166.244	
161.00	-29.356	175.513	
162.00	-29.121	-176.058	
163.00	-28.869	-165.076	
164.00	-28.646	-156.743	
165.00	-28.412	-145.458	
166.00	-28.238	-137.838	
167.00	-28.017	-126.030	
168.00	-27.877	-118.765	
169.00	-27.705	-109.618	
170.00	-27.566	-103.973	
171.00	-27.458	-95.377	
172.00	-27.354	-86.430	
173.00	-27.260	-79.827	
174.00	-27.179	-74.591	
175.00	-27.129	-67.654	
176.00	-27.070	-62.134	
177.00	-27.007	-58.102	
178.00	-26.965	-49.642	
179.00	-26.933	-50.619	
180.00	-26.885	-44.420	
181.00	-26.863	-41.884	
182.00	-26.838	-36.997	
183.00	-26.819	-32.002	
184.00	-26.819	-28.982	
185.00	-26.836	-25.835	
186.00	-26.849	-21.543	
187.00	-26.894	-20.051	
188.00	-26.919	-17.078	
189.00	-26.988	-16.157	
190.00	-27.026	-16.634	
191.00	-27.098	-13.419	
192.00	-27.186	-15.520	
193.00	-27.277	-14.736	
194.00	-27.382	-13.012	
195.00	-27.481	-13.908	
196.00	-27.620	-15.875	
197.00	-27.726	-15.746	
198.00	-27.857	-20.936	
199.00	-27.997	-20.667	
200.00	-28.165	-24.947	
201.00	-28.321	-27.568	
202.00	-28.458	-31.513	
203.00	-28.663	-34.621	
204.00	-28.847	-38.941	
205.00	-29.092	-43.248	
206.00	-29.343	-50.751	
207.00	-29.581	-54.599	
208.00	-29.838	-60.680	
209.00	-30.148	-66.757	
210.00	-30.456	-70.043	
211.00	-30.794	-78.460	
212.00	-31.151	-84.396	
213.00	-31.531	-92.503	
214.00	-31.887	-100.211	
215.00	-32.359	-109.063	
216.00	-32.794	-117.996	
217.00	-33.263	-127.071	
218.00	-33.685	-135.080	
219.00	-34.202	-147.181	
220.00	-34.644	-154.014	
221.00	-35.143	-166.218	
222.00	-35.667	-176.431	
223.00	-36.094	171.549	
224.00	-36.629	161.058	
225.00	-37.090	151.020	
226.00	-37.570	136.265	
227.00	-37.975	121.860	
228.00	-38.639	112.280	
229.00	-39.095	98.983	
230.00	-39.533	87.970	
231.00	-40.022	74.251	
232.00	-40.486	62.900	
233.00	-41.103	49.856	
234.00	-41.686	38.595	
235.00	-42.203	22.498	
236.00	-42.761	12.499	
237.00	-43.436	-4.553	
238.00	-43.894	-17.775	
239.00	-44.631	-29.886	
240.00	-44.796	-47.541	
241.00	-45.292	-59.365	
242.00	-45.860	-77.774	
243.00	-46.347	-90.644	
244.00	-46.943	-104.134	
245.00	-47.542	-119.004	
246.00	-48.335	-131.652	
247.00	-48.889	-146.280	
248.00	-50.098	-161.533	
249.00	-51.056	-174.832	
250.00	-51.834	167.608	
251.00	-52.983	150.503	
252.00	-54.465	134.681	
253.00	-55.121	114.849	
254.00	-56.319	98.273	
255.00	-57.079	82.705	
256.00	-57.822	68.527	
257.00	-58.902	48.368	
258.00	-59.410	32.724	
259.00	-60.872	21.179	
260.00	-61.069	14.567	
261.00	-62.477	-6.610	
262.00	-64.034	-11.915	
263.00	-63.789	-20.733	
264.00	-65.082	-34.494	
265.00	-65.018	-48.964	
266.00	-65.773	-61.863	
267.00	-65.449	-74.308	
268.00	-65.249	-83.682	
269.00	-64.369	-99.761	
270.00	-64.056	-107.997	
271.00	-64.712	-118.299	
272.00	-63.180	-132.798	
273.00	-64.548	-136.975	
274.00	-64.743	-163.378	
275.00	-68.680	-171.949	
276.00	-71.096	131.702	
277.00	-66.144	76.212	
278.00	-64.395	57.754	
279.00	-61.614	40.021	
280.00	-59.657	26.148	
281.00	-58.757	9.347	
282.00	-58.293	-4.350	
283.00	-58.110	-16.691	
284.00	-58.661	-35.854	
285.00	-60.038	-61.511	
286.00	-61.399	-95.376	
287.00	-60.655	-123.419	
288.00	-59.339	-152.542	
289.00	-58.702	-168.982	
290.00	-57.822	161.872	
291.00	-56.967	150.400	
292.00	-55.719	123.093	
293.00	-55.483	112.092	
294.00	-55.225	95.796	
295.00	-55.160	80.960	
296.00	-55.616	64.803	
297.00	-56.463	47.812	
298.00	-56.162	29.313	
299.00	-56.020	10.481	
300.00	-55.985	-10.373	
301.00	-56.487	-29.214	
302.00	-56.857	-53.648	
303.00	-56.085	-75.182	
304.00	-56.011	-92.698	
305.00	-55.840	-116.196	
306.00	-56.061	-127.873	
307.00	-56.330	-150.046	
308.00	-56.244	-168.931	
309.00	-56.508	171.895	
310.00	-56.414	157.104	
311.00	-57.405	136.073	
312.00	-57.645	113.216	
313.00	-57.123	94.704	
314.00	-56.810	69.925	
315.00	-56.537	54.396	
316.00	-57.210	37.843	
317.00	-56.885	21.420	
318.00	-56.927	1.904	
319.00	-57.000	-11.276	
320.00	-57.000	-30.387	
321.00	-57.488	-40.594	
322.00	-58.213	-65.682	
323.00	-58.343	-77.311	
324.00	-59.178	-93.902	
325.00	-59.368	-111.845	
326.00	-59.337	-131.124	
327.00	-59.524	-146.508	
328.00	-59.500	-165.794	
329.00	-60.275	176.745	
330.00	-59.984	159.067	
331.00	-59.477	142.972	
332.00	-59.471	129.543	
333.00	-59.329	119.760	
334.00	-58.630	109.437	
335.00	-58.251	96.014	
336.00	-58.403	81.214	
337.00	-59.607	74.744	
338.00	-60.146	58.173	
339.00	-60.551	47.556	
340.00	-61.960	37.413	
341.00	-62.590	25.376	
342.00	-63.564	9.036	
343.00	-64.073	-14.118	
344.00	-64.659	-24.981	
345.00	-65.519	-47.718	
346.00	-64.615	-57.535	
347.00	-63.047	-67.766	
348.00	-64.049	-68.857	
349.00	-62.529	-87.056	
350.00	-62.521	-85.883	
351.00	-62.677	-91.050	
352.00	-63.491	-95.696	
353.00	-64.224	-103.019	
354.00	-63.669	-113.944	
355.00	-62.668	-118.779	
356.00	-63.093	-117.422	
357.00	-63.880	-125.009	
358.00	-64.369	-127.632	
359.00	-65.324	-131.644	
Frequency	2350.00	MHz	
Channel	test		
Scan Axis name	Azimuth  [deg]		
Scan Axis	Amplitude	Phase	
			
0.00	-65.660	-17.638	
1.00	-66.877	-20.433	
2.00	-67.516	-17.631	
3.00	-66.319	-10.895	
4.00	-66.762	-0.591	
5.00	-66.845	-0.575	
6.00	-66.328	6.670	
7.00	-66.723	9.012	
8.00	-66.895	19.665	
9.00	-67.955	28.756	
10.00	-67.594	38.007	
11.00	-67.728	51.608	
12.00	-69.371	54.585	
13.00	-69.502	45.591	
14.00	-69.530	63.413	
15.00	-69.974	88.611	
16.00	-70.595	96.392	
17.00	-66.325	95.597	
18.00	-68.170	112.444	
19.00	-66.986	135.181	
20.00	-64.991	115.340	
21.00	-64.970	102.664	
22.00	-62.032	130.069	
23.00	-62.190	121.690	
24.00	-63.115	122.934	
25.00	-60.309	134.359	
26.00	-61.870	130.258	
27.00	-60.694	156.618	
28.00	-59.970	149.776	
29.00	-60.797	163.000	
30.00	-64.559	156.286	
31.00	-61.328	-178.121	
32.00	-63.363	-164.907	
33.00	-62.234	-157.290	
34.00	-67.300	-163.213	
35.00	-63.161	-129.409	
36.00	-66.238	-158.409	
37.00	-63.900	-100.656	
38.00	-64.442	-86.333	
39.00	-67.007	-67.699	
40.00	-61.847	-72.099	
41.00	-63.387	-59.073	
42.00	-81.548	-49.453	
43.00	-67.991	-72.560	
44.00	-62.263	-90.563	
45.00	-60.553	-34.243	
46.00	-62.596	-40.497	
47.00	-61.157	-61.617	
48.00	-60.224	-53.553	
49.00	-66.817	-58.247	
50.00	-65.931	5.481	
51.00	-58.824	-43.559	
52.00	-68.292	26.351	
53.00	-60.456	17.353	
54.00	-56.702	-0.864	
55.00	-61.480	3.793	
56.00	-59.052	-10.410	
57.00	-58.783	-7.646	
58.00	-61.000	11.922	
59.00	-57.654	-6.101	
60.00	-59.981	19.209	
61.00	-60.268	85.847	
62.00	-63.533	75.897	
63.00	-58.458	56.641	
64.00	-58.310	86.439	
65.00	-65.163	-40.245	
66.00	-65.089	-178.481	
67.00	-67.655	132.039	
68.00	-74.950	112.856	
69.00	-72.146	-60.674	
70.00	-70.806	-49.821	
71.00	-58.162	-61.250	
72.00	-66.610	-71.154	
73.00	-61.061	-26.960	
74.00	-64.514	-40.439	
75.00	-60.935	-15.295	
76.00	-59.591	29.746	
77.00	-55.537	15.838	
78.00	-58.888	-7.321	
79.00	-56.187	27.063	
80.00	-57.077	18.003	
81.00	-62.526	42.467	
82.00	-59.181	74.370	
83.00	-58.631	117.604	
84.00	-56.457	127.660	
85.00	-60.483	-164.676	
86.00	-58.620	-161.208	
87.00	-57.093	-146.292	
88.00	-64.369	-88.546	
89.00	-62.386	-29.970	
90.00	-63.360	-66.027	
91.00	-59.188	-77.513	
92.00	-64.510	-50.944	
93.00	-56.570	-62.101	
94.00	-61.931	-30.136	
95.00	-56.450	-18.345	
96.00	-54.536	-20.408	
97.00	-59.434	19.608	
98.00	-56.325	17.670	
99.00	-57.440	43.716	
100.00	-58.600	60.966	
101.00	-60.273	48.786	
102.00	-59.547	28.540	
103.00	-60.674	65.779	
104.00	-62.760	95.720	
105.00	-57.677	97.586	
106.00	-58.662	108.641	
107.00	-60.620	124.801	
108.00	-59.502	-179.697	
109.00	-58.729	175.985	
110.00	-54.610	-151.140	
111.00	-54.475	-144.057	
112.00	-54.590	-115.764	
113.00	-53.301	-99.452	
114.00	-52.417	-93.920	
115.00	-52.429	-68.885	
116.00	-51.916	-55.205	
117.00	-49.680	-36.963	
118.00	-48.388	-20.925	
119.00	-48.083	4.797	
120.00	-48.461	26.405	
121.00	-47.330	39.565	
122.00	-46.564	58.870	
123.00	-45.278	82.378	
124.00	-44.572	100.084	
125.00	-43.898	118.933	
126.00	-42.968	137.665	
127.00	-42.590	153.667	
128.00	-42.111	174.169	
129.00	-41.484	-172.105	
130.00	-40.856	-148.580	
131.00	-40.339	-131.933	
132.00	-39.617	-111.241	
133.00	-39.165	-95.314	
134.00	-38.773	-75.303	
135.00	-38.214	-60.603	
136.00	-37.665	-40.391	
137.00	-37.403	-26.380	
138.00	-36.853	-5.390	
139.00	-36.327	10.352	
140.00	-35.874	29.496	
141.00	-35.452	42.605	
142.00	-34.969	58.497	
143.00	-34.477	75.086	
144.00	-34.016	91.106	
145.00	-33.626	104.931	
146.00	-33.248	120.437	
147.00	-32.855	136.361	
148.00	-32.483	150.179	
149.00	-32.136	167.768	
150.00	-31.788	177.732	
151.00	-31.477	-166.547	
152.00	-31.135	-156.990	
153.00	-30.765	-141.566	
154.00	-30.461	-128.399	
155.00	-30.141	-115.707	
156.00	-29.879	-104.999	
157.00	-29.582	-94.071	
158.00	-29.318	-80.700	
159.00	-29.085	-71.275	
160.00	-28.859	-59.722	
161.00	-28.632	-50.268	
162.00	-28.404	-41.832	
163.00	-28.224	-30.683	
164.00	-28.055	-22.129	
165.00	-27.886	-10.822	
166.00	-27.725	-2.740	
167.00	-27.577	9.318	
168.00	-27.426	17.023	
169.00	-27.299	26.262	
170.00	-27.177	32.342	
171.00	-27.045	41.055	
172.00	-26.946	50.199	
173.00	-26.868	57.062	
174.00	-26.775	62.347	
175.00	-26.710	69.474	
176.00	-26.656	75.064	
177.00	-26.615	78.707	
178.00	-26.572	87.153	
179.00	-26.572	86.164	
180.00	-26.556	91.920	
181.00	-26.564	94.430	
182.00	-26.576	99.220	
183.00	-26.595	104.178	
184.00	-26.632	107.095	
185.00	-26.663	110.023	
186.00	-26.689	114.272	
187.00	-26.752	115.704	
188.00	-26.818	118.599	
189.00	-26.877	119.586	
190.00	-26.941	118.946	
191.00	-27.016	121.987	
192.00	-27.095	119.847	
193.00	-27.176	120.593	
194.00	-27.282	122.092	
195.00	-27.382	121.277	
196.00	-27.509	119.036	
197.00	-27.624	118.963	
198.00	-27.791	113.675	
199.00	-27.947	113.698	
200.00	-28.117	109.237	
201.00	-28.348	106.464	
202.00	-28.537	102.418	
203.00	-28.777	98.919	
204.00	-29.025	94.384	
205.00	-29.288	89.666	
206.00	-29.565	82.067	
207.00	-29.852	77.755	
208.00	-30.173	71.214	
209.00	-30.481	64.864	
210.00	-30.807	61.102	
211.00	-31.143	52.545	
212.00	-31.499	46.410	
213.00	-31.887	37.746	
214.00	-32.282	29.869	
215.00	-32.687	20.931	
216.00	-33.084	12.152	
217.00	-33.536	2.602	
218.00	-34.026	-5.232	
219.00	-34.466	-17.062	
220.00	-34.969	-23.938	
221.00	-35.527	-36.022	
222.00	-36.000	-46.185	
223.00	-36.521	-58.245	
224.00	-37.011	-68.470	
225.00	-37.544	-78.688	
226.00	-38.118	-92.614	
227.00	-38.661	-106.850	
228.00	-39.105	-117.202	
229.00	-39.797	-130.113	
230.00	-40.403	-141.231	
231.00	-41.051	-154.606	
232.00	-41.738	-166.650	
233.00	-42.456	179.667	
234.00	-43.058	167.504	
235.00	-43.823	149.864	
236.00	-44.601	140.023	
237.00	-45.174	123.287	
238.00	-45.857	108.381	
239.00	-46.551	94.556	
240.00	-47.266	78.125	
241.00	-48.216	64.044	
242.00	-49.035	43.387	
243.00	-49.808	29.351	
244.00	-50.792	12.972	
245.00	-51.373	-4.523	
246.00	-52.305	-22.717	
247.00	-53.252	-39.171	
248.00	-54.044	-55.922	
249.00	-54.986	-69.400	
250.00	-56.548	-84.631	
251.00	-58.376	-99.689	
252.00	-60.811	-106.159	
253.00	-65.232	-115.901	
254.00	-73.204	-130.326	
255.00	-75.652	-4.647	
256.00	-67.491	1.246	
257.00	-62.423	-2.429	
258.00	-61.054	-11.548	
259.00	-60.455	-23.686	
260.00	-60.619	-34.240	
261.00	-62.280	-53.687	
262.00	-63.710	-81.366	
263.00	-64.883	-113.985	
264.00	-64.352	-153.276	
265.00	-62.184	169.731	
266.00	-60.295	148.727	
267.00	-58.754	130.168	
268.00	-57.802	117.969	
269.00	-57.644	100.552	
270.00	-57.580	86.006	
271.00	-58.088	68.941	
272.00	-59.064	47.312	
273.00	-60.585	28.859	
274.00	-61.656	-7.259	
275.00	-61.918	-40.919	
276.00	-60.965	-72.986	
277.00	-59.494	-100.930	
278.00	-58.661	-123.216	
279.00	-58.100	-149.600	
280.00	-56.915	-170.951	
281.00	-56.090	168.985	
282.00	-55.790	145.956	
283.00	-55.413	121.782	
284.00	-55.086	101.375	
285.00	-54.390	75.254	
286.00	-54.470	54.928	
287.00	-54.212	33.647	
288.00	-54.868	10.920	
289.00	-54.839	-7.784	
290.00	-54.788	-33.495	
291.00	-54.660	-53.863	
292.00	-54.186	-77.223	
293.00	-53.882	-95.795	
294.00	-53.317	-114.820	
295.00	-53.404	-132.172	
296.00	-53.706	-143.793	
297.00	-54.145	-163.144	
298.00	-54.841	177.997	
299.00	-55.938	158.862	
300.00	-56.349	134.925	
301.00	-56.784	108.387	
302.00	-56.847	83.616	
303.00	-56.125	58.364	
304.00	-55.878	38.326	
305.00	-55.421	19.032	
306.00	-55.304	-1.353	
307.00	-55.155	-24.844	
308.00	-55.631	-40.020	
309.00	-56.127	-59.722	
310.00	-56.051	-76.841	
311.00	-56.077	-101.650	
312.00	-56.466	-120.844	
313.00	-55.387	-144.163	
314.00	-54.755	-166.604	
315.00	-54.240	176.260	
316.00	-54.191	162.447	
317.00	-53.310	146.441	
318.00	-53.193	133.259	
319.00	-53.117	121.478	
320.00	-53.250	105.906	
321.00	-52.970	97.421	
322.00	-53.815	83.886	
323.00	-53.962	75.021	
324.00	-54.466	66.265	
325.00	-55.432	55.291	
326.00	-56.688	48.741	
327.00	-58.161	39.460	
328.00	-60.712	24.585	
329.00	-63.448	21.344	
330.00	-65.795	-0.369	
331.00	-71.418	-20.504	
332.00	-73.720	-70.219	
333.00	-70.462	-117.758	
334.00	-69.402	-143.481	
335.00	-67.952	-159.022	
336.00	-66.633	-175.245	
337.00	-65.959	-179.936	
338.00	-65.962	172.657	
339.00	-66.763	156.772	
340.00	-67.441	146.884	
341.00	-67.592	124.121	
342.00	-67.460	106.335	
343.00	-67.578	84.992	
344.00	-65.753	78.234	
345.00	-65.045	60.037	
346.00	-65.134	56.410	
347.00	-65.864	51.720	
348.00	-65.544	43.288	
349.00	-66.278	28.598	
350.00	-65.775	21.218	
351.00	-65.078	17.434	
352.00	-65.542	11.499	
353.00	-64.164	7.048	
354.00	-64.999	-3.470	
355.00	-63.845	-11.081	
356.00	-63.647	-19.497	
357.00	-64.508	-17.745	
358.00	-63.153	-20.092	
359.00	-64.756	-25.462	
Frequency	2400.00	MHz	
Channel	test		
Scan Axis name	Azimuth  [deg]		
Scan Axis	Amplitude	Phase	
			
0.00	-59.464	92.926	
1.00	-58.970	92.227	
2.00	-58.735	94.246	
3.00	-58.650	94.108	
4.00	-58.295	91.684	
5.00	-58.525	97.113	
6.00	-58.529	97.855	
7.00	-59.283	100.614	
8.00	-59.734	96.052	
9.00	-60.018	99.506	
10.00	-60.601	104.097	
11.00	-62.029	110.209	
12.00	-62.753	118.421	
13.00	-63.145	118.761	
14.00	-65.257	122.444	
15.00	-67.415	134.086	
16.00	-69.756	158.111	
17.00	-69.771	164.234	
18.00	-71.682	-172.167	
19.00	-70.575	-139.519	
20.00	-71.359	-138.550	
21.00	-71.407	-113.106	
22.00	-69.344	-112.482	
23.00	-70.696	-90.489	
24.00	-66.079	-103.082	
25.00	-66.995	-72.207	
26.00	-70.369	-65.060	
27.00	-69.865	-36.962	
28.00	-70.691	-41.968	
29.00	-70.427	-19.874	
30.00	-70.487	-16.263	
31.00	-73.131	-31.932	
32.00	-74.684	8.879	
33.00	-71.568	-3.204	
34.00	-77.607	25.233	
35.00	-68.150	40.523	
36.00	-69.796	-18.759	
37.00	-79.962	-55.664	
38.00	-74.776	40.305	
39.00	-67.970	-94.420	
40.00	-72.514	14.347	
41.00	-80.795	59.380	
42.00	-67.114	8.396	
43.00	-69.789	58.371	
44.00	-70.926	41.655	
45.00	-69.580	51.880	
46.00	-67.153	80.407	
47.00	-71.865	8.531	
48.00	-62.856	42.525	
49.00	-61.813	47.036	
50.00	-60.407	73.495	
51.00	-62.649	60.496	
52.00	-60.354	60.774	
53.00	-59.990	100.109	
54.00	-62.325	107.163	
55.00	-61.814	71.524	
56.00	-65.879	114.572	
57.00	-63.744	63.716	
58.00	-63.741	99.430	
59.00	-64.162	170.303	
60.00	-72.836	-152.755	
61.00	-72.929	150.272	
62.00	-69.606	-60.424	
63.00	-71.245	132.928	
64.00	-66.396	-83.449	
65.00	-75.675	-55.765	
66.00	-72.259	-83.592	
67.00	-62.394	-31.701	
68.00	-61.814	27.497	
69.00	-59.902	8.333	
70.00	-59.523	49.097	
71.00	-63.597	43.681	
72.00	-67.209	77.837	
73.00	-63.408	22.716	
74.00	-61.887	52.303	
75.00	-64.004	129.022	
76.00	-62.404	114.186	
77.00	-61.297	166.057	
78.00	-63.301	138.817	
79.00	-64.689	-130.109	
80.00	-68.335	173.621	
81.00	-63.400	-106.008	
82.00	-59.305	-107.867	
83.00	-59.066	-76.333	
84.00	-60.280	-108.387	
85.00	-62.976	-68.996	
86.00	-59.917	-29.330	
87.00	-57.709	-36.924	
88.00	-61.105	5.746	
89.00	-60.167	35.736	
90.00	-62.344	14.596	
91.00	-60.911	70.096	
92.00	-64.007	60.206	
93.00	-61.263	98.911	
94.00	-60.925	74.144	
95.00	-58.266	-178.187	
96.00	-59.023	-175.540	
97.00	-62.376	-179.075	
98.00	-60.365	-123.635	
99.00	-59.688	179.638	
100.00	-58.989	-93.982	
101.00	-63.448	-82.830	
102.00	-66.244	-85.070	
103.00	-64.705	-81.549	
104.00	-67.949	-111.850	
105.00	-90.742	13.637	
106.00	-67.037	-90.518	
107.00	-72.170	158.867	
108.00	-70.076	-14.442	
109.00	-70.389	-131.544	
110.00	-62.870	-73.749	
111.00	-62.997	-22.161	
112.00	-61.631	-33.869	
113.00	-60.992	21.228	
114.00	-58.351	25.591	
115.00	-56.228	47.439	
116.00	-56.999	56.990	
117.00	-55.328	85.688	
118.00	-54.212	104.288	
119.00	-51.716	108.258	
120.00	-53.053	143.455	
121.00	-52.740	159.205	
122.00	-51.021	-179.582	
123.00	-50.507	-148.688	
124.00	-50.302	-132.518	
125.00	-49.055	-106.620	
126.00	-47.200	-86.452	
127.00	-46.371	-68.443	
128.00	-45.419	-45.777	
129.00	-44.613	-32.445	
130.00	-43.800	-7.754	
131.00	-43.044	8.013	
132.00	-42.287	29.371	
133.00	-41.728	45.672	
134.00	-40.975	65.460	
135.00	-40.445	79.979	
136.00	-39.743	100.304	
137.00	-39.130	114.670	
138.00	-38.723	134.807	
139.00	-38.193	150.687	
140.00	-37.566	168.831	
141.00	-37.155	-177.404	
142.00	-36.679	-161.734	
143.00	-36.180	-144.630	
144.00	-35.647	-128.099	
145.00	-35.232	-113.816	
146.00	-34.808	-98.437	
147.00	-34.425	-82.510	
148.00	-33.992	-69.358	
149.00	-33.662	-51.261	
150.00	-33.324	-42.047	
151.00	-33.025	-26.038	
152.00	-32.712	-16.353	
153.00	-32.388	-0.992	
154.00	-32.134	12.334	
155.00	-31.851	25.427	
156.00	-31.565	36.525	
157.00	-31.286	47.923	
158.00	-31.052	61.654	
159.00	-30.813	71.399	
160.00	-30.570	83.384	
161.00	-30.329	93.200	
162.00	-30.113	101.762	
163.00	-29.914	113.138	
164.00	-29.725	121.860	
165.00	-29.537	133.728	
166.00	-29.347	141.846	
167.00	-29.187	154.071	
168.00	-29.034	162.023	
169.00	-28.889	171.297	
170.00	-28.782	177.738	
171.00	-28.674	-173.672	
172.00	-28.556	-164.129	
173.00	-28.508	-157.263	
174.00	-28.437	-151.999	
175.00	-28.356	-144.707	
176.00	-28.327	-139.032	
177.00	-28.280	-135.401	
178.00	-28.269	-126.822	
179.00	-28.286	-127.571	
180.00	-28.290	-121.736	
181.00	-28.294	-118.965	
182.00	-28.309	-114.239	
183.00	-28.337	-109.049	
184.00	-28.361	-106.128	
185.00	-28.414	-103.036	
186.00	-28.465	-98.824	
187.00	-28.517	-97.119	
188.00	-28.562	-94.253	
189.00	-28.653	-93.136	
190.00	-28.723	-93.839	
191.00	-28.816	-90.627	
192.00	-28.899	-92.671	
193.00	-29.018	-91.809	
194.00	-29.176	-90.490	
195.00	-29.307	-91.069	
196.00	-29.440	-93.372	
197.00	-29.614	-93.129	
198.00	-29.818	-98.748	
199.00	-30.015	-98.688	
200.00	-30.222	-102.889	
201.00	-30.484	-105.875	
202.00	-30.716	-109.826	
203.00	-30.998	-113.177	
204.00	-31.276	-117.854	
205.00	-31.542	-122.766	
206.00	-31.875	-130.200	
207.00	-32.155	-134.682	
208.00	-32.489	-141.050	
209.00	-32.823	-147.724	
210.00	-33.174	-151.489	
211.00	-33.518	-160.232	
212.00	-33.901	-166.472	
213.00	-34.246	-174.993	
214.00	-34.634	176.725	
215.00	-35.065	167.652	
216.00	-35.465	158.737	
217.00	-35.823	149.030	
218.00	-36.298	141.150	
219.00	-36.795	129.072	
220.00	-37.275	122.885	
221.00	-37.796	110.705	
222.00	-38.363	101.029	
223.00	-38.945	89.400	
224.00	-39.531	78.672	
225.00	-40.161	68.679	
226.00	-40.775	54.168	
227.00	-41.396	39.681	
228.00	-42.153	27.753	
229.00	-42.740	14.507	
230.00	-43.542	2.967	
231.00	-44.134	-10.816	
232.00	-44.790	-24.191	
233.00	-45.590	-38.616	
234.00	-46.414	-51.507	
235.00	-47.017	-70.590	
236.00	-47.808	-81.477	
237.00	-48.787	-99.796	
238.00	-49.600	-115.559	
239.00	-50.406	-129.936	
240.00	-51.348	-148.356	
241.00	-52.169	-163.564	
242.00	-53.285	174.655	
243.00	-54.235	156.023	
244.00	-55.622	136.103	
245.00	-56.526	112.210	
246.00	-57.860	90.892	
247.00	-58.499	69.224	
248.00	-60.119	46.778	
249.00	-61.069	14.943	
250.00	-62.066	-5.462	
251.00	-62.858	-35.818	
252.00	-63.877	-76.456	
253.00	-63.840	-107.628	
254.00	-62.984	-142.416	
255.00	-61.741	-171.675	
256.00	-59.978	164.938	
257.00	-59.870	141.985	
258.00	-58.806	127.531	
259.00	-58.450	101.587	
260.00	-57.859	77.443	
261.00	-57.668	52.679	
262.00	-57.432	35.990	
263.00	-57.184	11.904	
264.00	-57.190	-7.319	
265.00	-57.298	-29.700	
266.00	-57.615	-54.230	
267.00	-57.608	-77.618	
268.00	-57.584	-99.544	
269.00	-57.685	-125.433	
270.00	-56.907	-150.189	
271.00	-56.902	-173.450	
272.00	-56.133	165.379	
273.00	-55.914	145.925	
274.00	-56.013	123.051	
275.00	-56.045	103.149	
276.00	-56.089	85.882	
277.00	-56.878	57.270	
278.00	-57.663	33.257	
279.00	-58.280	8.245	
280.00	-58.613	-15.802	
281.00	-58.376	-41.312	
282.00	-57.856	-71.639	
283.00	-56.965	-97.884	
284.00	-56.746	-120.857	
285.00	-56.449	-148.615	
286.00	-56.548	-172.728	
287.00	-56.544	161.313	
288.00	-56.531	137.182	
289.00	-56.252	118.137	
290.00	-55.834	89.827	
291.00	-55.146	70.020	
292.00	-54.537	45.536	
293.00	-54.014	28.594	
294.00	-53.558	11.898	
295.00	-53.305	-5.786	
296.00	-53.501	-15.163	
297.00	-54.308	-32.897	
298.00	-55.499	-47.470	
299.00	-56.810	-69.584	
300.00	-58.202	-88.720	
301.00	-59.334	-116.245	
302.00	-59.620	-148.813	
303.00	-59.156	178.956	
304.00	-58.080	155.102	
305.00	-56.945	135.309	
306.00	-56.114	115.930	
307.00	-55.841	94.787	
308.00	-54.783	84.086	
309.00	-55.296	74.718	
310.00	-54.867	58.214	
311.00	-55.543	46.530	
312.00	-55.923	31.607	
313.00	-57.136	17.728	
314.00	-58.284	4.495	
315.00	-59.414	-18.816	
316.00	-60.775	-38.393	
317.00	-61.388	-70.586	
318.00	-60.857	-91.052	
319.00	-60.984	-109.100	
320.00	-60.170	-134.355	
321.00	-60.404	-149.831	
322.00	-59.578	-163.717	
323.00	-59.769	-171.357	
324.00	-59.564	173.850	
325.00	-60.934	163.648	
326.00	-61.161	150.665	
327.00	-62.139	136.628	
328.00	-63.198	116.035	
329.00	-63.144	107.332	
330.00	-63.404	84.828	
331.00	-63.173	81.664	
332.00	-62.872	65.078	
333.00	-63.203	56.411	
334.00	-62.567	49.621	
335.00	-63.010	43.321	
336.00	-62.871	35.126	
337.00	-64.040	24.364	
338.00	-64.519	20.511	
339.00	-64.840	17.223	
340.00	-64.825	8.482	
341.00	-66.918	6.139	
342.00	-67.707	13.968	
343.00	-68.485	3.885	
344.00	-69.243	7.829	
345.00	-72.008	3.373	
346.00	-72.047	16.501	
347.00	-74.412	38.185	
348.00	-73.370	31.153	
349.00	-74.694	48.317	
350.00	-72.512	82.894	
351.00	-69.839	91.187	
352.00	-68.306	107.595	
353.00	-66.707	102.821	
354.00	-65.122	101.430	
355.00	-64.310	100.173	
356.00	-63.257	103.721	
357.00	-61.682	104.337	
358.00	-61.648	105.253	
359.00	-60.951	98.201	
Frequency	2450.00	MHz	
Channel	test		
Scan Axis name	Azimuth  [deg]		
Scan Axis	Amplitude	Phase	
			
0.00	-66.657	77.953	
1.00	-67.920	75.949	
2.00	-68.641	80.696	
3.00	-69.522	51.133	
4.00	-69.582	51.187	
5.00	-71.359	40.602	
6.00	-71.201	27.208	
7.00	-73.118	11.868	
8.00	-69.665	1.834	
9.00	-67.484	-14.624	
10.00	-69.159	-21.110	
11.00	-67.142	-36.470	
12.00	-66.661	-39.020	
13.00	-65.681	-39.574	
14.00	-65.461	-40.937	
15.00	-65.650	-42.393	
16.00	-65.766	-45.464	
17.00	-67.396	-53.599	
18.00	-66.774	-45.261	
19.00	-66.181	-57.046	
20.00	-66.507	-61.239	
21.00	-64.697	-52.961	
22.00	-65.070	-56.005	
23.00	-63.213	-61.469	
24.00	-63.742	-48.255	
25.00	-62.235	-36.433	
26.00	-62.766	-25.647	
27.00	-62.422	-17.050	
28.00	-62.757	-2.703	
29.00	-62.724	-1.697	
30.00	-66.800	14.438	
31.00	-64.253	20.695	
32.00	-62.153	32.049	
33.00	-65.453	26.947	
34.00	-64.331	27.684	
35.00	-62.639	41.674	
36.00	-63.682	45.303	
37.00	-65.907	59.112	
38.00	-65.922	26.298	
39.00	-65.681	22.591	
40.00	-78.253	99.547	
41.00	-73.560	57.516	
42.00	-69.429	-36.933	
43.00	-77.294	45.139	
44.00	-68.650	-66.332	
45.00	-70.027	-10.909	
46.00	-67.268	-67.746	
47.00	-65.619	-64.214	
48.00	-67.748	-40.968	
49.00	-66.201	-48.632	
50.00	-63.543	-54.184	
51.00	-69.201	-58.143	
52.00	-79.498	-142.641	
53.00	-71.322	-96.309	
54.00	-65.781	-91.621	
55.00	-64.968	117.731	
56.00	-73.772	71.486	
57.00	-68.587	-177.048	
58.00	-65.680	-155.259	
59.00	-61.111	-159.256	
60.00	-59.440	-163.942	
61.00	-71.828	-91.853	
62.00	-60.260	-152.253	
63.00	-65.761	-73.361	
64.00	-66.724	-94.987	
65.00	-74.450	-127.199	
66.00	-67.831	-50.193	
67.00	-72.970	-149.693	
68.00	-79.404	115.317	
69.00	-59.918	37.530	
70.00	-66.472	26.625	
71.00	-65.707	84.193	
72.00	-67.353	138.840	
73.00	-61.242	164.415	
74.00	-61.480	143.024	
75.00	-59.710	-174.910	
76.00	-59.554	-127.322	
77.00	-66.787	167.135	
78.00	-60.752	-108.010	
79.00	-60.651	-157.216	
80.00	-64.298	-71.621	
81.00	-58.702	-39.365	
82.00	-58.774	-59.129	
83.00	-62.103	-45.532	
84.00	-67.667	45.593	
85.00	-62.443	31.986	
86.00	-62.388	66.410	
87.00	-59.828	74.538	
88.00	-59.817	66.300	
89.00	-58.603	140.314	
90.00	-60.351	137.322	
91.00	-62.597	170.269	
92.00	-77.319	-131.839	
93.00	-66.433	-93.207	
94.00	-69.005	-77.684	
95.00	-71.127	-33.634	
96.00	-67.520	58.264	
97.00	-58.288	8.735	
98.00	-64.848	23.599	
99.00	-64.291	26.362	
100.00	-61.045	81.880	
101.00	-62.485	83.251	
102.00	-59.496	146.463	
103.00	-58.540	141.439	
104.00	-59.208	136.746	
105.00	-58.071	-155.228	
106.00	-54.873	-154.330	
107.00	-59.657	-151.292	
108.00	-62.713	-97.616	
109.00	-60.024	-75.738	
110.00	-58.439	-80.758	
111.00	-62.163	-68.705	
112.00	-72.720	57.464	
113.00	-62.821	7.841	
114.00	-70.737	126.863	
115.00	-64.815	159.468	
116.00	-65.840	173.403	
117.00	-55.321	-153.590	
118.00	-56.620	-121.479	
119.00	-55.745	-112.086	
120.00	-53.998	-102.200	
121.00	-53.101	-77.284	
122.00	-52.638	-61.512	
123.00	-51.529	-35.995	
124.00	-51.499	-11.887	
125.00	-50.235	11.352	
126.00	-49.629	35.761	
127.00	-48.697	63.350	
128.00	-46.848	83.465	
129.00	-45.160	100.143	
130.00	-44.530	125.758	
131.00	-43.492	146.116	
132.00	-42.385	164.718	
133.00	-41.575	179.728	
134.00	-40.811	-159.908	
135.00	-40.031	-144.896	
136.00	-39.685	-124.453	
137.00	-39.033	-111.344	
138.00	-38.553	-91.568	
139.00	-38.018	-74.294	
140.00	-37.582	-56.926	
141.00	-37.120	-41.100	
142.00	-36.692	-25.244	
143.00	-36.281	-7.148	
144.00	-35.711	9.575	
145.00	-35.213	25.173	
146.00	-34.761	41.051	
147.00	-34.395	57.937	
148.00	-33.918	71.514	
149.00	-33.467	90.505	
150.00	-33.057	100.626	
151.00	-32.695	116.856	
152.00	-32.345	127.112	
153.00	-31.980	142.479	
154.00	-31.642	156.177	
155.00	-31.349	169.367	
156.00	-31.048	-179.470	
157.00	-30.778	-167.801	
158.00	-30.488	-154.035	
159.00	-30.245	-144.145	
160.00	-30.021	-131.844	
161.00	-29.809	-121.884	
162.00	-29.578	-113.201	
163.00	-29.410	-101.692	
164.00	-29.208	-92.534	
165.00	-29.015	-80.268	
166.00	-28.849	-72.039	
167.00	-28.691	-59.391	
168.00	-28.549	-51.124	
169.00	-28.408	-41.707	
170.00	-28.291	-34.771	
171.00	-28.178	-25.932	
172.00	-28.062	-16.144	
173.00	-27.961	-8.975	
174.00	-27.890	-3.357	
175.00	-27.806	4.364	
176.00	-27.737	10.212	
177.00	-27.704	13.980	
178.00	-27.646	22.916	
179.00	-27.632	22.517	
180.00	-27.597	28.074	
181.00	-27.587	31.113	
182.00	-27.591	35.749	
183.00	-27.621	41.168	
184.00	-27.671	44.215	
185.00	-27.725	47.189	
186.00	-27.775	51.222	
187.00	-27.839	53.241	
188.00	-27.930	55.728	
189.00	-28.016	56.945	
190.00	-28.121	56.222	
191.00	-28.233	59.520	
192.00	-28.364	57.236	
193.00	-28.500	58.250	
194.00	-28.652	59.510	
195.00	-28.806	59.011	
196.00	-28.985	56.642	
197.00	-29.158	56.753	
198.00	-29.349	51.192	
199.00	-29.547	51.240	
200.00	-29.759	47.085	
201.00	-30.002	44.017	
202.00	-30.239	40.144	
203.00	-30.493	36.925	
204.00	-30.777	32.578	
205.00	-31.052	27.900	
206.00	-31.348	20.451	
207.00	-31.655	16.388	
208.00	-32.011	10.208	
209.00	-32.392	3.671	
210.00	-32.780	0.490	
211.00	-33.166	-8.077	
212.00	-33.560	-14.445	
213.00	-34.037	-23.326	
214.00	-34.501	-31.400	
215.00	-35.004	-40.679	
216.00	-35.442	-49.933	
217.00	-35.975	-60.031	
218.00	-36.452	-67.975	
219.00	-36.930	-80.999	
220.00	-37.420	-87.949	
221.00	-37.942	-101.055	
222.00	-38.389	-111.451	
223.00	-38.889	-123.811	
224.00	-39.367	-134.977	
225.00	-39.963	-145.564	
226.00	-40.396	-160.275	
227.00	-41.037	-174.568	
228.00	-41.627	174.386	
229.00	-42.169	161.055	
230.00	-42.852	149.546	
231.00	-43.535	135.496	
232.00	-44.250	124.046	
233.00	-45.069	109.504	
234.00	-46.074	96.972	
235.00	-47.104	81.710	
236.00	-48.250	69.932	
237.00	-49.493	51.431	
238.00	-51.074	34.695	
239.00	-52.495	15.970	
240.00	-54.187	-6.833	
241.00	-55.578	-27.367	
242.00	-57.246	-61.287	
243.00	-57.683	-88.383	
244.00	-57.626	-113.746	
245.00	-57.337	-140.359	
246.00	-57.229	-159.653	
247.00	-58.180	176.675	
248.00	-58.479	154.684	
249.00	-59.848	128.684	
250.00	-60.905	95.817	
251.00	-60.754	63.495	
252.00	-60.345	32.428	
253.00	-59.090	-0.960	
254.00	-57.667	-26.361	
255.00	-55.995	-47.020	
256.00	-55.006	-68.216	
257.00	-54.402	-86.567	
258.00	-54.175	-104.059	
259.00	-53.961	-126.116	
260.00	-54.204	-145.106	
261.00	-54.444	-169.622	
262.00	-54.840	171.358	
263.00	-55.082	144.405	
264.00	-55.316	116.975	
265.00	-54.537	93.578	
266.00	-54.302	70.954	
267.00	-53.620	47.740	
268.00	-53.438	31.021	
269.00	-53.481	7.383	
270.00	-53.718	-10.449	
271.00	-53.814	-32.248	
272.00	-54.115	-55.279	
273.00	-54.276	-73.091	
274.00	-54.431	-93.333	
275.00	-54.758	-119.232	
276.00	-54.980	-146.845	
277.00	-55.287	-175.175	
278.00	-55.739	168.268	
279.00	-55.533	141.665	
280.00	-55.441	119.259	
281.00	-55.745	93.149	
282.00	-55.917	67.439	
283.00	-56.271	45.272	
284.00	-56.456	16.113	
285.00	-57.241	-15.784	
286.00	-57.042	-44.737	
287.00	-56.585	-79.172	
288.00	-55.982	-109.477	
289.00	-55.526	-123.787	
290.00	-54.090	-148.207	
291.00	-53.602	-162.636	
292.00	-53.757	177.989	
293.00	-53.600	163.018	
294.00	-54.607	145.877	
295.00	-55.335	126.641	
296.00	-56.964	107.026	
297.00	-57.104	76.154	
298.00	-58.024	54.854	
299.00	-57.718	25.053	
300.00	-56.680	9.363	
301.00	-56.034	-13.484	
302.00	-55.829	-28.629	
303.00	-56.979	-43.538	
304.00	-57.419	-61.805	
305.00	-59.412	-75.087	
306.00	-61.000	-95.195	
307.00	-62.464	-137.849	
308.00	-62.023	-171.895	
309.00	-61.907	165.468	
310.00	-61.657	148.859	
311.00	-61.349	130.460	
312.00	-62.096	121.437	
313.00	-63.747	103.655	
314.00	-67.576	95.962	
315.00	-70.314	73.488	
316.00	-73.674	20.999	
317.00	-71.075	-45.179	
318.00	-66.093	-67.898	
319.00	-65.982	-73.278	
320.00	-64.212	-107.286	
321.00	-65.304	-103.149	
322.00	-64.761	-124.701	
323.00	-65.886	-132.105	
324.00	-67.130	-142.490	
325.00	-67.206	-161.105	
326.00	-66.784	167.446	
327.00	-65.861	152.703	
328.00	-66.186	142.268	
329.00	-65.962	143.804	
330.00	-66.948	138.724	
331.00	-70.329	117.215	
332.00	-74.161	163.468	
333.00	-74.458	-166.176	
334.00	-77.460	-142.109	
335.00	-69.696	-120.747	
336.00	-66.388	-112.641	
337.00	-63.227	-116.577	
338.00	-61.809	-118.288	
339.00	-60.345	-124.568	
340.00	-59.785	-129.661	
341.00	-58.339	-136.965	
342.00	-58.534	-137.412	
343.00	-58.230	-142.224	
344.00	-58.458	-148.038	
345.00	-58.108	-159.455	
346.00	-58.523	-161.413	
347.00	-58.721	-165.049	
348.00	-60.193	-168.715	
349.00	-60.316	-177.853	
350.00	-62.150	174.489	
351.00	-62.625	165.725	
352.00	-63.747	155.263	
353.00	-65.756	143.705	
354.00	-65.723	137.455	
355.00	-65.265	123.844	
356.00	-66.560	111.328	
357.00	-65.813	100.513	
358.00	-66.876	93.096	
359.00	-65.828	87.574	
Frequency	2496.00	MHz	
Channel	test		
Scan Axis name	Azimuth  [deg]		
Scan Axis	Amplitude	Phase	
			
0.00	-64.049	-170.129	
1.00	-63.939	-178.984	
2.00	-64.477	-172.877	
3.00	-63.608	-169.121	
4.00	-64.456	-166.433	
5.00	-64.360	-168.761	
6.00	-65.125	-170.921	
7.00	-65.593	-153.691	
8.00	-65.426	-160.395	
9.00	-66.001	-166.323	
10.00	-66.803	-152.507	
11.00	-66.764	-148.726	
12.00	-67.739	-163.321	
13.00	-67.728	-168.212	
14.00	-69.908	-172.202	
15.00	-72.146	-169.632	
16.00	-77.244	152.497	
17.00	-80.530	-175.135	
18.00	-74.573	130.881	
19.00	-72.804	96.768	
20.00	-78.209	106.040	
21.00	-69.114	99.503	
22.00	-69.112	74.119	
23.00	-68.049	84.631	
24.00	-65.987	95.773	
25.00	-65.546	97.475	
26.00	-64.661	99.425	
27.00	-66.240	99.759	
28.00	-63.145	107.185	
29.00	-65.414	103.078	
30.00	-65.220	115.654	
31.00	-66.356	138.423	
32.00	-66.442	155.274	
33.00	-69.616	159.733	
34.00	-68.623	170.874	
35.00	-69.881	-176.189	
36.00	-67.172	-161.625	
37.00	-66.972	-141.304	
38.00	-72.674	-116.172	
39.00	-70.626	-95.114	
40.00	-82.049	2.368	
41.00	-71.865	-55.914	
42.00	-82.054	39.001	
43.00	-65.401	-5.411	
44.00	-68.592	19.270	
45.00	-63.515	36.408	
46.00	-65.320	57.418	
47.00	-65.456	63.448	
48.00	-63.837	75.796	
49.00	-64.573	99.640	
50.00	-63.285	103.115	
51.00	-65.492	111.087	
52.00	-65.175	139.228	
53.00	-66.577	128.332	
54.00	-64.647	-177.985	
55.00	-63.022	-127.008	
56.00	-64.328	-158.629	
57.00	-63.592	-127.303	
58.00	-64.138	-107.684	
59.00	-64.857	-74.021	
60.00	-64.104	-85.240	
61.00	-65.693	-67.073	
62.00	-71.609	-32.605	
63.00	-73.743	-71.909	
64.00	-75.067	29.142	
65.00	-79.805	10.599	
66.00	-65.545	42.194	
67.00	-64.394	178.652	
68.00	-61.037	174.585	
69.00	-62.437	-160.589	
70.00	-64.221	-156.815	
71.00	-62.350	-141.539	
72.00	-61.919	-124.567	
73.00	-60.396	-112.264	
74.00	-59.945	-89.284	
75.00	-60.304	-74.966	
76.00	-59.762	-53.314	
77.00	-61.031	-26.531	
78.00	-58.204	-16.776	
79.00	-59.880	3.863	
80.00	-59.818	33.879	
81.00	-62.320	53.183	
82.00	-60.945	77.605	
83.00	-60.549	119.084	
84.00	-60.252	125.684	
85.00	-62.284	155.440	
86.00	-62.727	-173.140	
87.00	-61.284	-166.090	
88.00	-59.606	-116.657	
89.00	-58.514	-96.808	
90.00	-58.304	-79.547	
91.00	-56.782	-49.655	
92.00	-56.882	-31.273	
93.00	-56.830	-11.432	
94.00	-55.499	8.200	
95.00	-55.068	20.818	
96.00	-55.199	56.396	
97.00	-56.191	75.519	
98.00	-55.607	106.223	
99.00	-57.233	123.902	
100.00	-56.490	167.493	
101.00	-57.129	-168.187	
102.00	-56.950	-149.579	
103.00	-56.174	-125.284	
104.00	-56.345	-100.868	
105.00	-56.338	-80.053	
106.00	-56.059	-48.727	
107.00	-56.922	-31.431	
108.00	-56.295	-8.745	
109.00	-55.833	18.525	
110.00	-55.854	27.823	
111.00	-56.015	57.111	
112.00	-56.411	78.025	
113.00	-60.630	108.891	
114.00	-62.440	130.223	
115.00	-62.389	165.679	
116.00	-64.325	-154.327	
117.00	-65.048	-99.931	
118.00	-63.498	-59.404	
119.00	-60.700	-27.428	
120.00	-59.255	-4.905	
121.00	-57.144	25.788	
122.00	-56.315	48.744	
123.00	-54.962	67.655	
124.00	-53.733	102.443	
125.00	-52.794	120.083	
126.00	-51.980	142.679	
127.00	-50.702	167.235	
128.00	-49.319	-167.586	
129.00	-47.917	-148.620	
130.00	-47.398	-123.474	
131.00	-46.442	-101.989	
132.00	-45.207	-79.082	
133.00	-44.264	-61.798	
134.00	-43.387	-39.044	
135.00	-42.439	-22.098	
136.00	-41.738	-2.674	
137.00	-40.700	12.765	
138.00	-39.910	34.889	
139.00	-39.465	51.343	
140.00	-38.784	70.285	
141.00	-38.232	84.580	
142.00	-37.639	99.926	
143.00	-37.110	118.642	
144.00	-36.629	135.262	
145.00	-36.347	149.983	
146.00	-35.612	166.757	
147.00	-35.235	-175.908	
148.00	-34.824	-162.326	
149.00	-34.369	-143.114	
150.00	-33.985	-133.059	
151.00	-33.558	-116.492	
152.00	-33.269	-106.075	
153.00	-32.856	-90.879	
154.00	-32.549	-76.405	
155.00	-32.214	-63.856	
156.00	-31.946	-51.912	
157.00	-31.686	-39.930	
158.00	-31.411	-25.981	
159.00	-31.204	-15.878	
160.00	-30.953	-3.330	
161.00	-30.754	6.846	
162.00	-30.548	16.021	
163.00	-30.372	27.799	
164.00	-30.205	37.561	
165.00	-30.038	49.947	
166.00	-29.864	58.708	
167.00	-29.715	71.528	
168.00	-29.618	80.475	
169.00	-29.437	90.188	
170.00	-29.337	97.811	
171.00	-29.204	106.554	
172.00	-29.063	117.155	
173.00	-28.985	124.486	
174.00	-28.855	130.528	
175.00	-28.728	138.726	
176.00	-28.686	145.052	
177.00	-28.578	148.751	
178.00	-28.488	157.977	
179.00	-28.433	157.798	
180.00	-28.377	163.417	
181.00	-28.346	166.748	
182.00	-28.363	171.309	
183.00	-28.358	176.935	
184.00	-28.370	179.771	
185.00	-28.429	-176.762	
186.00	-28.461	-172.834	
187.00	-28.518	-170.989	
188.00	-28.634	-168.251	
189.00	-28.687	-167.059	
190.00	-28.837	-167.978	
191.00	-28.916	-164.499	
192.00	-29.064	-166.742	
193.00	-29.209	-165.848	
194.00	-29.384	-164.821	
195.00	-29.551	-164.795	
196.00	-29.754	-167.392	
197.00	-29.945	-167.294	
198.00	-30.181	-172.651	
199.00	-30.412	-172.474	
200.00	-30.654	-176.757	
201.00	-30.875	179.958	
202.00	-31.182	176.279	
203.00	-31.401	172.945	
204.00	-31.715	168.763	
205.00	-32.012	163.836	
206.00	-32.291	156.251	
207.00	-32.614	151.919	
208.00	-32.995	145.788	
209.00	-33.286	139.277	
210.00	-33.689	136.160	
211.00	-34.064	127.917	
212.00	-34.558	121.824	
213.00	-34.966	113.367	
214.00	-35.433	105.109	
215.00	-35.997	95.793	
216.00	-36.497	87.082	
217.00	-37.047	76.700	
218.00	-37.584	68.779	
219.00	-38.013	55.154	
220.00	-38.584	48.587	
221.00	-39.162	35.090	
222.00	-39.650	24.303	
223.00	-40.236	12.629	
224.00	-40.764	0.230	
225.00	-41.474	-9.979	
226.00	-41.999	-24.339	
227.00	-42.616	-40.051	
228.00	-43.390	-50.448	
229.00	-44.410	-66.366	
230.00	-45.113	-77.865	
231.00	-45.971	-95.400	
232.00	-46.688	-108.751	
233.00	-47.749	-124.915	
234.00	-48.647	-140.204	
235.00	-49.802	-160.089	
236.00	-50.225	-174.299	
237.00	-51.630	164.609	
238.00	-52.262	142.388	
239.00	-53.380	127.389	
240.00	-54.080	103.197	
241.00	-55.562	81.611	
242.00	-56.153	61.636	
243.00	-57.922	32.578	
244.00	-58.900	9.278	
245.00	-58.792	-28.490	
246.00	-59.522	-54.996	
247.00	-58.370	-84.980	
248.00	-57.558	-112.633	
249.00	-57.081	-133.481	
250.00	-56.161	-155.668	
251.00	-56.283	-178.023	
252.00	-56.656	158.657	
253.00	-55.748	133.684	
254.00	-55.920	109.754	
255.00	-55.598	90.831	
256.00	-55.459	64.420	
257.00	-55.280	41.756	
258.00	-54.627	19.677	
259.00	-54.585	-2.817	
260.00	-53.986	-23.983	
261.00	-54.040	-48.402	
262.00	-54.205	-68.176	
263.00	-54.601	-90.778	
264.00	-55.216	-112.986	
265.00	-55.540	-137.971	
266.00	-55.952	-165.147	
267.00	-55.662	167.970	
268.00	-55.263	144.639	
269.00	-55.399	116.198	
270.00	-54.801	95.101	
271.00	-55.087	74.620	
272.00	-55.126	47.354	
273.00	-55.018	20.056	
274.00	-54.615	-4.845	
275.00	-53.962	-27.792	
276.00	-53.563	-52.830	
277.00	-53.164	-79.302	
278.00	-52.455	-98.469	
279.00	-52.271	-118.433	
280.00	-52.487	-137.191	
281.00	-52.636	-157.197	
282.00	-52.922	179.090	
283.00	-53.277	152.500	
284.00	-53.175	132.734	
285.00	-53.912	102.509	
286.00	-54.256	78.454	
287.00	-54.836	55.979	
288.00	-55.085	25.413	
289.00	-55.421	4.496	
290.00	-55.094	-22.387	
291.00	-55.308	-48.545	
292.00	-54.981	-73.779	
293.00	-55.542	-91.537	
294.00	-55.522	-116.011	
295.00	-55.762	-139.501	
296.00	-56.146	-156.757	
297.00	-55.954	179.211	
298.00	-56.060	157.617	
299.00	-56.433	135.719	
300.00	-56.273	109.030	
301.00	-56.652	86.393	
302.00	-56.548	65.636	
303.00	-57.116	48.511	
304.00	-56.826	23.240	
305.00	-58.067	0.528	
306.00	-58.023	-21.974	
307.00	-58.265	-52.541	
308.00	-58.163	-82.585	
309.00	-57.293	-104.508	
310.00	-57.111	-127.206	
311.00	-56.665	-136.084	
312.00	-55.776	-156.284	
313.00	-55.935	-166.293	
314.00	-57.489	179.780	
315.00	-57.781	160.568	
316.00	-57.762	141.227	
317.00	-59.962	124.619	
318.00	-61.960	98.306	
319.00	-63.096	74.106	
320.00	-61.063	31.520	
321.00	-62.179	21.055	
322.00	-61.637	-1.155	
323.00	-61.096	-12.700	
324.00	-59.487	-36.248	
325.00	-61.481	-48.769	
326.00	-59.740	-66.165	
327.00	-60.539	-84.852	
328.00	-59.727	-93.378	
329.00	-59.775	-99.214	
330.00	-62.288	-115.514	
331.00	-61.969	-124.555	
332.00	-62.448	-132.124	
333.00	-64.396	-142.147	
334.00	-65.751	-147.404	
335.00	-67.535	-138.728	
336.00	-70.882	-133.675	
337.00	-71.736	-106.968	
338.00	-71.167	-86.815	
339.00	-73.668	-84.568	
340.00	-73.176	-87.723	
341.00	-72.268	-53.719	
342.00	-69.537	-85.778	
343.00	-72.252	-79.152	
344.00	-69.584	-88.718	
345.00	-68.953	-99.342	
346.00	-67.066	-103.832	
347.00	-67.685	-110.371	
348.00	-66.611	-114.868	
349.00	-65.941	-119.884	
350.00	-64.828	-133.080	
351.00	-65.047	-137.114	
352.00	-65.385	-136.275	
353.00	-65.688	-147.581	
354.00	-65.408	-146.925	
355.00	-66.294	-155.978	
356.00	-65.131	-163.139	
357.00	-65.189	-163.032	
358.00	-65.245	-173.112	
359.00	-65.648	-178.701	
Frequency	2550.00	MHz	
Channel	test		
Scan Axis name	Azimuth  [deg]		
Scan Axis	Amplitude	Phase	
			
0.00	-71.363	-57.510	
1.00	-72.875	-38.610	
2.00	-74.285	-27.637	
3.00	-74.397	-25.748	
4.00	-78.717	-4.080	
5.00	-76.416	1.659	
6.00	-79.217	14.647	
7.00	-78.519	53.692	
8.00	-74.964	61.421	
9.00	-75.416	84.734	
10.00	-72.835	74.227	
11.00	-72.783	80.524	
12.00	-73.329	82.445	
13.00	-72.061	90.240	
14.00	-72.263	103.566	
15.00	-70.752	113.840	
16.00	-71.059	126.752	
17.00	-70.304	127.675	
18.00	-71.913	137.128	
19.00	-68.120	133.701	
20.00	-66.408	135.583	
21.00	-66.302	138.409	
22.00	-66.039	135.341	
23.00	-66.700	146.995	
24.00	-65.073	147.107	
25.00	-65.069	145.785	
26.00	-64.989	148.971	
27.00	-65.609	166.009	
28.00	-64.854	149.938	
29.00	-66.689	152.683	
30.00	-66.904	136.556	
31.00	-67.235	140.340	
32.00	-64.140	132.543	
33.00	-65.707	106.424	
34.00	-65.821	119.374	
35.00	-66.138	103.721	
36.00	-66.767	108.461	
37.00	-63.634	106.462	
38.00	-62.745	124.813	
39.00	-64.589	106.573	
40.00	-64.877	110.466	
41.00	-64.343	114.666	
42.00	-65.151	119.397	
43.00	-66.000	132.785	
44.00	-68.073	137.913	
45.00	-68.776	170.801	
46.00	-69.401	162.265	
47.00	-69.262	170.593	
48.00	-68.085	-110.738	
49.00	-73.593	-101.456	
50.00	-71.883	-70.559	
51.00	-71.513	-43.877	
52.00	-68.985	-10.259	
53.00	-68.453	-9.557	
54.00	-67.217	11.775	
55.00	-63.413	16.275	
56.00	-64.045	26.958	
57.00	-62.689	41.681	
58.00	-62.235	63.763	
59.00	-61.888	67.670	
60.00	-63.993	122.576	
61.00	-60.574	94.712	
62.00	-63.591	122.586	
63.00	-64.706	131.856	
64.00	-65.626	168.944	
65.00	-64.471	170.094	
66.00	-60.448	-158.982	
67.00	-63.065	-90.219	
68.00	-61.253	-88.832	
69.00	-64.670	-58.752	
70.00	-61.616	-42.722	
71.00	-61.177	-34.077	
72.00	-61.273	-4.322	
73.00	-58.610	-2.964	
74.00	-58.141	31.825	
75.00	-60.760	53.350	
76.00	-59.272	76.520	
77.00	-57.875	123.802	
78.00	-58.843	126.799	
79.00	-58.122	140.471	
80.00	-57.704	155.878	
81.00	-57.693	-179.838	
82.00	-56.922	-155.890	
83.00	-56.337	-138.939	
84.00	-56.199	-114.463	
85.00	-55.045	-88.934	
86.00	-56.205	-74.720	
87.00	-56.045	-56.944	
88.00	-57.999	-31.917	
89.00	-57.521	-1.453	
90.00	-58.938	13.193	
91.00	-56.737	59.476	
92.00	-56.741	73.487	
93.00	-56.332	111.979	
94.00	-54.106	137.640	
95.00	-54.369	146.675	
96.00	-53.963	175.133	
97.00	-54.053	-161.625	
98.00	-54.041	-139.682	
99.00	-53.714	-119.474	
100.00	-54.248	-86.172	
101.00	-54.323	-66.481	
102.00	-54.973	-39.781	
103.00	-55.285	-14.207	
104.00	-55.236	12.260	
105.00	-54.763	41.891	
106.00	-54.399	64.892	
107.00	-54.814	87.887	
108.00	-53.982	115.179	
109.00	-54.124	134.158	
110.00	-54.383	153.664	
111.00	-53.973	176.753	
112.00	-54.783	-156.895	
113.00	-54.624	-135.203	
114.00	-55.667	-110.164	
115.00	-56.328	-83.339	
116.00	-57.063	-58.429	
117.00	-57.690	-34.743	
118.00	-58.515	0.029	
119.00	-59.614	30.132	
120.00	-58.667	66.783	
121.00	-57.679	86.652	
122.00	-57.719	122.969	
123.00	-56.623	152.824	
124.00	-57.634	-176.283	
125.00	-57.185	-152.239	
126.00	-56.102	-112.201	
127.00	-55.746	-89.092	
128.00	-53.892	-55.239	
129.00	-52.825	-35.027	
130.00	-51.082	-2.481	
131.00	-49.554	20.129	
132.00	-48.411	46.168	
133.00	-47.164	65.240	
134.00	-46.194	87.962	
135.00	-44.891	105.577	
136.00	-43.790	128.152	
137.00	-43.286	145.571	
138.00	-42.206	163.846	
139.00	-41.552	-179.820	
140.00	-40.715	-161.170	
141.00	-40.249	-145.459	
142.00	-39.581	-128.310	
143.00	-39.146	-109.245	
144.00	-38.549	-92.701	
145.00	-38.041	-77.110	
146.00	-37.573	-60.410	
147.00	-37.053	-42.500	
148.00	-36.582	-28.478	
149.00	-36.207	-8.373	
150.00	-35.838	1.547	
151.00	-35.402	19.330	
152.00	-35.055	30.465	
153.00	-34.680	46.510	
154.00	-34.296	61.794	
155.00	-33.948	75.587	
156.00	-33.570	87.935	
157.00	-33.215	100.202	
158.00	-32.888	114.369	
159.00	-32.589	125.014	
160.00	-32.275	137.756	
161.00	-32.039	148.105	
162.00	-31.765	156.925	
163.00	-31.535	169.080	
164.00	-31.349	178.397	
165.00	-31.153	-168.562	
166.00	-30.993	-160.136	
167.00	-30.821	-146.870	
168.00	-30.649	-138.024	
169.00	-30.496	-128.299	
170.00	-30.360	-120.639	
171.00	-30.220	-111.658	
172.00	-30.103	-101.256	
173.00	-29.978	-93.767	
174.00	-29.889	-87.754	
175.00	-29.793	-79.466	
176.00	-29.715	-73.074	
177.00	-29.637	-69.285	
178.00	-29.588	-60.000	
179.00	-29.555	-59.863	
180.00	-29.488	-54.419	
181.00	-29.462	-50.782	
182.00	-29.464	-46.250	
183.00	-29.469	-40.211	
184.00	-29.486	-37.058	
185.00	-29.526	-33.764	
186.00	-29.571	-29.728	
187.00	-29.639	-27.265	
188.00	-29.725	-24.871	
189.00	-29.817	-23.117	
190.00	-29.939	-24.110	
191.00	-30.067	-20.633	
192.00	-30.208	-22.570	
193.00	-30.365	-21.514	
194.00	-30.527	-20.517	
195.00	-30.687	-20.705	
196.00	-30.877	-23.080	
197.00	-31.093	-22.894	
198.00	-31.307	-28.579	
199.00	-31.525	-28.643	
200.00	-31.773	-32.509	
201.00	-32.025	-36.113	
202.00	-32.297	-40.074	
203.00	-32.574	-43.500	
204.00	-32.861	-48.163	
205.00	-33.177	-53.276	
206.00	-33.499	-61.072	
207.00	-33.799	-65.631	
208.00	-34.160	-72.069	
209.00	-34.543	-79.223	
210.00	-34.909	-82.842	
211.00	-35.287	-91.372	
212.00	-35.696	-98.073	
213.00	-36.096	-107.217	
214.00	-36.564	-115.448	
215.00	-37.021	-124.659	
216.00	-37.517	-133.341	
217.00	-38.011	-143.392	
218.00	-38.499	-151.578	
219.00	-39.112	-164.335	
220.00	-39.640	-170.951	
221.00	-40.275	175.871	
222.00	-40.889	165.563	
223.00	-41.619	153.709	
224.00	-42.356	141.319	
225.00	-43.025	130.359	
226.00	-43.798	115.577	
227.00	-44.564	98.599	
228.00	-45.294	86.505	
229.00	-46.153	71.308	
230.00	-47.001	58.025	
231.00	-47.747	42.968	
232.00	-48.735	29.211	
233.00	-49.617	10.870	
234.00	-50.481	-4.516	
235.00	-51.549	-23.715	
236.00	-52.794	-39.245	
237.00	-53.438	-60.603	
238.00	-54.829	-82.454	
239.00	-56.546	-102.654	
240.00	-55.858	-124.558	
241.00	-58.077	-148.187	
242.00	-59.320	-175.993	
243.00	-59.786	151.648	
244.00	-61.277	128.187	
245.00	-60.434	93.341	
246.00	-61.042	62.626	
247.00	-60.011	31.131	
248.00	-57.872	2.599	
249.00	-57.715	-20.959	
250.00	-56.525	-43.292	
251.00	-56.181	-67.762	
252.00	-55.586	-85.199	
253.00	-55.082	-102.717	
254.00	-55.257	-122.835	
255.00	-55.461	-143.474	
256.00	-56.419	-169.531	
257.00	-56.411	165.155	
258.00	-56.376	138.960	
259.00	-55.947	108.100	
260.00	-55.546	81.936	
261.00	-54.569	52.975	
262.00	-54.036	37.603	
263.00	-53.171	12.317	
264.00	-52.585	-8.005	
265.00	-52.457	-26.907	
266.00	-52.010	-47.661	
267.00	-52.507	-69.808	
268.00	-52.703	-87.316	
269.00	-52.685	-112.604	
270.00	-53.281	-132.421	
271.00	-53.684	-154.364	
272.00	-54.271	-178.789	
273.00	-54.497	155.978	
274.00	-54.918	129.714	
275.00	-55.075	105.941	
276.00	-54.821	79.875	
277.00	-54.714	47.966	
278.00	-54.978	26.769	
279.00	-54.757	-0.224	
280.00	-54.713	-23.038	
281.00	-54.893	-46.655	
282.00	-54.633	-71.573	
283.00	-54.167	-102.852	
284.00	-54.484	-126.845	
285.00	-53.963	-159.346	
286.00	-53.978	176.583	
287.00	-53.384	150.442	
288.00	-53.098	130.317	
289.00	-53.033	115.025	
290.00	-53.424	94.278	
291.00	-53.852	77.289	
292.00	-54.869	49.716	
293.00	-56.399	30.396	
294.00	-57.415	-2.943	
295.00	-57.636	-38.668	
296.00	-58.189	-62.294	
297.00	-57.085	-86.942	
298.00	-55.919	-112.045	
299.00	-55.680	-134.079	
300.00	-54.934	-148.665	
301.00	-55.007	-168.797	
302.00	-54.626	172.139	
303.00	-55.163	154.716	
304.00	-55.637	138.965	
305.00	-55.966	114.174	
306.00	-57.142	100.904	
307.00	-57.714	74.983	
308.00	-59.785	56.566	
309.00	-60.541	35.111	
310.00	-62.139	8.550	
311.00	-62.997	-11.383	
312.00	-64.750	-51.420	
313.00	-66.530	-82.478	
314.00	-66.551	-113.422	
315.00	-65.264	-152.185	
316.00	-63.615	-176.970	
317.00	-62.863	160.398	
318.00	-60.793	136.847	
319.00	-60.468	114.550	
320.00	-59.564	98.065	
321.00	-58.858	88.359	
322.00	-58.608	69.548	
323.00	-59.116	63.592	
324.00	-60.278	49.430	
325.00	-60.855	24.761	
326.00	-60.986	8.768	
327.00	-62.241	-16.591	
328.00	-61.717	-32.808	
329.00	-61.674	-48.189	
330.00	-61.596	-66.038	
331.00	-62.256	-81.068	
332.00	-63.255	-92.345	
333.00	-63.449	-111.108	
334.00	-65.283	-118.204	
335.00	-66.858	-140.984	
336.00	-67.485	-161.243	
337.00	-68.915	163.274	
338.00	-67.202	138.591	
339.00	-68.351	117.522	
340.00	-67.128	103.011	
341.00	-65.244	85.122	
342.00	-64.044	73.009	
343.00	-63.882	62.119	
344.00	-63.420	55.109	
345.00	-63.738	42.500	
346.00	-63.660	38.261	
347.00	-64.653	29.211	
348.00	-65.411	31.432	
349.00	-65.801	10.430	
350.00	-67.158	-1.518	
351.00	-66.746	-12.305	
352.00	-67.805	-28.064	
353.00	-68.807	-37.784	
354.00	-68.867	-46.086	
355.00	-68.149	-52.336	
356.00	-68.412	-45.029	
357.00	-68.751	-57.188	
358.00	-69.856	-50.816	
359.00	-69.012	-59.919	
Frequency	2600.00	MHz	
Channel	test		
Scan Axis name	Azimuth  [deg]		
Scan Axis	Amplitude	Phase	
			
0.00	-67.370	94.513	
1.00	-69.974	100.837	
2.00	-71.039	94.386	
3.00	-73.234	98.513	
4.00	-75.143	103.955	
5.00	-75.934	136.836	
6.00	-82.278	133.314	
7.00	-77.647	-158.830	
8.00	-77.683	-156.819	
9.00	-75.126	-135.543	
10.00	-74.858	-154.726	
11.00	-70.886	-134.290	
12.00	-70.474	-131.597	
13.00	-71.127	-158.459	
14.00	-72.150	-156.499	
15.00	-70.954	-151.262	
16.00	-71.738	-165.013	
17.00	-71.572	-171.868	
18.00	-71.564	-162.683	
19.00	-73.451	-174.722	
20.00	-76.690	-171.456	
21.00	-79.134	-133.229	
22.00	-78.202	-142.700	
23.00	-77.279	-114.160	
24.00	-73.385	-69.130	
25.00	-71.406	-58.905	
26.00	-67.611	-45.951	
27.00	-67.648	-40.748	
28.00	-67.313	-36.222	
29.00	-64.775	-36.155	
30.00	-64.220	-37.649	
31.00	-64.234	-24.847	
32.00	-63.878	-27.165	
33.00	-63.094	-21.983	
34.00	-63.727	-19.637	
35.00	-64.304	-7.841	
36.00	-63.587	-2.736	
37.00	-64.597	2.494	
38.00	-64.396	6.680	
39.00	-66.975	14.003	
40.00	-67.536	21.376	
41.00	-71.254	28.291	
42.00	-73.942	32.340	
43.00	-78.578	98.087	
44.00	-76.027	179.060	
45.00	-69.156	-160.937	
46.00	-67.393	-154.993	
47.00	-65.188	-141.427	
48.00	-64.460	-129.154	
49.00	-64.092	-118.215	
50.00	-63.715	-109.723	
51.00	-63.371	-99.457	
52.00	-63.751	-85.905	
53.00	-63.080	-77.376	
54.00	-64.883	-69.390	
55.00	-65.627	-64.397	
56.00	-68.838	-53.773	
57.00	-71.955	-37.389	
58.00	-78.366	4.145	
59.00	-79.816	112.200	
60.00	-72.515	115.186	
61.00	-71.284	130.287	
62.00	-69.431	148.247	
63.00	-69.108	164.653	
64.00	-72.248	171.883	
65.00	-74.377	-151.256	
66.00	-77.665	-121.134	
67.00	-77.712	-64.739	
68.00	-74.059	-23.423	
69.00	-72.766	-18.808	
70.00	-69.845	6.651	
71.00	-72.801	30.865	
72.00	-73.632	55.963	
73.00	-74.710	86.087	
74.00	-74.266	138.606	
75.00	-70.825	174.213	
76.00	-69.931	-163.400	
77.00	-69.764	-136.477	
78.00	-66.784	-104.244	
79.00	-66.272	-85.164	
80.00	-63.703	-35.393	
81.00	-61.957	-21.667	
82.00	-59.469	0.871	
83.00	-58.207	17.186	
84.00	-56.622	36.755	
85.00	-55.926	53.568	
86.00	-55.395	73.127	
87.00	-55.263	88.848	
88.00	-55.433	108.661	
89.00	-55.358	135.306	
90.00	-56.112	159.724	
91.00	-55.439	-170.560	
92.00	-54.615	-149.816	
93.00	-53.914	-123.950	
94.00	-53.616	-102.183	
95.00	-52.959	-77.705	
96.00	-52.547	-57.647	
97.00	-51.857	-36.503	
98.00	-51.983	-10.836	
99.00	-51.833	10.504	
100.00	-51.849	43.282	
101.00	-52.036	68.899	
102.00	-52.193	94.330	
103.00	-51.880	115.981	
104.00	-51.819	144.512	
105.00	-51.569	165.555	
106.00	-51.268	-168.389	
107.00	-50.879	-147.870	
108.00	-50.546	-125.746	
109.00	-50.018	-101.138	
110.00	-50.154	-80.137	
111.00	-50.048	-60.483	
112.00	-50.245	-36.765	
113.00	-50.564	-14.962	
114.00	-50.869	6.008	
115.00	-51.496	28.370	
116.00	-52.265	47.322	
117.00	-53.090	71.732	
118.00	-53.905	94.627	
119.00	-55.276	123.109	
120.00	-55.941	147.825	
121.00	-56.885	174.049	
122.00	-58.508	-154.908	
123.00	-59.383	-130.095	
124.00	-62.095	-96.888	
125.00	-64.572	-45.691	
126.00	-63.762	14.038	
127.00	-59.471	54.745	
128.00	-56.780	90.655	
129.00	-54.294	108.639	
130.00	-52.110	135.734	
131.00	-50.554	158.071	
132.00	-49.076	-178.609	
133.00	-47.897	-159.334	
134.00	-46.711	-136.929	
135.00	-45.671	-118.582	
136.00	-44.452	-94.127	
137.00	-43.471	-77.570	
138.00	-42.421	-56.350	
139.00	-41.473	-39.254	
140.00	-40.664	-21.087	
141.00	-39.829	-5.522	
142.00	-39.155	10.505	
143.00	-38.591	28.155	
144.00	-38.007	44.719	
145.00	-37.575	60.348	
146.00	-37.113	76.794	
147.00	-36.696	95.207	
148.00	-36.304	109.339	
149.00	-35.907	129.563	
150.00	-35.565	140.653	
151.00	-35.199	158.362	
152.00	-34.855	170.078	
153.00	-34.516	-173.938	
154.00	-34.163	-157.873	
155.00	-33.805	-143.939	
156.00	-33.485	-130.965	
157.00	-33.172	-118.094	
158.00	-32.823	-103.803	
159.00	-32.527	-92.418	
160.00	-32.238	-79.191	
161.00	-31.997	-68.198	
162.00	-31.747	-58.908	
163.00	-31.502	-46.203	
164.00	-31.296	-36.409	
165.00	-31.080	-22.956	
166.00	-30.848	-14.082	
167.00	-30.662	-0.656	
168.00	-30.483	8.714	
169.00	-30.306	18.445	
170.00	-30.129	26.494	
171.00	-29.977	35.587	
172.00	-29.804	46.147	
173.00	-29.680	53.684	
174.00	-29.579	59.830	
175.00	-29.463	68.102	
176.00	-29.387	74.585	
177.00	-29.301	78.315	
178.00	-29.243	87.506	
179.00	-29.225	87.926	
180.00	-29.162	93.224	
181.00	-29.137	97.181	
182.00	-29.114	101.517	
183.00	-29.128	107.824	
184.00	-29.149	111.126	
185.00	-29.172	114.484	
186.00	-29.218	118.548	
187.00	-29.266	121.447	
188.00	-29.350	123.682	
189.00	-29.424	125.584	
190.00	-29.528	124.579	
191.00	-29.629	128.215	
192.00	-29.738	126.380	
193.00	-29.883	127.400	
194.00	-30.037	128.352	
195.00	-30.191	128.627	
196.00	-30.353	126.015	
197.00	-30.562	126.356	
198.00	-30.766	120.768	
199.00	-31.025	120.441	
200.00	-31.273	117.029	
201.00	-31.523	113.143	
202.00	-31.805	109.609	
203.00	-32.121	106.093	
204.00	-32.440	101.198	
205.00	-32.773	96.242	
206.00	-33.139	88.487	
207.00	-33.495	83.672	
208.00	-33.913	77.161	
209.00	-34.332	69.931	
210.00	-34.766	66.281	
211.00	-35.194	57.199	
212.00	-35.662	50.083	
213.00	-36.107	40.714	
214.00	-36.587	31.848	
215.00	-37.071	21.985	
216.00	-37.541	13.002	
217.00	-38.084	1.696	
218.00	-38.595	-5.989	
219.00	-39.116	-19.751	
220.00	-39.665	-26.571	
221.00	-40.269	-39.312	
222.00	-40.937	-50.930	
223.00	-41.539	-62.997	
224.00	-42.291	-75.230	
225.00	-43.002	-87.166	
226.00	-43.718	-102.889	
227.00	-44.345	-118.203	
228.00	-45.115	-131.402	
229.00	-45.753	-146.467	
230.00	-46.567	-159.246	
231.00	-47.366	-174.995	
232.00	-48.231	170.888	
233.00	-48.978	155.355	
234.00	-49.822	140.395	
235.00	-50.820	119.436	
236.00	-51.759	107.913	
237.00	-52.723	87.883	
238.00	-53.740	69.977	
239.00	-54.988	53.430	
240.00	-56.734	33.032	
241.00	-58.254	14.866	
242.00	-61.162	-11.660	
243.00	-63.740	-42.856	
244.00	-66.287	-84.410	
245.00	-65.470	-134.331	
246.00	-64.535	-176.864	
247.00	-61.932	151.179	
248.00	-60.699	125.371	
249.00	-59.028	107.390	
250.00	-58.628	79.843	
251.00	-57.516	53.522	
252.00	-56.336	31.837	
253.00	-55.567	9.809	
254.00	-54.967	-14.143	
255.00	-54.620	-34.945	
256.00	-54.082	-56.667	
257.00	-53.830	-80.980	
258.00	-53.163	-102.978	
259.00	-52.763	-127.808	
260.00	-52.214	-148.473	
261.00	-51.674	-175.165	
262.00	-51.642	167.859	
263.00	-51.311	145.678	
264.00	-51.440	122.509	
265.00	-50.967	101.846	
266.00	-50.957	77.294	
267.00	-51.086	54.753	
268.00	-50.552	35.234	
269.00	-50.456	10.516	
270.00	-50.380	-10.241	
271.00	-50.422	-31.864	
272.00	-50.614	-52.207	
273.00	-50.930	-70.367	
274.00	-51.106	-97.355	
275.00	-51.583	-119.160	
276.00	-52.518	-145.746	
277.00	-52.562	-176.610	
278.00	-52.544	161.509	
279.00	-52.521	134.194	
280.00	-52.514	114.977	
281.00	-52.242	90.109	
282.00	-52.344	63.077	
283.00	-52.363	37.031	
284.00	-52.215	19.412	
285.00	-52.721	-8.555	
286.00	-53.511	-32.678	
287.00	-54.696	-58.551	
288.00	-55.540	-86.479	
289.00	-56.057	-106.472	
290.00	-57.111	-141.770	
291.00	-57.502	-161.293	
292.00	-56.976	165.181	
293.00	-59.316	133.337	
294.00	-58.741	105.354	
295.00	-59.303	75.111	
296.00	-58.448	51.269	
297.00	-58.056	17.189	
298.00	-56.028	-7.714	
299.00	-55.016	-30.524	
300.00	-54.355	-47.813	
301.00	-54.050	-64.547	
302.00	-53.773	-83.217	
303.00	-54.371	-100.989	
304.00	-54.644	-117.548	
305.00	-56.073	-143.656	
306.00	-57.013	-167.008	
307.00	-57.459	159.505	
308.00	-57.395	126.564	
309.00	-56.713	105.807	
310.00	-55.887	81.801	
311.00	-55.718	62.769	
312.00	-54.993	40.643	
313.00	-54.701	24.293	
314.00	-54.816	5.793	
315.00	-54.683	-11.800	
316.00	-55.969	-35.757	
317.00	-55.248	-52.852	
318.00	-55.484	-76.126	
319.00	-55.174	-93.894	
320.00	-55.255	-122.738	
321.00	-55.074	-136.794	
322.00	-54.729	-158.662	
323.00	-54.669	-170.731	
324.00	-54.550	177.479	
325.00	-54.438	154.688	
326.00	-55.299	144.711	
327.00	-55.959	125.651	
328.00	-56.086	110.054	
329.00	-56.952	92.997	
330.00	-57.563	75.759	
331.00	-57.858	62.006	
332.00	-58.482	40.266	
333.00	-59.065	24.280	
334.00	-58.627	10.331	
335.00	-58.989	-11.628	
336.00	-59.313	-26.863	
337.00	-59.083	-41.730	
338.00	-59.592	-55.086	
339.00	-59.875	-69.900	
340.00	-60.177	-82.927	
341.00	-60.261	-100.386	
342.00	-61.020	-111.362	
343.00	-61.025	-122.544	
344.00	-61.686	-139.778	
345.00	-61.801	-159.442	
346.00	-62.077	-172.592	
347.00	-61.668	177.077	
348.00	-62.369	163.970	
349.00	-61.800	152.768	
350.00	-61.848	144.205	
351.00	-62.596	133.276	
352.00	-62.728	129.891	
353.00	-63.285	119.188	
354.00	-63.686	111.755	
355.00	-63.805	107.756	
356.00	-63.953	103.452	
357.00	-63.789	102.632	
358.00	-64.928	95.958	
359.00	-66.282	94.739	
Frequency	2650.00	MHz	
Channel	test		
Scan Axis name	Azimuth  [deg]		
Scan Axis	Amplitude	Phase	
			
0.00	-76.435	-77.394	
1.00	-72.759	-52.594	
2.00	-75.525	-55.041	
3.00	-71.761	-33.133	
4.00	-68.302	-42.897	
5.00	-69.833	-35.406	
6.00	-69.354	-9.762	
7.00	-67.958	-30.671	
8.00	-67.907	-22.196	
9.00	-66.599	-9.705	
10.00	-66.129	-12.620	
11.00	-66.575	-4.800	
12.00	-65.214	-24.040	
13.00	-67.040	-18.995	
14.00	-64.921	-0.289	
15.00	-66.034	18.284	
16.00	-66.864	21.898	
17.00	-65.763	20.509	
18.00	-67.249	25.191	
19.00	-67.296	32.594	
20.00	-66.035	30.639	
21.00	-66.336	45.621	
22.00	-62.721	35.517	
23.00	-65.052	33.571	
24.00	-63.872	42.523	
25.00	-64.010	49.171	
26.00	-64.475	50.927	
27.00	-64.823	57.221	
28.00	-63.291	53.735	
29.00	-64.700	59.187	
30.00	-63.847	53.941	
31.00	-63.439	67.915	
32.00	-65.322	62.639	
33.00	-64.770	68.094	
34.00	-64.528	76.346	
35.00	-65.239	72.103	
36.00	-66.053	75.702	
37.00	-67.258	76.458	
38.00	-69.772	81.931	
39.00	-71.277	85.896	
40.00	-74.010	73.909	
41.00	-82.367	23.402	
42.00	-76.805	11.691	
43.00	-72.681	-4.888	
44.00	-67.419	-6.925	
45.00	-66.193	-6.672	
46.00	-64.327	4.678	
47.00	-62.934	7.094	
48.00	-61.590	17.019	
49.00	-61.607	23.855	
50.00	-61.580	29.870	
51.00	-61.449	40.312	
52.00	-61.620	61.342	
53.00	-61.766	67.789	
54.00	-63.641	86.482	
55.00	-64.455	103.939	
56.00	-63.014	123.357	
57.00	-63.749	148.085	
58.00	-63.132	-176.903	
59.00	-64.328	-159.594	
60.00	-64.874	-143.064	
61.00	-63.827	-118.912	
62.00	-65.084	-101.323	
63.00	-64.368	-57.178	
64.00	-63.169	-29.633	
65.00	-65.735	-20.743	
66.00	-62.278	3.989	
67.00	-62.833	25.511	
68.00	-63.968	46.484	
69.00	-64.852	75.317	
70.00	-64.918	89.456	
71.00	-67.289	133.882	
72.00	-63.598	151.560	
73.00	-62.964	-173.162	
74.00	-61.515	-156.815	
75.00	-60.744	-126.827	
76.00	-60.598	-115.605	
77.00	-60.310	-86.303	
78.00	-60.671	-72.147	
79.00	-60.647	-42.837	
80.00	-60.501	-16.881	
81.00	-60.875	13.192	
82.00	-60.799	39.029	
83.00	-58.356	66.433	
84.00	-59.082	95.573	
85.00	-58.227	119.620	
86.00	-58.424	141.447	
87.00	-57.904	165.783	
88.00	-58.948	-167.766	
89.00	-58.097	-136.975	
90.00	-58.038	-119.255	
91.00	-57.757	-84.886	
92.00	-56.570	-59.505	
93.00	-56.830	-35.420	
94.00	-55.023	-10.820	
95.00	-55.555	15.624	
96.00	-53.545	36.130	
97.00	-53.573	59.776	
98.00	-53.493	84.908	
99.00	-53.510	111.593	
100.00	-53.146	148.548	
101.00	-54.084	171.319	
102.00	-53.195	-164.798	
103.00	-53.306	-142.377	
104.00	-52.740	-111.752	
105.00	-52.724	-92.406	
106.00	-52.410	-63.035	
107.00	-51.543	-41.121	
108.00	-51.642	-16.720	
109.00	-51.182	8.020	
110.00	-51.357	30.454	
111.00	-50.982	49.111	
112.00	-51.181	72.113	
113.00	-50.640	95.524	
114.00	-51.103	113.655	
115.00	-51.469	139.000	
116.00	-51.911	156.327	
117.00	-52.837	-176.971	
118.00	-52.844	-155.900	
119.00	-53.615	-136.033	
120.00	-54.116	-115.667	
121.00	-54.585	-95.218	
122.00	-55.474	-75.875	
123.00	-57.161	-60.783	
124.00	-58.437	-50.667	
125.00	-59.873	-51.125	
126.00	-61.922	-53.824	
127.00	-60.986	-68.693	
128.00	-59.688	-72.326	
129.00	-56.678	-68.463	
130.00	-53.880	-54.712	
131.00	-52.203	-40.610	
132.00	-50.291	-24.255	
133.00	-48.683	-9.536	
134.00	-47.498	7.735	
135.00	-46.395	22.838	
136.00	-45.476	43.650	
137.00	-44.769	58.285	
138.00	-43.894	78.559	
139.00	-43.265	96.275	
140.00	-42.262	115.371	
141.00	-41.748	131.605	
142.00	-40.823	148.603	
143.00	-40.283	166.700	
144.00	-39.588	-175.577	
145.00	-38.992	-159.712	
146.00	-38.490	-143.649	
147.00	-38.065	-124.468	
148.00	-37.520	-110.953	
149.00	-37.114	-90.592	
150.00	-36.626	-79.771	
151.00	-36.230	-61.746	
152.00	-35.785	-50.347	
153.00	-35.347	-34.556	
154.00	-34.966	-18.743	
155.00	-34.581	-5.016	
156.00	-34.236	7.540	
157.00	-33.916	19.986	
158.00	-33.593	34.452	
159.00	-33.287	45.614	
160.00	-33.069	59.073	
161.00	-32.802	69.786	
162.00	-32.590	79.146	
163.00	-32.360	92.055	
164.00	-32.149	101.889	
165.00	-31.980	115.550	
166.00	-31.788	124.457	
167.00	-31.640	138.154	
168.00	-31.477	147.999	
169.00	-31.298	157.998	
170.00	-31.148	166.220	
171.00	-30.992	175.537	
172.00	-30.858	-173.728	
173.00	-30.722	-165.691	
174.00	-30.641	-159.525	
175.00	-30.549	-150.835	
176.00	-30.455	-144.061	
177.00	-30.392	-140.507	
178.00	-30.342	-131.210	
179.00	-30.358	-130.315	
180.00	-30.314	-125.239	
181.00	-30.336	-120.825	
182.00	-30.355	-116.410	
183.00	-30.356	-109.785	
184.00	-30.417	-106.296	
185.00	-30.479	-102.493	
186.00	-30.523	-98.532	
187.00	-30.600	-95.225	
188.00	-30.659	-93.089	
189.00	-30.778	-90.850	
190.00	-30.861	-91.763	
191.00	-30.983	-88.010	
192.00	-31.107	-89.815	
193.00	-31.210	-88.510	
194.00	-31.363	-87.590	
195.00	-31.530	-87.126	
196.00	-31.710	-89.718	
197.00	-31.896	-89.549	
198.00	-32.091	-95.261	
199.00	-32.276	-95.523	
200.00	-32.550	-98.991	
201.00	-32.756	-103.085	
202.00	-33.047	-106.748	
203.00	-33.355	-110.344	
204.00	-33.623	-115.419	
205.00	-33.942	-120.393	
206.00	-34.304	-128.331	
207.00	-34.609	-133.159	
208.00	-35.018	-139.348	
209.00	-35.465	-146.836	
210.00	-35.874	-150.282	
211.00	-36.287	-158.527	
212.00	-36.797	-165.357	
213.00	-37.306	-174.409	
214.00	-37.810	177.183	
215.00	-38.396	167.639	
216.00	-39.027	159.017	
217.00	-39.687	148.231	
218.00	-40.368	141.859	
219.00	-41.050	127.756	
220.00	-41.710	120.934	
221.00	-42.590	108.092	
222.00	-43.505	97.136	
223.00	-44.221	84.898	
224.00	-45.148	72.522	
225.00	-46.126	60.038	
226.00	-47.238	45.998	
227.00	-48.680	28.059	
228.00	-49.530	15.425	
229.00	-50.486	-0.484	
230.00	-51.484	-14.102	
231.00	-52.458	-30.408	
232.00	-53.486	-47.773	
233.00	-55.028	-61.784	
234.00	-57.029	-76.525	
235.00	-58.876	-97.196	
236.00	-62.526	-110.778	
237.00	-68.348	-146.080	
238.00	-73.906	129.323	
239.00	-68.301	92.292	
240.00	-63.602	38.716	
241.00	-60.553	26.352	
242.00	-58.270	3.223	
243.00	-56.889	-13.565	
244.00	-55.969	-31.185	
245.00	-54.861	-51.033	
246.00	-54.241	-68.826	
247.00	-53.784	-89.359	
248.00	-53.460	-111.349	
249.00	-53.012	-131.485	
250.00	-53.031	-153.230	
251.00	-52.566	-176.771	
252.00	-51.975	164.600	
253.00	-51.775	141.411	
254.00	-51.423	118.976	
255.00	-51.056	96.934	
256.00	-50.547	73.553	
257.00	-50.141	56.736	
258.00	-50.355	30.636	
259.00	-49.676	9.465	
260.00	-49.309	-10.909	
261.00	-49.344	-34.691	
262.00	-49.657	-50.216	
263.00	-49.774	-74.430	
264.00	-49.943	-98.607	
265.00	-50.603	-119.557	
266.00	-50.765	-144.281	
267.00	-50.795	-165.537	
268.00	-51.016	171.672	
269.00	-51.220	142.855	
270.00	-51.660	120.286	
271.00	-51.252	96.736	
272.00	-51.497	69.838	
273.00	-51.622	50.104	
274.00	-51.667	25.330	
275.00	-52.089	4.874	
276.00	-52.082	-20.345	
277.00	-52.795	-54.454	
278.00	-53.638	-78.070	
279.00	-53.702	-103.747	
280.00	-53.565	-127.048	
281.00	-54.194	-151.753	
282.00	-54.086	175.008	
283.00	-53.769	142.139	
284.00	-53.590	117.998	
285.00	-53.722	83.988	
286.00	-52.861	58.033	
287.00	-52.514	31.295	
288.00	-52.825	6.376	
289.00	-52.738	-9.465	
290.00	-52.795	-34.799	
291.00	-53.498	-56.936	
292.00	-52.877	-85.845	
293.00	-53.350	-112.365	
294.00	-53.468	-133.670	
295.00	-53.134	-159.395	
296.00	-52.436	-179.311	
297.00	-52.220	156.358	
298.00	-52.574	138.163	
299.00	-52.958	119.344	
300.00	-53.127	95.694	
301.00	-53.431	75.005	
302.00	-53.901	51.736	
303.00	-53.846	28.799	
304.00	-54.190	9.491	
305.00	-54.352	-13.730	
306.00	-54.078	-37.132	
307.00	-54.574	-56.091	
308.00	-55.451	-75.817	
309.00	-55.937	-90.026	
310.00	-57.425	-111.031	
311.00	-59.081	-134.963	
312.00	-61.145	-168.277	
313.00	-60.890	161.089	
314.00	-60.841	128.824	
315.00	-59.406	103.954	
316.00	-58.369	82.464	
317.00	-57.181	67.804	
318.00	-57.241	52.504	
319.00	-57.374	43.524	
320.00	-58.510	30.326	
321.00	-58.446	20.643	
322.00	-59.919	8.271	
323.00	-62.693	1.528	
324.00	-65.953	-11.466	
325.00	-69.884	-24.410	
326.00	-79.947	-34.277	
327.00	-78.536	149.734	
328.00	-69.113	140.838	
329.00	-65.506	118.503	
330.00	-64.705	120.548	
331.00	-64.150	105.420	
332.00	-63.654	95.360	
333.00	-63.721	82.568	
334.00	-63.461	74.901	
335.00	-63.555	62.047	
336.00	-64.494	54.325	
337.00	-65.175	41.086	
338.00	-63.832	35.447	
339.00	-67.819	12.362	
340.00	-67.328	7.885	
341.00	-68.592	-2.025	
342.00	-67.309	-36.575	
343.00	-70.638	-72.722	
344.00	-67.720	-78.057	
345.00	-73.761	-79.797	
346.00	-71.491	-103.188	
347.00	-68.551	-108.682	
348.00	-70.916	-133.390	
349.00	-69.524	-133.012	
350.00	-75.782	-135.858	
351.00	-73.773	-120.780	
352.00	-74.097	-151.770	
353.00	-74.179	-158.976	
354.00	-78.135	-127.561	
355.00	-80.317	-167.205	
356.00	-85.957	-24.537	
357.00	-79.047	-107.583	
358.00	-75.429	-52.807	
359.00	-74.436	-64.600	
Frequency	2700.00	MHz	
Channel	test		
Scan Axis name	Azimuth  [deg]		
Scan Axis	Amplitude	Phase	
			
0.00	-68.742	124.975	
1.00	-70.948	97.553	
2.00	-70.539	92.848	
3.00	-69.607	97.593	
4.00	-71.180	61.176	
5.00	-70.020	72.546	
6.00	-68.368	63.661	
7.00	-74.164	64.217	
8.00	-71.636	88.543	
9.00	-75.008	30.710	
10.00	-74.455	76.909	
11.00	-77.304	53.928	
12.00	-81.640	170.532	
13.00	-78.090	-26.324	
14.00	-75.942	-82.833	
15.00	-76.336	-123.530	
16.00	-69.527	-92.143	
17.00	-72.426	-137.475	
18.00	-64.307	-108.764	
19.00	-66.519	-99.483	
20.00	-70.098	-127.551	
21.00	-63.268	-112.269	
22.00	-67.253	-96.310	
23.00	-63.817	-122.312	
24.00	-62.362	-108.524	
25.00	-64.717	-104.188	
26.00	-61.385	-106.143	
27.00	-66.011	-105.431	
28.00	-63.876	-113.894	
29.00	-65.804	-106.186	
30.00	-63.745	-109.813	
31.00	-69.226	-85.104	
32.00	-65.925	-69.202	
33.00	-68.754	-115.898	
34.00	-68.309	-54.865	
35.00	-64.537	-54.700	
36.00	-68.200	-54.161	
37.00	-67.848	-16.145	
38.00	-65.395	-21.234	
39.00	-70.100	-123.291	
40.00	-69.090	-44.777	
41.00	-76.616	-57.068	
42.00	-76.119	115.170	
43.00	-92.858	-148.858	
44.00	-66.046	75.612	
45.00	-69.553	49.747	
46.00	-67.173	91.888	
47.00	-66.379	-177.939	
48.00	-64.164	113.648	
49.00	-69.530	171.663	
50.00	-60.555	167.271	
51.00	-65.985	-113.058	
52.00	-57.652	-137.880	
53.00	-60.875	-115.443	
54.00	-58.545	-149.534	
55.00	-61.758	-110.781	
56.00	-60.172	-107.759	
57.00	-59.711	-128.213	
58.00	-62.754	-33.812	
59.00	-59.990	-18.225	
60.00	-58.463	15.074	
61.00	-58.358	19.022	
62.00	-58.084	83.751	
63.00	-57.017	72.705	
64.00	-67.186	94.606	
65.00	-63.916	86.342	
66.00	-57.362	71.693	
67.00	-58.022	155.585	
68.00	-56.273	-176.788	
69.00	-60.924	145.043	
70.00	-57.989	171.324	
71.00	-65.537	169.193	
72.00	-64.351	-32.579	
73.00	-60.321	-34.110	
74.00	-76.391	118.464	
75.00	-55.598	-36.034	
76.00	-61.228	-19.245	
77.00	-56.671	6.106	
78.00	-64.680	65.531	
79.00	-61.232	61.620	
80.00	-64.881	119.253	
81.00	-62.068	113.337	
82.00	-68.459	-89.765	
83.00	-53.415	-161.135	
84.00	-58.564	-161.748	
85.00	-57.006	-102.858	
86.00	-55.183	-86.857	
87.00	-55.102	-67.268	
88.00	-53.871	-47.526	
89.00	-54.885	-46.230	
90.00	-54.624	-11.126	
91.00	-53.779	35.484	
92.00	-52.336	47.569	
93.00	-54.822	91.325	
94.00	-50.167	92.784	
95.00	-49.457	122.707	
96.00	-53.048	164.356	
97.00	-51.070	172.340	
98.00	-54.397	174.452	
99.00	-49.649	-128.435	
100.00	-49.725	-98.972	
101.00	-51.147	-77.094	
102.00	-50.099	-45.596	
103.00	-50.085	-20.982	
104.00	-48.212	1.934	
105.00	-48.739	17.815	
106.00	-51.761	45.195	
107.00	-48.941	57.425	
108.00	-49.797	93.847	
109.00	-49.510	122.176	
110.00	-49.891	140.518	
111.00	-49.079	153.508	
112.00	-49.227	-174.280	
113.00	-50.486	-155.851	
114.00	-50.128	-134.685	
115.00	-49.930	-117.332	
116.00	-50.745	-91.101	
117.00	-50.714	-54.532	
118.00	-50.468	-47.385	
119.00	-50.803	-20.992	
120.00	-51.219	-7.152	
121.00	-51.257	17.647	
122.00	-50.502	30.379	
123.00	-52.116	54.634	
124.00	-51.678	78.926	
125.00	-53.204	83.961	
126.00	-52.791	92.747	
127.00	-54.102	99.348	
128.00	-56.089	94.642	
129.00	-54.326	118.694	
130.00	-55.064	122.134	
131.00	-53.338	126.489	
132.00	-51.643	142.266	
133.00	-50.670	152.220	
134.00	-50.055	162.053	
135.00	-49.425	174.562	
136.00	-47.354	-164.168	
137.00	-47.170	-152.180	
138.00	-45.883	-131.307	
139.00	-45.357	-115.880	
140.00	-44.175	-99.736	
141.00	-43.366	-82.776	
142.00	-42.743	-66.290	
143.00	-41.855	-48.938	
144.00	-41.346	-32.516	
145.00	-40.772	-17.098	
146.00	-40.242	0.191	
147.00	-39.839	19.518	
148.00	-39.109	33.067	
149.00	-38.640	53.070	
150.00	-38.320	64.053	
151.00	-37.690	81.682	
152.00	-37.237	93.242	
153.00	-36.793	108.531	
154.00	-36.494	125.114	
155.00	-36.059	138.586	
156.00	-35.732	150.992	
157.00	-35.349	164.795	
158.00	-35.225	178.209	
159.00	-34.902	-170.230	
160.00	-34.660	-156.439	
161.00	-34.376	-145.108	
162.00	-34.230	-135.853	
163.00	-33.902	-122.466	
164.00	-33.743	-111.586	
165.00	-33.508	-97.788	
166.00	-33.285	-88.577	
167.00	-33.111	-74.889	
168.00	-32.891	-65.063	
169.00	-32.689	-55.079	
170.00	-32.563	-46.032	
171.00	-32.343	-37.067	
172.00	-32.195	-25.867	
173.00	-32.013	-18.035	
174.00	-32.000	-11.742	
175.00	-31.830	-3.124	
176.00	-31.718	4.030	
177.00	-31.603	7.444	
178.00	-31.644	16.596	
179.00	-31.595	18.032	
180.00	-31.523	22.552	
181.00	-31.520	27.011	
182.00	-31.501	31.503	
183.00	-31.541	38.088	
184.00	-31.566	41.231	
185.00	-31.605	44.832	
186.00	-31.659	48.540	
187.00	-31.811	51.746	
188.00	-31.864	53.667	
189.00	-32.012	55.678	
190.00	-32.123	54.932	
191.00	-32.235	58.319	
192.00	-32.434	56.867	
193.00	-32.530	57.857	
194.00	-32.671	58.499	
195.00	-32.882	58.875	
196.00	-33.173	56.035	
197.00	-33.303	56.974	
198.00	-33.500	50.728	
199.00	-33.803	50.072	
200.00	-33.992	47.344	
201.00	-34.268	43.384	
202.00	-34.625	39.939	
203.00	-34.941	36.134	
204.00	-35.244	31.570	
205.00	-35.561	26.666	
206.00	-35.968	18.939	
207.00	-36.471	14.021	
208.00	-36.821	7.551	
209.00	-37.303	0.172	
210.00	-37.845	-3.323	
211.00	-38.368	-12.289	
212.00	-38.821	-18.859	
213.00	-39.448	-29.115	
214.00	-40.073	-36.027	
215.00	-40.582	-46.322	
216.00	-41.413	-56.504	
217.00	-42.335	-66.988	
218.00	-43.299	-73.795	
219.00	-43.960	-89.530	
220.00	-44.507	-97.286	
221.00	-45.182	-112.497	
222.00	-46.291	-123.735	
223.00	-47.251	-136.300	
224.00	-48.403	-151.340	
225.00	-49.101	-164.896	
226.00	-50.451	176.937	
227.00	-51.519	163.568	
228.00	-52.380	143.561	
229.00	-53.558	125.020	
230.00	-55.000	103.922	
231.00	-57.192	86.116	
232.00	-57.449	67.473	
233.00	-59.932	49.860	
234.00	-60.828	19.846	
235.00	-63.199	-31.629	
236.00	-61.583	-57.540	
237.00	-58.515	-102.340	
238.00	-57.441	-126.137	
239.00	-55.099	-138.408	
240.00	-53.864	-165.244	
241.00	-53.071	-179.560	
242.00	-52.227	157.752	
243.00	-52.152	135.732	
244.00	-51.064	118.236	
245.00	-51.422	101.603	
246.00	-50.619	79.952	
247.00	-50.510	60.803	
248.00	-50.122	41.347	
249.00	-50.446	21.282	
250.00	-50.003	-7.227	
251.00	-50.343	-27.459	
252.00	-50.021	-50.240	
253.00	-50.189	-72.452	
254.00	-49.757	-96.390	
255.00	-49.662	-118.607	
256.00	-49.166	-140.887	
257.00	-48.823	-165.394	
258.00	-48.556	176.112	
259.00	-48.540	150.622	
260.00	-48.178	130.900	
261.00	-48.457	104.864	
262.00	-48.569	86.246	
263.00	-48.532	65.401	
264.00	-48.488	40.030	
265.00	-49.054	18.807	
266.00	-49.590	-4.831	
267.00	-49.745	-29.162	
268.00	-50.420	-48.472	
269.00	-51.031	-78.298	
270.00	-51.481	-106.529	
271.00	-51.370	-130.175	
272.00	-51.063	-155.772	
273.00	-50.855	179.233	
274.00	-50.664	152.991	
275.00	-50.636	129.507	
276.00	-50.773	108.245	
277.00	-50.839	76.065	
278.00	-51.270	57.556	
279.00	-51.985	29.409	
280.00	-52.086	12.901	
281.00	-51.728	-13.632	
282.00	-52.540	-42.630	
283.00	-52.361	-69.995	
284.00	-52.537	-93.850	
285.00	-53.862	-123.428	
286.00	-53.229	-151.916	
287.00	-54.941	-177.844	
288.00	-55.127	157.732	
289.00	-55.148	131.157	
290.00	-55.658	100.993	
291.00	-56.687	82.746	
292.00	-56.390	51.322	
293.00	-56.092	26.302	
294.00	-56.462	-6.120	
295.00	-57.294	-26.716	
296.00	-57.400	-45.052	
297.00	-58.226	-71.129	
298.00	-58.179	-95.770	
299.00	-57.944	-121.183	
300.00	-58.008	-146.472	
301.00	-58.517	-163.642	
302.00	-58.234	179.841	
303.00	-59.241	155.522	
304.00	-60.504	147.946	
305.00	-62.873	115.787	
306.00	-64.662	92.232	
307.00	-68.329	41.050	
308.00	-68.263	-10.066	
309.00	-65.158	-36.712	
310.00	-65.478	-65.938	
311.00	-63.755	-90.405	
312.00	-62.196	-94.239	
313.00	-64.304	-112.408	
314.00	-66.198	-140.671	
315.00	-66.711	-176.322	
316.00	-65.409	146.933	
317.00	-65.029	122.771	
318.00	-65.174	106.342	
319.00	-64.535	82.919	
320.00	-65.198	60.486	
321.00	-65.906	41.074	
322.00	-66.170	18.311	
323.00	-66.505	0.238	
324.00	-67.726	-27.459	
325.00	-67.365	-60.031	
326.00	-67.680	-76.212	
327.00	-66.262	-109.893	
328.00	-66.357	-143.283	
329.00	-65.957	-152.948	
330.00	-64.578	175.436	
331.00	-63.469	164.950	
332.00	-63.760	146.506	
333.00	-62.092	125.830	
334.00	-60.847	119.216	
335.00	-60.435	103.714	
336.00	-60.211	86.320	
337.00	-59.939	80.131	
338.00	-60.871	72.341	
339.00	-61.232	59.914	
340.00	-62.503	48.247	
341.00	-64.345	37.486	
342.00	-66.416	27.511	
343.00	-69.241	8.672	
344.00	-71.104	-17.164	
345.00	-69.262	-61.412	
346.00	-70.751	-77.403	
347.00	-69.408	-101.620	
348.00	-66.065	-112.204	
349.00	-66.305	-123.154	
350.00	-65.090	-140.314	
351.00	-65.524	-144.744	
352.00	-64.024	-154.428	
353.00	-64.514	-160.321	
354.00	-64.850	-172.515	
355.00	-64.537	-178.863	
356.00	-64.941	177.916	
357.00	-66.336	178.711	
358.00	-66.886	158.268	
359.00	-69.546	144.116	
