Test Title:	Alpha Wireless Indoor Range						
Date:	02/11/2017						
Time:	16:42						
Operator Name:	FL						
Comment:	Version 2 Run 2
Cable length changed						
Caib. File Name:	C:\Program Files\Midas 2.01d\Calibration Files\test sigma 180900.cal						
							
[Scan Axis] Name: 	Azimuth  [deg]Start: 	0.000000	Stop	359.000000	Increment	1.000000[Step Axis] Name: 	Start: 	0.000000	Stop	0.000000	Increment	0.000000[Tert] Name: 	None [Forth] Name: 	None  [ Freq.]  (List) 	MHz.	1694.000000	1710.000000	1800.000000	1850.000000	1950.000000	2050.000000	2170.000000	2300.000000	2350.000000	2400.000000	2450.000000	2496.000000	2550.000000	2600.000000	2650.000000	2700.000000
 [Switch]  	None [Channel]  	test			 [ Beam] 	None			
Database:			
First Question			
2nd			
3rd			
4th			
			
Frequency	1694.00	MHz	
Channel	test		
Scan Axis name	Azimuth  [deg]		
Scan Axis	Amplitude	Phase	
			
0.00	-58.995	134.228	
1.00	-67.032	125.458	
2.00	-76.085	165.770	
3.00	-78.365	153.845	
4.00	-72.637	-118.677	
5.00	-72.213	-148.983	
6.00	-69.092	-134.149	
7.00	-67.007	-119.393	
8.00	-63.826	-125.619	
9.00	-67.119	-122.310	
10.00	-65.421	-114.551	
11.00	-66.719	-111.417	
12.00	-66.764	-118.041	
13.00	-65.177	-108.307	
14.00	-64.034	-103.122	
15.00	-64.148	-98.671	
16.00	-61.942	-88.757	
17.00	-63.399	-86.569	
18.00	-63.601	-90.548	
19.00	-61.800	-98.591	
20.00	-68.012	-113.921	
21.00	-66.764	-150.637	
22.00	-67.013	-165.187	
23.00	-64.242	177.119	
24.00	-61.166	173.361	
25.00	-60.024	152.269	
26.00	-59.099	153.559	
27.00	-57.839	161.530	
28.00	-57.960	168.363	
29.00	-57.272	169.438	
30.00	-57.351	175.898	
31.00	-56.307	-178.763	
32.00	-56.381	-173.076	
33.00	-57.090	-165.576	
34.00	-58.500	-152.610	
35.00	-59.490	-147.839	
36.00	-60.852	-139.733	
37.00	-62.376	-114.109	
38.00	-63.910	-82.824	
39.00	-63.896	-60.787	
40.00	-62.245	-42.064	
41.00	-61.783	-42.516	
42.00	-62.940	-19.941	
43.00	-59.815	-13.966	
44.00	-61.237	4.067	
45.00	-61.329	11.515	
46.00	-62.353	25.372	
47.00	-63.181	46.447	
48.00	-61.250	67.332	
49.00	-60.108	101.083	
50.00	-59.689	107.046	
51.00	-58.170	122.682	
52.00	-56.792	137.673	
53.00	-55.500	148.156	
54.00	-55.794	154.702	
55.00	-55.321	163.035	
56.00	-57.055	178.706	
57.00	-57.546	-171.076	
58.00	-58.447	-164.032	
59.00	-62.464	-148.205	
60.00	-63.974	-123.031	
61.00	-67.696	-80.790	
62.00	-63.870	-53.677	
63.00	-67.061	-14.884	
64.00	-65.778	2.502	
65.00	-66.427	5.699	
66.00	-67.775	49.482	
67.00	-70.937	22.567	
68.00	-80.798	120.863	
69.00	-87.142	162.751	
70.00	-70.024	-118.137	
71.00	-67.301	-119.301	
72.00	-67.115	-102.761	
73.00	-65.162	-89.100	
74.00	-64.061	-75.496	
75.00	-65.156	-67.686	
76.00	-64.462	-43.795	
77.00	-65.065	-14.196	
78.00	-65.063	9.426	
79.00	-63.838	34.701	
80.00	-62.827	52.790	
81.00	-60.268	82.320	
82.00	-60.198	83.501	
83.00	-59.372	104.097	
84.00	-59.406	121.498	
85.00	-59.604	139.002	
86.00	-57.335	149.475	
87.00	-59.157	173.930	
88.00	-57.539	-179.619	
89.00	-56.538	162.307	
90.00	-56.093	-155.259	
91.00	-58.447	-122.678	
92.00	-60.607	-102.061	
93.00	-58.047	-104.190	
94.00	-57.188	-88.695	
95.00	-56.742	-59.524	
96.00	-55.773	-47.245	
97.00	-56.446	-41.582	
98.00	-56.758	-27.728	
99.00	-57.221	-21.779	
100.00	-57.630	2.288	
101.00	-58.969	17.509	
102.00	-59.563	48.502	
103.00	-60.668	70.379	
104.00	-61.491	94.749	
105.00	-61.204	108.789	
106.00	-62.464	129.944	
107.00	-63.082	142.957	
108.00	-62.716	153.368	
109.00	-65.528	-168.171	
110.00	-75.528	-149.721	
111.00	-70.015	-40.457	
112.00	-63.871	-17.132	
113.00	-60.145	4.519	
114.00	-57.050	9.542	
115.00	-55.704	15.015	
116.00	-54.598	26.117	
117.00	-52.956	39.445	
118.00	-52.822	52.480	
119.00	-52.459	58.199	
120.00	-53.180	69.390	
121.00	-52.983	82.125	
122.00	-54.061	87.876	
123.00	-55.111	97.930	
124.00	-56.776	107.256	
125.00	-59.520	108.174	
126.00	-61.120	116.178	
127.00	-63.524	104.730	
128.00	-63.221	96.312	
129.00	-59.230	74.890	
130.00	-55.832	73.088	
131.00	-54.106	81.573	
132.00	-51.623	93.841	
133.00	-50.003	103.401	
134.00	-47.893	114.135	
135.00	-46.737	124.934	
136.00	-45.476	135.109	
137.00	-44.596	144.612	
138.00	-44.028	153.262	
139.00	-43.782	162.373	
140.00	-43.759	171.644	
141.00	-44.241	-179.706	
142.00	-44.689	-168.839	
143.00	-45.812	-157.992	
144.00	-47.639	-144.965	
145.00	-49.074	-124.355	
146.00	-51.012	-97.760	
147.00	-51.200	-64.805	
148.00	-49.581	-38.677	
149.00	-48.408	-22.054	
150.00	-46.892	-9.577	
151.00	-45.903	-1.396	
152.00	-45.229	5.030	
153.00	-45.075	6.596	
154.00	-44.887	6.715	
155.00	-44.985	6.191	
156.00	-45.141	4.097	
157.00	-45.053	0.547	
158.00	-45.056	-1.179	
159.00	-45.749	-3.243	
160.00	-46.042	-1.761	
161.00	-46.942	3.605	
162.00	-48.727	13.684	
163.00	-50.749	34.760	
164.00	-50.928	72.784	
165.00	-47.675	101.362	
166.00	-44.486	116.428	
167.00	-42.034	122.658	
168.00	-40.157	124.960	
169.00	-38.559	124.500	
170.00	-37.384	122.794	
171.00	-36.605	117.225	
172.00	-35.864	109.551	
173.00	-35.139	100.293	
174.00	-34.334	88.762	
175.00	-33.204	77.384	
176.00	-31.914	66.837	
177.00	-30.577	57.387	
178.00	-29.306	50.024	
179.00	-28.181	43.716	
180.00	-27.256	38.574	
181.00	-26.535	33.778	
182.00	-26.078	29.626	
183.00	-25.918	25.334	
184.00	-25.958	21.128	
185.00	-26.277	16.550	
186.00	-26.778	11.881	
187.00	-27.570	5.883	
188.00	-28.692	-0.178	
189.00	-30.066	-8.278	
190.00	-31.707	-18.270	
191.00	-33.623	-30.085	
192.00	-35.489	-46.706	
193.00	-37.262	-66.823	
194.00	-38.095	-89.333	
195.00	-38.316	-108.653	
196.00	-38.476	-122.858	
197.00	-38.656	-134.480	
198.00	-39.348	-143.593	
199.00	-40.453	-148.277	
200.00	-42.027	-148.959	
201.00	-44.128	-144.401	
202.00	-45.785	-128.942	
203.00	-46.833	-113.779	
204.00	-45.516	-96.542	
205.00	-44.012	-87.627	
206.00	-42.832	-86.880	
207.00	-42.113	-89.195	
208.00	-41.902	-95.634	
209.00	-42.078	-102.912	
210.00	-42.448	-111.541	
211.00	-43.361	-123.664	
212.00	-43.970	-136.230	
213.00	-44.772	-149.940	
214.00	-46.210	-164.673	
215.00	-46.979	-179.173	
216.00	-47.492	166.029	
217.00	-49.329	152.294	
218.00	-50.361	145.369	
219.00	-52.266	138.180	
220.00	-53.641	145.950	
221.00	-54.858	159.255	
222.00	-54.255	-177.553	
223.00	-51.565	-176.765	
224.00	-49.270	-169.827	
225.00	-47.424	-174.307	
226.00	-46.295	-178.723	
227.00	-45.019	172.234	
228.00	-44.263	166.062	
229.00	-44.061	160.265	
230.00	-43.473	149.451	
231.00	-43.474	140.226	
232.00	-43.381	130.671	
233.00	-43.471	122.398	
234.00	-43.479	113.037	
235.00	-43.884	103.840	
236.00	-43.834	93.954	
237.00	-44.170	85.203	
238.00	-44.444	77.791	
239.00	-44.598	70.333	
240.00	-44.889	63.139	
241.00	-45.220	57.557	
242.00	-45.600	47.887	
243.00	-46.150	42.315	
244.00	-46.486	34.945	
245.00	-46.908	27.981	
246.00	-47.362	22.395	
247.00	-47.673	12.897	
248.00	-48.079	6.489	
249.00	-48.536	-0.007	
250.00	-48.937	-8.544	
251.00	-49.067	-17.620	
252.00	-49.465	-25.551	
253.00	-49.700	-34.099	
254.00	-49.349	-43.092	
255.00	-49.630	-50.118	
256.00	-49.972	-57.584	
257.00	-50.036	-69.257	
258.00	-50.453	-75.435	
259.00	-50.391	-82.039	
260.00	-51.216	-92.739	
261.00	-51.248	-104.204	
262.00	-51.804	-111.700	
263.00	-52.049	-122.021	
264.00	-52.819	-136.342	
265.00	-52.892	-146.343	
266.00	-53.250	-162.815	
267.00	-54.867	-178.729	
268.00	-55.167	161.298	
269.00	-54.972	144.805	
270.00	-55.017	124.888	
271.00	-54.848	105.207	
272.00	-54.391	87.080	
273.00	-53.327	69.199	
274.00	-52.866	55.286	
275.00	-52.409	42.799	
276.00	-52.249	30.001	
277.00	-52.333	18.106	
278.00	-52.120	6.337	
279.00	-52.069	-6.220	
280.00	-53.169	-17.430	
281.00	-53.386	-31.067	
282.00	-54.315	-42.972	
283.00	-55.738	-51.394	
284.00	-57.757	-80.251	
285.00	-59.115	-82.807	
286.00	-59.714	-111.500	
287.00	-60.640	-134.802	
288.00	-60.107	-159.761	
289.00	-61.530	-176.927	
290.00	-61.901	175.225	
291.00	-62.984	167.650	
292.00	-64.899	160.717	
293.00	-66.230	164.977	
294.00	-67.285	146.188	
295.00	-68.898	179.886	
296.00	-69.269	-173.758	
297.00	-66.739	-148.022	
298.00	-67.266	-149.163	
299.00	-63.715	-171.113	
300.00	-63.430	178.662	
301.00	-62.161	161.850	
302.00	-62.890	135.008	
303.00	-61.311	126.380	
304.00	-59.485	102.375	
305.00	-58.780	96.152	
306.00	-58.308	79.166	
307.00	-59.703	59.839	
308.00	-59.533	54.054	
309.00	-58.782	50.482	
310.00	-61.174	39.093	
311.00	-64.280	35.043	
312.00	-67.757	37.698	
313.00	-71.217	36.502	
314.00	-74.576	93.679	
315.00	-72.108	102.237	
316.00	-66.924	122.097	
317.00	-63.652	113.409	
318.00	-65.025	102.109	
319.00	-64.031	87.019	
320.00	-63.959	72.292	
321.00	-67.124	50.027	
322.00	-69.475	4.692	
323.00	-71.064	-3.765	
324.00	-69.539	-42.843	
325.00	-66.124	-62.345	
326.00	-65.359	-91.649	
327.00	-64.689	-93.122	
328.00	-63.016	-98.064	
329.00	-65.190	-101.518	
330.00	-67.298	-109.340	
331.00	-72.622	-110.195	
332.00	-74.022	-80.167	
333.00	-72.156	-30.943	
334.00	-71.976	-2.482	
335.00	-66.284	12.227	
336.00	-62.560	12.808	
337.00	-60.795	10.253	
338.00	-58.902	8.427	
339.00	-58.002	15.694	
340.00	-58.954	19.186	
341.00	-58.620	16.819	
342.00	-59.576	12.911	
343.00	-61.428	11.542	
344.00	-61.138	17.706	
345.00	-66.260	16.620	
346.00	-75.519	11.421	
347.00	-76.087	-147.346	
348.00	-63.495	-158.242	
349.00	-60.125	-164.408	
350.00	-58.963	-167.862	
351.00	-56.197	-176.674	
352.00	-53.330	174.846	
353.00	-53.156	174.955	
354.00	-52.338	170.113	
355.00	-52.401	162.387	
356.00	-53.700	158.041	
357.00	-54.358	149.244	
358.00	-55.727	139.695	
359.00	-58.269	138.885	
Frequency	1710.00	MHz	
Channel	test		
Scan Axis name	Azimuth  [deg]		
Scan Axis	Amplitude	Phase	
			
0.00	-59.501	104.297	
1.00	-63.411	104.278	
2.00	-62.090	83.501	
3.00	-67.888	12.228	
4.00	-64.859	42.659	
5.00	-64.294	13.445	
6.00	-62.509	14.453	
7.00	-66.893	27.624	
8.00	-63.302	6.175	
9.00	-64.376	17.680	
10.00	-67.550	61.684	
11.00	-67.751	39.679	
12.00	-66.112	92.544	
13.00	-64.121	113.075	
14.00	-64.396	134.826	
15.00	-64.420	148.003	
16.00	-63.896	151.715	
17.00	-62.610	158.480	
18.00	-66.592	141.775	
19.00	-64.727	172.709	
20.00	-70.267	-150.982	
21.00	-74.468	167.773	
22.00	-75.186	115.818	
23.00	-66.212	55.795	
24.00	-64.610	69.118	
25.00	-65.234	102.058	
26.00	-60.890	96.712	
27.00	-60.951	106.290	
28.00	-56.307	113.415	
29.00	-54.958	125.365	
30.00	-54.638	126.492	
31.00	-51.841	137.933	
32.00	-51.807	147.711	
33.00	-51.633	152.070	
34.00	-52.770	158.276	
35.00	-53.074	168.833	
36.00	-54.615	-175.664	
37.00	-55.903	-157.651	
38.00	-59.113	-129.530	
39.00	-58.449	-108.252	
40.00	-59.063	-83.736	
41.00	-58.084	-61.037	
42.00	-57.081	-44.173	
43.00	-57.150	-25.709	
44.00	-56.339	-12.269	
45.00	-55.607	-1.240	
46.00	-54.733	11.215	
47.00	-54.059	23.430	
48.00	-55.035	32.842	
49.00	-53.755	42.024	
50.00	-54.036	53.099	
51.00	-53.426	66.501	
52.00	-53.323	78.889	
53.00	-54.470	89.765	
54.00	-55.192	103.980	
55.00	-56.145	120.156	
56.00	-57.954	134.197	
57.00	-58.598	155.719	
58.00	-62.220	-178.880	
59.00	-64.171	-151.466	
60.00	-67.467	-120.049	
61.00	-69.162	-77.446	
62.00	-67.414	-28.208	
63.00	-67.163	7.705	
64.00	-62.208	38.285	
65.00	-61.811	61.068	
66.00	-59.137	86.228	
67.00	-58.151	98.313	
68.00	-56.640	111.348	
69.00	-56.211	123.814	
70.00	-55.655	142.339	
71.00	-55.786	152.288	
72.00	-56.486	173.996	
73.00	-57.543	-169.439	
74.00	-57.647	-152.569	
75.00	-59.347	-133.631	
76.00	-59.545	-111.377	
77.00	-57.785	-87.056	
78.00	-59.460	-56.554	
79.00	-57.407	-25.733	
80.00	-58.896	-12.172	
81.00	-57.654	15.198	
82.00	-55.099	34.821	
83.00	-55.722	55.395	
84.00	-54.132	72.664	
85.00	-52.342	88.614	
86.00	-52.535	103.987	
87.00	-51.409	111.174	
88.00	-51.045	132.163	
89.00	-49.213	137.188	
90.00	-49.514	140.250	
91.00	-49.341	170.003	
92.00	-49.355	172.151	
93.00	-49.571	-167.379	
94.00	-51.422	-157.633	
95.00	-51.568	-143.761	
96.00	-52.771	-126.390	
97.00	-53.441	-108.115	
98.00	-54.095	-89.727	
99.00	-54.618	-68.836	
100.00	-56.133	-51.678	
101.00	-57.333	-19.045	
102.00	-58.450	10.227	
103.00	-58.968	37.049	
104.00	-57.239	64.900	
105.00	-56.734	96.735	
106.00	-56.254	122.037	
107.00	-55.812	143.085	
108.00	-54.369	163.939	
109.00	-54.461	-179.758	
110.00	-54.605	-164.317	
111.00	-55.420	-140.035	
112.00	-55.297	-112.090	
113.00	-55.683	-80.382	
114.00	-54.929	-46.789	
115.00	-53.205	-23.386	
116.00	-51.219	-1.119	
117.00	-49.484	18.766	
118.00	-48.003	35.936	
119.00	-47.244	52.517	
120.00	-46.748	70.612	
121.00	-45.967	86.122	
122.00	-46.251	101.859	
123.00	-46.166	118.551	
124.00	-46.611	139.321	
125.00	-47.106	159.335	
126.00	-47.715	-176.322	
127.00	-48.039	-148.185	
128.00	-47.076	-119.749	
129.00	-46.504	-94.082	
130.00	-45.345	-69.846	
131.00	-44.359	-46.909	
132.00	-43.116	-26.719	
133.00	-42.152	-7.018	
134.00	-41.235	11.381	
135.00	-40.419	29.162	
136.00	-39.640	45.515	
137.00	-39.053	61.877	
138.00	-38.563	77.314	
139.00	-38.148	92.177	
140.00	-38.035	107.352	
141.00	-37.978	121.611	
142.00	-38.120	136.958	
143.00	-38.542	150.276	
144.00	-39.027	166.591	
145.00	-39.606	-177.906	
146.00	-40.106	-161.155	
147.00	-40.701	-142.534	
148.00	-41.105	-126.762	
149.00	-41.500	-109.358	
150.00	-41.724	-94.489	
151.00	-42.033	-82.890	
152.00	-42.361	-72.524	
153.00	-42.620	-65.457	
154.00	-43.027	-61.923	
155.00	-43.366	-61.995	
156.00	-43.213	-65.163	
157.00	-42.647	-68.631	
158.00	-42.032	-71.537	
159.00	-41.280	-71.601	
160.00	-40.667	-69.719	
161.00	-40.356	-65.670	
162.00	-40.255	-60.899	
163.00	-40.436	-53.747	
164.00	-40.811	-45.503	
165.00	-41.656	-34.991	
166.00	-42.380	-23.594	
167.00	-42.832	-9.142	
168.00	-43.227	2.845	
169.00	-43.068	14.153	
170.00	-42.452	18.834	
171.00	-41.876	19.038	
172.00	-40.542	13.593	
173.00	-38.839	6.164	
174.00	-36.892	-0.004	
175.00	-34.696	-5.048	
176.00	-32.714	-8.485	
177.00	-30.949	-10.274	
178.00	-29.480	-11.360	
179.00	-28.285	-11.761	
180.00	-27.317	-11.797	
181.00	-26.665	-11.422	
182.00	-26.267	-11.192	
183.00	-26.136	-10.567	
184.00	-26.331	-9.999	
185.00	-26.833	-9.518	
186.00	-27.652	-8.743	
187.00	-28.884	-7.921	
188.00	-30.634	-6.748	
189.00	-33.020	-4.668	
190.00	-36.414	-1.038	
191.00	-41.625	7.107	
192.00	-50.276	51.876	
193.00	-46.535	136.837	
194.00	-41.450	153.298	
195.00	-39.014	160.339	
196.00	-37.966	164.781	
197.00	-37.766	169.956	
198.00	-38.245	176.189	
199.00	-39.156	-173.985	
200.00	-40.127	-160.388	
201.00	-40.680	-142.286	
202.00	-40.268	-124.082	
203.00	-39.332	-111.299	
204.00	-38.433	-102.438	
205.00	-37.811	-97.942	
206.00	-37.624	-95.963	
207.00	-37.917	-95.598	
208.00	-38.658	-96.645	
209.00	-40.019	-100.057	
210.00	-42.016	-103.763	
211.00	-44.985	-110.810	
212.00	-49.285	-126.509	
213.00	-55.005	-165.856	
214.00	-54.124	129.876	
215.00	-50.093	105.035	
216.00	-47.534	93.759	
217.00	-46.121	89.624	
218.00	-45.736	88.487	
219.00	-45.859	90.429	
220.00	-46.162	95.934	
221.00	-46.572	104.290	
222.00	-46.363	116.503	
223.00	-45.527	126.805	
224.00	-44.256	135.760	
225.00	-43.020	140.566	
226.00	-42.241	142.554	
227.00	-41.285	141.844	
228.00	-40.568	139.217	
229.00	-40.133	134.672	
230.00	-40.006	129.913	
231.00	-39.937	123.968	
232.00	-40.217	117.704	
233.00	-40.405	109.808	
234.00	-40.611	100.458	
235.00	-41.208	93.340	
236.00	-41.455	85.858	
237.00	-41.784	77.081	
238.00	-42.178	69.963	
239.00	-42.508	62.249	
240.00	-42.702	54.497	
241.00	-42.943	48.030	
242.00	-43.272	41.729	
243.00	-43.465	35.502	
244.00	-43.525	29.755	
245.00	-43.770	24.247	
246.00	-43.758	19.020	
247.00	-43.792	12.888	
248.00	-43.828	7.689	
249.00	-43.823	0.267	
250.00	-43.981	-5.431	
251.00	-44.012	-12.140	
252.00	-44.032	-21.474	
253.00	-44.271	-30.714	
254.00	-44.237	-40.442	
255.00	-44.405	-51.693	
256.00	-44.113	-61.612	
257.00	-44.193	-72.989	
258.00	-44.352	-82.730	
259.00	-44.103	-93.064	
260.00	-44.289	-103.100	
261.00	-44.815	-112.859	
262.00	-45.180	-122.949	
263.00	-45.741	-133.208	
264.00	-46.859	-144.268	
265.00	-47.732	-156.680	
266.00	-49.083	-172.013	
267.00	-50.163	170.837	
268.00	-51.669	148.159	
269.00	-52.284	124.783	
270.00	-53.000	105.476	
271.00	-53.578	72.997	
272.00	-53.505	53.311	
273.00	-52.983	29.281	
274.00	-52.674	3.820	
275.00	-51.559	-17.949	
276.00	-50.549	-34.562	
277.00	-49.447	-52.554	
278.00	-49.032	-68.646	
279.00	-48.282	-81.974	
280.00	-48.061	-95.145	
281.00	-47.909	-108.674	
282.00	-48.679	-122.669	
283.00	-48.940	-135.219	
284.00	-49.364	-146.739	
285.00	-50.066	-160.440	
286.00	-51.302	-175.020	
287.00	-52.885	164.063	
288.00	-54.223	146.866	
289.00	-56.663	128.393	
290.00	-61.649	115.446	
291.00	-66.533	79.505	
292.00	-70.267	-10.885	
293.00	-63.474	-63.993	
294.00	-60.324	-87.266	
295.00	-57.761	-99.658	
296.00	-56.493	-115.133	
297.00	-56.064	-131.589	
298.00	-55.477	-153.482	
299.00	-55.208	-168.033	
300.00	-55.276	166.938	
301.00	-55.802	142.267	
302.00	-55.612	134.866	
303.00	-56.201	105.941	
304.00	-58.883	89.156	
305.00	-57.607	61.231	
306.00	-55.353	53.732	
307.00	-56.261	24.793	
308.00	-57.469	3.887	
309.00	-60.225	-5.405	
310.00	-60.421	-32.994	
311.00	-59.037	-42.014	
312.00	-61.951	-62.858	
313.00	-62.422	-78.563	
314.00	-66.252	-102.631	
315.00	-65.098	-101.408	
316.00	-67.979	-114.423	
317.00	-70.348	-155.959	
318.00	-73.218	139.529	
319.00	-78.781	164.536	
320.00	-68.152	105.719	
321.00	-61.314	94.482	
322.00	-66.486	106.337	
323.00	-64.943	-179.614	
324.00	-68.622	166.367	
325.00	-59.833	-148.148	
326.00	-59.058	-155.348	
327.00	-55.578	-148.710	
328.00	-62.894	-175.028	
329.00	-56.636	-161.367	
330.00	-58.391	-176.542	
331.00	-57.482	162.579	
332.00	-57.595	158.412	
333.00	-57.475	138.308	
334.00	-58.044	121.504	
335.00	-61.708	82.428	
336.00	-65.303	49.790	
337.00	-62.853	22.674	
338.00	-65.430	-0.562	
339.00	-63.454	-26.808	
340.00	-63.316	-29.345	
341.00	-61.650	-43.569	
342.00	-59.349	-52.536	
343.00	-63.793	-65.135	
344.00	-65.634	-93.645	
345.00	-66.789	-148.177	
346.00	-68.214	-147.537	
347.00	-59.841	165.159	
348.00	-57.630	165.941	
349.00	-57.333	154.598	
350.00	-53.722	151.013	
351.00	-52.386	146.484	
352.00	-52.767	143.845	
353.00	-50.955	142.801	
354.00	-49.474	140.913	
355.00	-50.090	137.419	
356.00	-50.921	126.345	
357.00	-52.703	121.589	
358.00	-53.204	122.844	
359.00	-55.758	115.978	
Frequency	1800.00	MHz	
Channel	test		
Scan Axis name	Azimuth  [deg]		
Scan Axis	Amplitude	Phase	
			
0.00	-64.126	153.980	
1.00	-61.910	138.984	
2.00	-60.905	140.578	
3.00	-59.275	123.049	
4.00	-59.214	117.341	
5.00	-58.686	110.730	
6.00	-57.820	106.668	
7.00	-57.839	97.580	
8.00	-57.719	89.170	
9.00	-58.237	77.909	
10.00	-59.109	70.613	
11.00	-59.918	72.546	
12.00	-61.193	63.421	
13.00	-62.369	73.441	
14.00	-65.853	83.339	
15.00	-64.314	108.044	
16.00	-64.282	125.676	
17.00	-61.619	133.267	
18.00	-59.577	137.651	
19.00	-58.944	140.966	
20.00	-57.524	136.633	
21.00	-56.949	144.117	
22.00	-57.028	145.662	
23.00	-58.425	148.528	
24.00	-60.051	160.360	
25.00	-62.893	165.474	
26.00	-67.630	-175.590	
27.00	-74.599	-124.852	
28.00	-71.623	-56.956	
29.00	-66.234	-24.636	
30.00	-63.910	-9.238	
31.00	-62.999	4.921	
32.00	-60.857	13.013	
33.00	-60.271	17.754	
34.00	-59.522	26.037	
35.00	-59.551	31.641	
36.00	-59.145	38.303	
37.00	-59.435	42.585	
38.00	-60.208	51.094	
39.00	-60.663	60.950	
40.00	-62.035	76.800	
41.00	-65.158	89.502	
42.00	-67.158	120.251	
43.00	-69.027	144.629	
44.00	-69.069	-166.306	
45.00	-68.343	-147.257	
46.00	-66.399	-128.293	
47.00	-67.233	-120.748	
48.00	-66.946	-114.369	
49.00	-67.575	-122.272	
50.00	-66.649	-121.220	
51.00	-65.996	-122.917	
52.00	-64.240	-124.159	
53.00	-63.167	-115.961	
54.00	-62.098	-106.697	
55.00	-61.709	-92.558	
56.00	-61.128	-79.970	
57.00	-60.653	-65.721	
58.00	-61.143	-60.516	
59.00	-61.938	-48.543	
60.00	-63.128	-34.184	
61.00	-64.946	-24.847	
62.00	-71.579	-14.563	
63.00	-83.756	1.806	
64.00	-69.868	-137.332	
65.00	-64.772	-156.022	
66.00	-62.696	-149.914	
67.00	-59.547	-140.881	
68.00	-59.468	-136.420	
69.00	-58.505	-127.491	
70.00	-59.888	-126.347	
71.00	-60.188	-123.142	
72.00	-62.491	-127.726	
73.00	-63.909	-132.088	
74.00	-65.181	-146.267	
75.00	-65.145	-161.340	
76.00	-64.909	-164.325	
77.00	-63.362	-158.626	
78.00	-62.359	-149.135	
79.00	-61.576	-141.415	
80.00	-60.603	-125.653	
81.00	-58.270	-109.760	
82.00	-58.034	-97.121	
83.00	-57.195	-87.690	
84.00	-55.355	-92.838	
85.00	-56.658	-52.119	
86.00	-55.291	-47.899	
87.00	-57.126	-35.563	
88.00	-58.953	-15.007	
89.00	-58.617	19.646	
90.00	-60.155	43.365	
91.00	-56.958	17.181	
92.00	-64.248	47.456	
93.00	-63.482	73.315	
94.00	-62.467	116.015	
95.00	-59.979	131.575	
96.00	-61.630	147.412	
97.00	-61.344	169.646	
98.00	-60.551	175.359	
99.00	-60.975	-170.945	
100.00	-62.754	-159.336	
101.00	-64.886	-162.832	
102.00	-65.147	-171.778	
103.00	-63.685	173.041	
104.00	-62.328	172.181	
105.00	-59.379	169.115	
106.00	-57.227	176.325	
107.00	-54.867	-170.819	
108.00	-53.028	-159.984	
109.00	-51.157	-143.181	
110.00	-49.568	-131.695	
111.00	-48.008	-118.321	
112.00	-46.703	-106.238	
113.00	-45.524	-93.651	
114.00	-44.776	-80.281	
115.00	-44.084	-67.060	
116.00	-43.667	-53.675	
117.00	-43.400	-38.571	
118.00	-43.168	-22.762	
119.00	-43.108	-6.213	
120.00	-43.022	12.150	
121.00	-42.801	29.613	
122.00	-42.624	48.564	
123.00	-42.512	64.169	
124.00	-42.437	82.065	
125.00	-42.561	100.870	
126.00	-42.952	118.194	
127.00	-43.447	139.319	
128.00	-44.000	160.991	
129.00	-44.346	-173.466	
130.00	-44.372	-145.570	
131.00	-43.637	-118.266	
132.00	-42.693	-94.292	
133.00	-41.394	-72.292	
134.00	-40.280	-53.359	
135.00	-39.183	-35.614	
136.00	-38.498	-19.925	
137.00	-37.889	-4.061	
138.00	-37.537	10.678	
139.00	-37.277	25.692	
140.00	-37.184	40.819	
141.00	-37.268	55.504	
142.00	-37.518	71.633	
143.00	-37.854	87.921	
144.00	-38.306	105.609	
145.00	-38.743	124.393	
146.00	-39.041	143.949	
147.00	-39.179	165.051	
148.00	-39.053	-175.920	
149.00	-38.894	-156.317	
150.00	-38.654	-139.203	
151.00	-38.532	-123.243	
152.00	-38.596	-108.323	
153.00	-38.894	-93.934	
154.00	-39.370	-79.752	
155.00	-40.085	-65.706	
156.00	-40.956	-50.900	
157.00	-42.004	-36.043	
158.00	-43.201	-21.014	
159.00	-44.472	-5.389	
160.00	-45.749	7.692	
161.00	-47.242	19.816	
162.00	-48.810	27.463	
163.00	-50.489	28.566	
164.00	-51.756	19.872	
165.00	-51.381	4.558	
166.00	-49.331	-5.327	
167.00	-47.300	-8.349	
168.00	-45.400	-6.480	
169.00	-44.175	-1.277	
170.00	-43.496	7.334	
171.00	-43.109	17.866	
172.00	-42.834	32.692	
173.00	-42.409	50.019	
174.00	-41.264	68.998	
175.00	-39.515	85.105	
176.00	-37.552	96.623	
177.00	-35.656	104.836	
178.00	-34.006	110.116	
179.00	-32.591	113.871	
180.00	-31.460	115.874	
181.00	-30.570	117.021	
182.00	-29.925	117.586	
183.00	-29.576	117.135	
184.00	-29.431	116.733	
185.00	-29.571	115.810	
186.00	-29.969	114.920	
187.00	-30.667	113.861	
188.00	-31.653	113.093	
189.00	-32.986	112.754	
190.00	-34.720	113.690	
191.00	-36.916	116.080	
192.00	-39.721	122.164	
193.00	-43.000	133.766	
194.00	-46.026	158.286	
195.00	-46.931	-170.623	
196.00	-46.152	-148.354	
197.00	-45.305	-134.367	
198.00	-45.097	-124.617	
199.00	-45.629	-114.064	
200.00	-46.199	-100.324	
201.00	-46.443	-82.643	
202.00	-45.580	-66.684	
203.00	-44.529	-55.372	
204.00	-43.449	-50.835	
205.00	-42.883	-50.057	
206.00	-42.773	-53.058	
207.00	-43.584	-60.382	
208.00	-44.811	-71.848	
209.00	-46.810	-92.068	
210.00	-48.145	-122.852	
211.00	-47.210	-158.401	
212.00	-45.308	175.020	
213.00	-43.535	156.939	
214.00	-42.208	144.232	
215.00	-41.487	133.124	
216.00	-41.270	124.155	
217.00	-41.654	117.255	
218.00	-42.640	111.920	
219.00	-44.441	110.011	
220.00	-46.917	114.830	
221.00	-49.598	136.908	
222.00	-48.448	170.644	
223.00	-44.976	-175.426	
224.00	-42.140	-171.785	
225.00	-40.005	-175.816	
226.00	-38.420	178.401	
227.00	-37.292	171.184	
228.00	-36.562	163.083	
229.00	-36.144	154.460	
230.00	-35.992	145.596	
231.00	-36.105	136.676	
232.00	-36.431	127.162	
233.00	-37.045	117.979	
234.00	-37.877	108.522	
235.00	-38.894	99.248	
236.00	-40.247	90.725	
237.00	-41.947	82.178	
238.00	-43.827	74.316	
239.00	-46.165	68.800	
240.00	-48.826	66.031	
241.00	-51.428	71.502	
242.00	-53.340	84.812	
243.00	-52.866	98.819	
244.00	-51.585	103.331	
245.00	-49.944	98.942	
246.00	-48.818	90.788	
247.00	-47.661	81.177	
248.00	-46.762	68.657	
249.00	-46.157	56.096	
250.00	-45.528	42.193	
251.00	-45.038	29.433	
252.00	-44.727	15.348	
253.00	-44.427	3.732	
254.00	-44.223	-9.115	
255.00	-44.307	-21.701	
256.00	-44.448	-34.788	
257.00	-44.827	-47.203	
258.00	-45.271	-61.212	
259.00	-45.877	-75.068	
260.00	-46.602	-89.547	
261.00	-46.962	-106.119	
262.00	-47.806	-121.471	
263.00	-48.524	-136.541	
264.00	-49.095	-154.838	
265.00	-49.997	-169.789	
266.00	-50.624	170.774	
267.00	-51.782	153.146	
268.00	-52.293	132.689	
269.00	-53.528	110.756	
270.00	-53.511	89.437	
271.00	-53.948	68.357	
272.00	-53.946	47.433	
273.00	-53.954	30.335	
274.00	-54.217	12.819	
275.00	-55.155	-3.427	
276.00	-56.206	-22.007	
277.00	-57.012	-45.173	
278.00	-58.184	-59.608	
279.00	-58.453	-85.428	
280.00	-59.313	-105.086	
281.00	-59.859	-127.197	
282.00	-61.748	-138.315	
283.00	-64.127	-154.699	
284.00	-69.521	-154.630	
285.00	-80.234	154.953	
286.00	-70.355	-0.188	
287.00	-64.259	-21.633	
288.00	-60.272	-28.086	
289.00	-58.689	-44.601	
290.00	-57.485	-53.724	
291.00	-57.999	-67.068	
292.00	-57.644	-79.939	
293.00	-58.273	-97.725	
294.00	-58.653	-118.188	
295.00	-59.882	-142.245	
296.00	-60.336	-166.926	
297.00	-60.035	160.808	
298.00	-60.602	139.075	
299.00	-60.575	118.258	
300.00	-59.822	91.984	
301.00	-59.453	69.469	
302.00	-59.299	48.332	
303.00	-57.969	23.689	
304.00	-58.021	4.971	
305.00	-57.064	-12.112	
306.00	-56.699	-32.521	
307.00	-57.314	-46.640	
308.00	-57.293	-65.328	
309.00	-58.095	-88.266	
310.00	-58.563	-104.446	
311.00	-58.790	-123.776	
312.00	-58.588	-152.956	
313.00	-58.523	-170.833	
314.00	-58.568	170.712	
315.00	-58.620	158.772	
316.00	-60.103	141.391	
317.00	-62.486	145.152	
318.00	-65.812	112.222	
319.00	-83.695	171.120	
320.00	-72.257	-51.956	
321.00	-65.451	-74.255	
322.00	-61.471	-88.515	
323.00	-59.371	-101.684	
324.00	-57.932	-114.840	
325.00	-57.488	-126.254	
326.00	-57.954	-139.037	
327.00	-58.435	-156.321	
328.00	-59.133	-173.340	
329.00	-60.572	167.511	
330.00	-62.639	151.034	
331.00	-64.035	136.314	
332.00	-67.517	130.325	
333.00	-74.176	129.091	
334.00	-70.832	-154.203	
335.00	-65.792	-147.110	
336.00	-61.984	-155.504	
337.00	-59.544	-164.315	
338.00	-59.234	-170.063	
339.00	-57.485	178.108	
340.00	-58.735	159.078	
341.00	-58.766	154.555	
342.00	-59.494	139.749	
343.00	-62.547	117.790	
344.00	-63.823	98.957	
345.00	-67.872	63.046	
346.00	-69.764	16.767	
347.00	-67.081	-31.958	
348.00	-65.142	-54.503	
349.00	-63.129	-83.070	
350.00	-61.612	-93.571	
351.00	-61.045	-112.624	
352.00	-60.534	-126.074	
353.00	-60.740	-139.602	
354.00	-60.577	-148.526	
355.00	-61.281	-163.072	
356.00	-61.709	-173.701	
357.00	-62.424	179.463	
358.00	-62.550	165.088	
359.00	-62.261	160.029	
Frequency	1850.00	MHz	
Channel	test		
Scan Axis name	Azimuth  [deg]		
Scan Axis	Amplitude	Phase	
			
0.00	-63.941	-75.445	
1.00	-68.606	-85.433	
2.00	-74.262	-114.379	
3.00	-69.327	-168.699	
4.00	-66.699	169.952	
5.00	-63.592	159.336	
6.00	-62.584	152.244	
7.00	-63.277	147.379	
8.00	-64.366	137.236	
9.00	-67.145	117.158	
10.00	-68.935	63.954	
11.00	-67.380	9.577	
12.00	-63.017	-0.904	
13.00	-59.527	-10.159	
14.00	-57.081	-10.946	
15.00	-56.042	-13.007	
16.00	-55.326	-9.005	
17.00	-55.338	-3.721	
18.00	-55.715	4.304	
19.00	-57.063	11.887	
20.00	-59.122	21.649	
21.00	-61.749	30.242	
22.00	-65.879	40.300	
23.00	-75.531	30.391	
24.00	-75.112	-72.849	
25.00	-68.234	-64.945	
26.00	-63.904	-98.121	
27.00	-62.136	-70.028	
28.00	-64.023	-80.467	
29.00	-64.996	-81.792	
30.00	-65.811	-93.349	
31.00	-65.661	-104.500	
32.00	-64.998	-105.734	
33.00	-64.724	-138.401	
34.00	-65.179	-142.691	
35.00	-63.845	-148.112	
36.00	-61.584	-160.038	
37.00	-63.370	-165.380	
38.00	-63.163	-166.823	
39.00	-63.089	-156.121	
40.00	-63.321	-142.987	
41.00	-65.125	-121.682	
42.00	-65.836	-90.000	
43.00	-69.124	-46.079	
44.00	-64.330	-25.433	
45.00	-65.255	24.429	
46.00	-64.353	56.297	
47.00	-63.607	85.899	
48.00	-62.317	117.419	
49.00	-61.921	143.941	
50.00	-60.473	166.840	
51.00	-60.657	-167.434	
52.00	-60.958	-147.898	
53.00	-63.113	-117.746	
54.00	-63.316	-91.631	
55.00	-66.375	-42.141	
56.00	-64.975	19.176	
57.00	-60.671	57.428	
58.00	-57.538	82.644	
59.00	-55.038	105.736	
60.00	-53.900	118.783	
61.00	-52.891	133.653	
62.00	-52.250	147.663	
63.00	-52.458	161.945	
64.00	-53.233	176.601	
65.00	-54.259	-167.843	
66.00	-56.377	-150.552	
67.00	-59.454	-127.220	
68.00	-63.845	-94.156	
69.00	-63.996	-26.085	
70.00	-60.547	8.649	
71.00	-58.013	32.671	
72.00	-56.211	47.527	
73.00	-56.193	64.158	
74.00	-56.009	81.640	
75.00	-56.618	98.944	
76.00	-57.600	118.950	
77.00	-58.438	146.656	
78.00	-58.981	170.632	
79.00	-59.079	-156.605	
80.00	-58.559	-141.804	
81.00	-57.447	-109.668	
82.00	-56.213	-89.823	
83.00	-55.566	-70.027	
84.00	-54.863	-49.708	
85.00	-54.612	-33.498	
86.00	-53.554	-16.889	
87.00	-54.027	-6.245	
88.00	-54.282	7.776	
89.00	-54.658	27.455	
90.00	-55.479	44.835	
91.00	-56.775	61.610	
92.00	-56.363	95.482	
93.00	-56.888	118.485	
94.00	-55.754	148.960	
95.00	-53.995	165.731	
96.00	-52.587	-176.163	
97.00	-51.471	-164.958	
98.00	-50.512	-153.876	
99.00	-50.078	-142.061	
100.00	-49.715	-132.063	
101.00	-49.879	-114.541	
102.00	-50.047	-100.336	
103.00	-50.212	-87.379	
104.00	-50.490	-73.378	
105.00	-49.827	-56.158	
106.00	-50.466	-42.608	
107.00	-50.377	-26.160	
108.00	-50.095	-11.998	
109.00	-49.801	4.035	
110.00	-49.369	16.421	
111.00	-48.923	31.606	
112.00	-48.165	44.065	
113.00	-47.673	57.586	
114.00	-46.960	69.284	
115.00	-46.291	80.186	
116.00	-45.648	91.654	
117.00	-45.068	100.837	
118.00	-44.531	111.947	
119.00	-44.046	121.330	
120.00	-43.434	131.969	
121.00	-43.208	141.704	
122.00	-42.958	152.992	
123.00	-42.869	162.904	
124.00	-42.800	174.288	
125.00	-43.029	-174.913	
126.00	-43.410	-163.852	
127.00	-44.183	-151.591	
128.00	-45.410	-139.958	
129.00	-46.981	-122.998	
130.00	-49.561	-104.708	
131.00	-53.002	-70.676	
132.00	-53.977	-12.996	
133.00	-50.065	31.644	
134.00	-46.334	54.920	
135.00	-43.420	71.190	
136.00	-41.609	83.971	
137.00	-40.131	95.177	
138.00	-39.123	106.004	
139.00	-38.424	116.196	
140.00	-38.002	126.617	
141.00	-37.870	136.445	
142.00	-38.040	146.381	
143.00	-38.429	155.807	
144.00	-39.090	165.588	
145.00	-40.070	175.028	
146.00	-41.399	-176.264	
147.00	-43.077	-166.738	
148.00	-45.238	-157.144	
149.00	-48.282	-145.877	
150.00	-51.703	-133.342	
151.00	-56.874	-110.963	
152.00	-64.354	-62.839	
153.00	-65.068	15.192	
154.00	-60.514	62.696	
155.00	-57.434	92.334	
156.00	-54.419	121.192	
157.00	-51.439	138.902	
158.00	-48.752	154.062	
159.00	-46.308	163.392	
160.00	-44.413	171.684	
161.00	-42.948	176.818	
162.00	-41.759	-179.950	
163.00	-40.975	-178.472	
164.00	-40.615	-179.267	
165.00	-40.574	178.211	
166.00	-40.880	173.644	
167.00	-41.481	166.004	
168.00	-42.331	155.593	
169.00	-43.119	142.432	
170.00	-43.857	127.525	
171.00	-44.624	111.070	
172.00	-45.806	92.912	
173.00	-48.036	70.397	
174.00	-50.236	26.498	
175.00	-47.067	-31.554	
176.00	-41.728	-58.020	
177.00	-37.320	-71.942	
178.00	-34.199	-80.405	
179.00	-31.718	-86.620	
180.00	-29.712	-92.267	
181.00	-28.190	-96.817	
182.00	-27.015	-101.207	
183.00	-26.240	-105.378	
184.00	-25.779	-109.605	
185.00	-25.633	-113.928	
186.00	-25.808	-118.397	
187.00	-26.296	-123.514	
188.00	-27.119	-128.869	
189.00	-28.325	-135.373	
190.00	-29.850	-142.610	
191.00	-31.821	-152.610	
192.00	-34.315	-164.704	
193.00	-37.013	178.446	
194.00	-39.574	153.931	
195.00	-41.316	126.315	
196.00	-41.724	101.118	
197.00	-42.007	82.634	
198.00	-42.681	70.316	
199.00	-43.815	63.126	
200.00	-45.641	61.355	
201.00	-47.748	67.965	
202.00	-48.996	85.207	
203.00	-48.329	100.413	
204.00	-46.880	105.442	
205.00	-45.900	104.809	
206.00	-45.700	94.988	
207.00	-45.985	80.570	
208.00	-46.780	64.100	
209.00	-48.047	38.155	
210.00	-47.992	5.339	
211.00	-48.115	-26.691	
212.00	-46.412	-55.489	
213.00	-44.950	-80.812	
214.00	-44.099	-101.142	
215.00	-43.474	-118.899	
216.00	-43.005	-140.074	
217.00	-43.384	-164.148	
218.00	-43.477	173.791	
219.00	-43.761	147.543	
220.00	-43.695	117.866	
221.00	-43.394	92.674	
222.00	-42.739	64.750	
223.00	-42.064	39.696	
224.00	-40.418	13.814	
225.00	-40.150	-4.533	
226.00	-39.339	-24.943	
227.00	-38.784	-44.164	
228.00	-38.271	-61.710	
229.00	-38.072	-79.299	
230.00	-37.888	-96.596	
231.00	-37.991	-112.711	
232.00	-38.346	-129.606	
233.00	-38.674	-145.239	
234.00	-39.397	-163.027	
235.00	-40.392	-179.768	
236.00	-41.606	162.570	
237.00	-42.780	143.239	
238.00	-44.264	123.503	
239.00	-46.166	102.404	
240.00	-48.108	78.825	
241.00	-50.106	48.484	
242.00	-52.211	16.320	
243.00	-52.841	-21.392	
244.00	-52.794	-58.148	
245.00	-51.706	-90.715	
246.00	-50.671	-118.571	
247.00	-49.939	-142.049	
248.00	-49.239	-163.678	
249.00	-48.827	174.932	
250.00	-48.600	154.405	
251.00	-48.442	132.663	
252.00	-48.196	113.123	
253.00	-48.135	93.051	
254.00	-48.159	71.276	
255.00	-48.099	52.616	
256.00	-47.883	33.670	
257.00	-47.801	16.181	
258.00	-48.049	-1.346	
259.00	-48.235	-18.422	
260.00	-48.298	-36.138	
261.00	-49.089	-54.023	
262.00	-49.628	-73.897	
263.00	-50.153	-89.332	
264.00	-50.436	-108.833	
265.00	-50.870	-127.505	
266.00	-51.355	-145.889	
267.00	-51.940	-167.771	
268.00	-52.471	175.111	
269.00	-53.165	155.306	
270.00	-53.849	135.604	
271.00	-54.477	117.144	
272.00	-55.545	95.139	
273.00	-56.311	70.484	
274.00	-56.333	46.037	
275.00	-57.099	25.021	
276.00	-56.441	0.286	
277.00	-58.043	-20.418	
278.00	-56.976	-46.178	
279.00	-57.335	-70.386	
280.00	-56.447	-98.539	
281.00	-56.478	-117.361	
282.00	-56.946	-136.341	
283.00	-55.646	-156.019	
284.00	-55.232	-173.672	
285.00	-55.075	171.676	
286.00	-55.227	153.357	
287.00	-57.123	126.777	
288.00	-57.735	108.343	
289.00	-58.336	85.761	
290.00	-58.561	64.918	
291.00	-58.335	41.852	
292.00	-59.299	13.815	
293.00	-59.050	0.762	
294.00	-59.081	-19.929	
295.00	-59.765	-34.191	
296.00	-59.811	-42.644	
297.00	-60.931	-54.497	
298.00	-61.473	-62.977	
299.00	-62.171	-61.713	
300.00	-62.137	-57.129	
301.00	-61.325	-51.965	
302.00	-60.383	-49.894	
303.00	-58.372	-60.822	
304.00	-57.990	-58.183	
305.00	-54.301	-68.867	
306.00	-56.540	-74.228	
307.00	-56.243	-84.211	
308.00	-57.124	-96.044	
309.00	-56.685	-106.346	
310.00	-57.640	-121.009	
311.00	-59.469	-133.153	
312.00	-61.177	-151.854	
313.00	-63.962	-175.031	
314.00	-66.588	151.021	
315.00	-66.003	108.946	
316.00	-64.554	73.483	
317.00	-62.655	54.259	
318.00	-61.440	33.219	
319.00	-62.538	31.731	
320.00	-58.496	17.474	
321.00	-61.332	3.035	
322.00	-61.853	-2.888	
323.00	-63.404	-10.392	
324.00	-65.581	-19.925	
325.00	-68.469	-25.818	
326.00	-72.428	-32.181	
327.00	-86.425	29.040	
328.00	-81.557	54.961	
329.00	-74.220	81.209	
330.00	-69.105	75.027	
331.00	-68.201	73.093	
332.00	-65.639	41.668	
333.00	-66.977	28.069	
334.00	-65.569	13.729	
335.00	-65.851	-13.054	
336.00	-66.447	-31.507	
337.00	-64.773	-49.361	
338.00	-65.281	-74.604	
339.00	-70.479	-66.692	
340.00	-63.517	-139.312	
341.00	-71.638	-68.025	
342.00	-61.475	-16.150	
343.00	-62.827	14.751	
344.00	-60.996	15.569	
345.00	-59.514	2.225	
346.00	-59.725	2.042	
347.00	-59.441	-7.056	
348.00	-60.879	-1.104	
349.00	-61.578	-21.141	
350.00	-63.025	-36.689	
351.00	-64.682	-42.113	
352.00	-63.687	-43.719	
353.00	-70.586	-63.171	
354.00	-67.699	-80.826	
355.00	-66.516	-79.596	
356.00	-64.045	-75.294	
357.00	-64.078	-83.600	
358.00	-64.650	-72.549	
359.00	-64.826	-86.584	
Frequency	1950.00	MHz	
Channel	test		
Scan Axis name	Azimuth  [deg]		
Scan Axis	Amplitude	Phase	
			
0.00	-67.260	-44.774	
1.00	-66.168	-59.636	
2.00	-67.154	-64.745	
3.00	-67.334	-57.414	
4.00	-66.975	-63.130	
5.00	-69.877	-80.124	
6.00	-73.095	-105.666	
7.00	-75.041	-176.104	
8.00	-69.951	130.721	
9.00	-68.699	145.770	
10.00	-65.911	161.506	
11.00	-61.986	152.283	
12.00	-62.178	163.733	
13.00	-60.925	171.275	
14.00	-63.862	179.307	
15.00	-62.837	168.755	
16.00	-62.819	169.428	
17.00	-68.426	-170.359	
18.00	-65.126	173.458	
19.00	-69.052	176.512	
20.00	-72.137	-164.945	
21.00	-77.411	-133.109	
22.00	-85.771	173.257	
23.00	-82.596	49.845	
24.00	-70.624	-38.176	
25.00	-70.988	27.730	
26.00	-69.743	59.442	
27.00	-78.850	7.146	
28.00	-73.598	31.328	
29.00	-74.595	47.517	
30.00	-81.646	75.364	
31.00	-68.827	71.061	
32.00	-79.532	-151.521	
33.00	-69.659	-106.617	
34.00	-67.777	-141.842	
35.00	-62.921	-119.262	
36.00	-60.457	-113.073	
37.00	-60.778	-113.759	
38.00	-59.548	-105.719	
39.00	-60.364	-101.200	
40.00	-61.184	-87.749	
41.00	-62.079	-82.048	
42.00	-62.138	-63.814	
43.00	-61.506	-47.475	
44.00	-61.582	-36.128	
45.00	-60.274	-27.626	
46.00	-60.236	-22.351	
47.00	-59.902	-14.838	
48.00	-60.864	-17.186	
49.00	-62.313	-16.700	
50.00	-64.829	-29.106	
51.00	-66.652	-45.657	
52.00	-66.023	-78.196	
53.00	-63.844	-89.697	
54.00	-62.414	-95.800	
55.00	-61.682	-97.089	
56.00	-61.707	-85.956	
57.00	-64.041	-77.886	
58.00	-67.744	-63.824	
59.00	-70.254	2.266	
60.00	-67.416	53.849	
61.00	-62.592	77.195	
62.00	-59.795	94.313	
63.00	-58.340	104.374	
64.00	-57.374	110.782	
65.00	-57.680	118.423	
66.00	-57.532	118.040	
67.00	-58.670	115.163	
68.00	-60.318	120.853	
69.00	-62.828	113.156	
70.00	-64.663	99.161	
71.00	-62.839	95.573	
72.00	-62.512	72.609	
73.00	-62.688	76.160	
74.00	-62.666	81.324	
75.00	-64.861	103.079	
76.00	-66.425	138.321	
77.00	-66.691	164.579	
78.00	-64.495	-161.337	
79.00	-61.639	-141.145	
80.00	-60.316	-127.695	
81.00	-57.988	-112.405	
82.00	-57.118	-97.333	
83.00	-56.917	-88.146	
84.00	-57.296	-75.125	
85.00	-56.909	-66.027	
86.00	-57.310	-54.186	
87.00	-58.584	-37.569	
88.00	-58.926	-20.792	
89.00	-60.492	-6.076	
90.00	-60.834	28.268	
91.00	-60.349	50.320	
92.00	-60.742	81.743	
93.00	-59.325	95.576	
94.00	-57.812	111.446	
95.00	-58.665	121.832	
96.00	-57.200	128.426	
97.00	-58.061	145.956	
98.00	-59.128	159.757	
99.00	-58.144	172.791	
100.00	-60.191	-165.544	
101.00	-59.363	-136.838	
102.00	-59.588	-113.900	
103.00	-58.619	-95.014	
104.00	-59.013	-85.132	
105.00	-59.132	-73.347	
106.00	-59.881	-63.584	
107.00	-61.289	-54.910	
108.00	-62.732	-48.840	
109.00	-64.806	-46.592	
110.00	-66.484	-55.828	
111.00	-68.794	-77.340	
112.00	-66.004	-82.060	
113.00	-63.940	-87.048	
114.00	-61.999	-83.356	
115.00	-59.527	-81.182	
116.00	-58.576	-69.458	
117.00	-57.473	-57.677	
118.00	-57.260	-42.531	
119.00	-57.074	-26.819	
120.00	-56.520	-3.401	
121.00	-55.270	17.017	
122.00	-54.086	40.043	
123.00	-52.485	60.440	
124.00	-50.964	76.247	
125.00	-49.574	88.610	
126.00	-48.562	97.109	
127.00	-47.909	110.032	
128.00	-47.705	119.845	
129.00	-47.754	130.204	
130.00	-47.998	140.776	
131.00	-49.218	151.330	
132.00	-50.407	164.666	
133.00	-52.548	179.676	
134.00	-55.145	-155.633	
135.00	-57.051	-115.956	
136.00	-56.316	-71.951	
137.00	-53.222	-39.114	
138.00	-50.680	-20.394	
139.00	-48.421	-6.063	
140.00	-46.851	5.443	
141.00	-45.621	14.554	
142.00	-44.906	23.423	
143.00	-44.463	31.157	
144.00	-44.388	37.593	
145.00	-44.632	44.043	
146.00	-45.424	48.561	
147.00	-46.491	51.877	
148.00	-48.174	53.659	
149.00	-50.700	52.721	
150.00	-53.766	43.798	
151.00	-58.015	14.985	
152.00	-56.490	-23.064	
153.00	-53.696	-32.842	
154.00	-51.653	-36.607	
155.00	-50.778	-30.313	
156.00	-50.951	-22.295	
157.00	-51.442	-3.506	
158.00	-51.821	23.744	
159.00	-50.805	53.979	
160.00	-48.726	74.824	
161.00	-46.600	88.975	
162.00	-44.737	99.427	
163.00	-43.744	103.884	
164.00	-43.286	106.384	
165.00	-43.190	102.512	
166.00	-44.329	93.177	
167.00	-45.084	80.180	
168.00	-44.654	58.684	
169.00	-43.510	42.757	
170.00	-42.410	32.518	
171.00	-41.676	26.069	
172.00	-42.089	22.188	
173.00	-44.373	20.558	
174.00	-51.735	19.784	
175.00	-51.859	-161.975	
176.00	-40.788	-162.651	
177.00	-35.310	-162.705	
178.00	-31.753	-162.622	
179.00	-29.169	-162.626	
180.00	-27.281	-162.697	
181.00	-25.934	-162.741	
182.00	-25.061	-162.876	
183.00	-24.583	-163.205	
184.00	-24.490	-163.213	
185.00	-24.789	-163.385	
186.00	-25.494	-163.262	
187.00	-26.628	-162.993	
188.00	-28.249	-161.955	
189.00	-30.513	-159.854	
190.00	-33.490	-154.647	
191.00	-37.438	-143.384	
192.00	-41.757	-114.918	
193.00	-42.740	-72.116	
194.00	-40.855	-46.247	
195.00	-39.669	-35.610	
196.00	-39.467	-30.048	
197.00	-40.494	-26.596	
198.00	-42.296	-21.406	
199.00	-45.186	-9.298	
200.00	-47.992	10.850	
201.00	-48.861	47.667	
202.00	-47.144	69.943	
203.00	-46.027	76.358	
204.00	-45.632	77.715	
205.00	-46.572	74.149	
206.00	-48.539	65.723	
207.00	-52.092	57.064	
208.00	-58.805	25.290	
209.00	-62.150	-74.833	
210.00	-54.417	-113.473	
211.00	-50.849	-128.200	
212.00	-48.897	-141.141	
213.00	-48.406	-150.409	
214.00	-48.782	-162.507	
215.00	-49.646	-173.696	
216.00	-51.290	178.506	
217.00	-54.668	167.153	
218.00	-59.818	166.102	
219.00	-69.493	-142.110	
220.00	-61.252	-81.341	
221.00	-55.519	-83.129	
222.00	-52.400	-94.186	
223.00	-50.609	-104.448	
224.00	-49.519	-116.861	
225.00	-48.863	-128.555	
226.00	-48.535	-141.109	
227.00	-48.608	-152.135	
228.00	-49.189	-162.239	
229.00	-50.135	-171.466	
230.00	-51.518	-179.161	
231.00	-53.220	176.346	
232.00	-55.048	176.131	
233.00	-56.749	-177.462	
234.00	-56.958	-166.523	
235.00	-56.218	-159.979	
236.00	-55.394	-159.438	
237.00	-54.259	-167.136	
238.00	-53.681	-174.709	
239.00	-53.386	170.160	
240.00	-53.635	153.613	
241.00	-53.900	140.154	
242.00	-53.605	118.807	
243.00	-54.291	101.035	
244.00	-54.630	79.379	
245.00	-54.725	57.347	
246.00	-55.033	35.795	
247.00	-55.033	8.997	
248.00	-54.645	-12.449	
249.00	-53.919	-35.790	
250.00	-53.556	-54.098	
251.00	-52.936	-73.570	
252.00	-52.490	-90.880	
253.00	-52.152	-103.812	
254.00	-52.350	-118.749	
255.00	-52.533	-135.466	
256.00	-52.720	-149.799	
257.00	-53.377	-165.373	
258.00	-54.074	179.158	
259.00	-54.528	161.666	
260.00	-55.508	146.145	
261.00	-56.305	129.977	
262.00	-57.138	111.236	
263.00	-58.308	99.624	
264.00	-58.787	81.973	
265.00	-60.314	67.780	
266.00	-61.860	52.660	
267.00	-63.382	28.009	
268.00	-66.264	21.580	
269.00	-67.049	-8.092	
270.00	-68.756	-62.083	
271.00	-68.471	-96.717	
272.00	-68.788	-118.306	
273.00	-67.505	-137.354	
274.00	-65.472	-153.300	
275.00	-67.509	-160.842	
276.00	-67.558	171.754	
277.00	-69.465	177.918	
278.00	-72.701	179.149	
279.00	-76.741	168.171	
280.00	-78.372	-166.369	
281.00	-75.358	-103.672	
282.00	-70.987	-68.885	
283.00	-67.230	-92.136	
284.00	-64.471	-101.774	
285.00	-62.866	-121.897	
286.00	-61.049	-129.668	
287.00	-58.935	-151.250	
288.00	-58.491	-159.676	
289.00	-57.132	-173.298	
290.00	-56.920	176.639	
291.00	-56.853	166.809	
292.00	-57.420	157.138	
293.00	-58.305	143.656	
294.00	-60.511	132.756	
295.00	-63.107	120.213	
296.00	-65.885	100.885	
297.00	-71.849	29.714	
298.00	-68.235	-15.913	
299.00	-63.336	-49.714	
300.00	-62.813	-48.284	
301.00	-60.464	-82.463	
302.00	-59.191	-92.306	
303.00	-62.032	-110.317	
304.00	-59.904	-119.362	
305.00	-61.323	-121.833	
306.00	-61.312	-132.415	
307.00	-68.258	-131.492	
308.00	-77.037	174.812	
309.00	-73.245	75.079	
310.00	-70.323	18.670	
311.00	-67.136	-1.911	
312.00	-67.286	7.998	
313.00	-65.798	-35.578	
314.00	-64.709	-8.295	
315.00	-65.011	-18.357	
316.00	-70.522	1.798	
317.00	-65.151	-25.754	
318.00	-70.881	-27.955	
319.00	-73.686	-5.323	
320.00	-72.956	-49.162	
321.00	-69.544	-7.305	
322.00	-69.601	1.584	
323.00	-70.271	0.351	
324.00	-68.525	-9.850	
325.00	-67.415	-11.108	
326.00	-65.319	-35.932	
327.00	-64.396	-38.188	
328.00	-63.896	-48.729	
329.00	-64.034	-50.470	
330.00	-63.711	-75.842	
331.00	-65.090	-83.272	
332.00	-65.929	-74.047	
333.00	-65.391	-69.453	
334.00	-68.551	-49.471	
335.00	-68.086	-56.221	
336.00	-66.078	-27.514	
337.00	-65.897	-44.921	
338.00	-67.457	-36.447	
339.00	-67.415	-29.678	
340.00	-67.699	-50.146	
341.00	-67.249	-45.255	
342.00	-66.536	-50.572	
343.00	-69.410	-52.343	
344.00	-68.816	-68.008	
345.00	-66.677	-114.652	
346.00	-65.706	-120.417	
347.00	-62.238	-136.306	
348.00	-60.988	-146.749	
349.00	-60.941	-159.261	
350.00	-60.231	-172.165	
351.00	-58.616	-176.483	
352.00	-59.658	169.480	
353.00	-59.740	159.382	
354.00	-62.125	156.257	
355.00	-63.087	142.714	
356.00	-65.715	143.723	
357.00	-80.538	147.979	
358.00	-86.328	154.657	
359.00	-82.903	-45.831	
Frequency	2050.00	MHz	
Channel	test		
Scan Axis name	Azimuth  [deg]		
Scan Axis	Amplitude	Phase	
			
0.00	-76.711	140.937	
1.00	-69.526	172.782	
2.00	-72.655	167.292	
3.00	-70.521	138.373	
4.00	-65.277	158.653	
5.00	-65.889	161.638	
6.00	-64.557	166.727	
7.00	-67.135	159.310	
8.00	-80.964	-65.133	
9.00	-67.318	166.297	
10.00	-68.627	-155.545	
11.00	-62.161	-177.626	
12.00	-71.911	-100.837	
13.00	-69.158	-97.347	
14.00	-65.668	-86.157	
15.00	-66.117	-84.730	
16.00	-64.636	-59.897	
17.00	-65.464	-58.051	
18.00	-63.226	-40.098	
19.00	-65.654	-61.285	
20.00	-66.398	-72.820	
21.00	-65.298	-85.205	
22.00	-63.849	-92.666	
23.00	-65.004	-97.246	
24.00	-62.660	-101.673	
25.00	-64.794	-106.788	
26.00	-65.292	-108.175	
27.00	-67.656	-110.367	
28.00	-68.021	-112.622	
29.00	-72.506	-119.849	
30.00	-72.694	-125.657	
31.00	-77.062	-157.343	
32.00	-72.246	-170.917	
33.00	-71.403	-157.453	
34.00	-67.104	-162.063	
35.00	-64.789	-152.227	
36.00	-61.460	-150.997	
37.00	-61.380	-141.505	
38.00	-62.091	-134.894	
39.00	-61.721	-119.754	
40.00	-62.629	-109.550	
41.00	-64.558	-102.514	
42.00	-67.677	-80.396	
43.00	-69.911	-62.554	
44.00	-81.295	-24.763	
45.00	-82.797	113.860	
46.00	-76.731	140.295	
47.00	-70.801	158.494	
48.00	-67.348	147.216	
49.00	-65.322	156.811	
50.00	-64.333	158.695	
51.00	-62.610	165.888	
52.00	-61.883	167.927	
53.00	-61.338	177.158	
54.00	-60.780	178.479	
55.00	-61.569	-168.283	
56.00	-62.547	-165.723	
57.00	-65.633	-160.367	
58.00	-72.021	-137.316	
59.00	-80.288	-0.900	
60.00	-67.474	39.803	
61.00	-63.635	41.811	
62.00	-60.979	51.526	
63.00	-59.824	61.508	
64.00	-59.472	72.332	
65.00	-60.002	83.197	
66.00	-62.040	85.400	
67.00	-63.784	106.164	
68.00	-67.039	122.590	
69.00	-71.825	151.331	
70.00	-85.071	176.903	
71.00	-77.603	-71.108	
72.00	-75.035	-13.620	
73.00	-71.841	11.609	
74.00	-69.326	29.895	
75.00	-68.002	39.177	
76.00	-67.659	55.350	
77.00	-67.169	80.327	
78.00	-68.734	68.361	
79.00	-68.947	96.669	
80.00	-71.678	105.786	
81.00	-74.746	132.503	
82.00	-74.486	143.137	
83.00	-81.705	167.410	
84.00	-84.967	27.216	
85.00	-70.898	65.063	
86.00	-72.127	92.419	
87.00	-69.774	67.406	
88.00	-65.725	60.538	
89.00	-61.270	72.901	
90.00	-60.965	69.641	
91.00	-59.395	76.716	
92.00	-60.160	75.076	
93.00	-60.111	75.444	
94.00	-59.816	79.289	
95.00	-61.864	91.490	
96.00	-63.774	89.351	
97.00	-68.020	114.430	
98.00	-68.107	131.339	
99.00	-69.689	175.233	
100.00	-67.056	-155.784	
101.00	-64.460	-125.385	
102.00	-62.669	-114.232	
103.00	-61.831	-101.776	
104.00	-62.182	-97.086	
105.00	-61.506	-76.229	
106.00	-61.897	-60.755	
107.00	-61.979	-38.410	
108.00	-62.340	-21.289	
109.00	-61.830	6.621	
110.00	-61.644	22.368	
111.00	-61.747	42.526	
112.00	-62.169	62.337	
113.00	-62.629	82.014	
114.00	-64.071	102.978	
115.00	-65.665	134.258	
116.00	-66.714	176.239	
117.00	-65.899	-135.512	
118.00	-63.597	-96.046	
119.00	-60.216	-64.813	
120.00	-57.730	-40.604	
121.00	-55.863	-16.868	
122.00	-53.763	-1.039	
123.00	-52.503	14.926	
124.00	-51.041	33.706	
125.00	-50.095	49.296	
126.00	-49.363	64.437	
127.00	-49.381	82.054	
128.00	-48.957	98.285	
129.00	-48.964	115.423	
130.00	-49.290	131.719	
131.00	-49.611	151.186	
132.00	-50.424	171.720	
133.00	-50.955	-167.222	
134.00	-51.621	-144.451	
135.00	-52.098	-122.653	
136.00	-52.608	-101.498	
137.00	-53.112	-81.307	
138.00	-53.785	-62.128	
139.00	-54.759	-42.815	
140.00	-56.682	-25.669	
141.00	-59.023	-13.259	
142.00	-62.913	-1.089	
143.00	-74.472	8.800	
144.00	-67.983	-127.557	
145.00	-61.482	-129.941	
146.00	-57.674	-119.096	
147.00	-55.575	-110.850	
148.00	-54.874	-106.644	
149.00	-54.700	-107.463	
150.00	-55.023	-108.222	
151.00	-55.933	-120.654	
152.00	-56.162	-140.688	
153.00	-53.923	-152.226	
154.00	-51.327	-161.863	
155.00	-49.388	-163.898	
156.00	-47.987	-160.304	
157.00	-47.234	-158.731	
158.00	-46.932	-153.777	
159.00	-47.433	-148.782	
160.00	-48.925	-140.775	
161.00	-51.212	-129.583	
162.00	-55.256	-106.563	
163.00	-58.073	-61.636	
164.00	-55.610	-22.646	
165.00	-53.466	-2.209	
166.00	-52.373	4.006	
167.00	-52.617	0.149	
168.00	-52.896	-16.579	
169.00	-51.779	-38.527	
170.00	-49.315	-58.056	
171.00	-47.024	-66.571	
172.00	-45.420	-67.553	
173.00	-45.236	-62.872	
174.00	-45.978	-48.686	
175.00	-47.444	-14.835	
176.00	-44.723	34.967	
177.00	-39.401	60.053	
178.00	-35.210	71.362	
179.00	-31.940	77.621	
180.00	-29.461	81.810	
181.00	-27.609	84.549	
182.00	-26.250	86.735	
183.00	-25.356	88.206	
184.00	-24.835	89.573	
185.00	-24.724	90.437	
186.00	-24.989	91.409	
187.00	-25.664	92.128	
188.00	-26.762	93.311	
189.00	-28.382	94.704	
190.00	-30.534	97.356	
191.00	-33.371	101.967	
192.00	-37.092	111.650	
193.00	-41.240	131.399	
194.00	-43.984	167.263	
195.00	-43.728	-163.494	
196.00	-43.376	-149.281	
197.00	-44.232	-143.285	
198.00	-46.612	-141.318	
199.00	-52.576	-139.383	
200.00	-77.840	-1.348	
201.00	-52.701	30.966	
202.00	-47.859	28.903	
203.00	-45.986	28.086	
204.00	-45.350	27.011	
205.00	-46.228	24.852	
206.00	-47.906	26.421	
207.00	-50.755	35.362	
208.00	-53.931	63.344	
209.00	-53.126	97.039	
210.00	-50.519	110.434	
211.00	-48.777	111.957	
212.00	-47.993	108.003	
213.00	-48.413	100.410	
214.00	-49.480	89.902	
215.00	-51.903	72.664	
216.00	-54.959	43.719	
217.00	-56.331	-9.023	
218.00	-53.967	-49.427	
219.00	-51.377	-74.279	
220.00	-49.729	-90.766	
221.00	-48.871	-104.795	
222.00	-48.756	-117.941	
223.00	-48.936	-128.718	
224.00	-49.754	-140.752	
225.00	-51.101	-151.751	
226.00	-52.570	-161.321	
227.00	-54.630	-169.099	
228.00	-56.281	-170.863	
229.00	-58.469	-170.433	
230.00	-59.134	-162.009	
231.00	-58.932	-156.267	
232.00	-58.223	-155.321	
233.00	-57.588	-158.686	
234.00	-57.303	-161.842	
235.00	-58.012	-166.264	
236.00	-59.123	-169.111	
237.00	-61.299	-165.644	
238.00	-64.283	-138.244	
239.00	-62.565	-98.492	
240.00	-59.070	-82.145	
241.00	-55.822	-82.411	
242.00	-53.846	-86.945	
243.00	-52.590	-94.676	
244.00	-51.694	-103.405	
245.00	-51.350	-112.908	
246.00	-51.633	-123.749	
247.00	-52.048	-136.377	
248.00	-52.849	-149.882	
249.00	-54.167	-165.888	
250.00	-55.647	175.705	
251.00	-57.323	159.339	
252.00	-58.704	130.097	
253.00	-60.715	106.509	
254.00	-60.712	75.416	
255.00	-60.576	45.557	
256.00	-60.544	21.596	
257.00	-59.864	0.807	
258.00	-59.616	-15.846	
259.00	-60.180	-29.360	
260.00	-61.339	-47.266	
261.00	-62.352	-64.715	
262.00	-63.036	-84.353	
263.00	-64.583	-106.166	
264.00	-65.104	-132.119	
265.00	-65.545	-157.871	
266.00	-64.989	-179.961	
267.00	-63.949	163.691	
268.00	-62.597	152.201	
269.00	-62.320	139.646	
270.00	-61.811	131.108	
271.00	-60.738	122.777	
272.00	-61.382	119.182	
273.00	-60.572	113.863	
274.00	-60.602	108.296	
275.00	-61.146	98.361	
276.00	-63.231	87.482	
277.00	-63.315	78.498	
278.00	-64.145	61.255	
279.00	-64.366	46.276	
280.00	-66.348	27.160	
281.00	-66.640	16.443	
282.00	-68.709	-7.111	
283.00	-68.598	-34.942	
284.00	-70.950	-65.708	
285.00	-71.186	-105.213	
286.00	-67.302	-143.163	
287.00	-63.843	167.341	
288.00	-61.597	156.305	
289.00	-60.252	139.031	
290.00	-58.273	130.736	
291.00	-57.236	118.952	
292.00	-56.535	113.267	
293.00	-55.977	105.235	
294.00	-56.234	100.508	
295.00	-56.314	97.989	
296.00	-56.942	97.117	
297.00	-58.012	98.741	
298.00	-58.433	103.283	
299.00	-59.247	109.013	
300.00	-59.029	111.453	
301.00	-59.221	117.675	
302.00	-60.063	118.575	
303.00	-59.940	116.785	
304.00	-60.814	111.611	
305.00	-66.556	104.315	
306.00	-62.568	123.016	
307.00	-62.880	118.623	
308.00	-66.267	110.307	
309.00	-64.403	141.039	
310.00	-62.059	154.012	
311.00	-59.456	124.560	
312.00	-61.377	114.405	
313.00	-60.373	86.922	
314.00	-63.841	92.547	
315.00	-62.942	53.723	
316.00	-63.153	33.610	
317.00	-62.221	-3.358	
318.00	-62.439	-27.932	
319.00	-61.419	-46.230	
320.00	-60.563	-58.679	
321.00	-64.258	-82.079	
322.00	-65.741	-114.632	
323.00	-65.713	-149.453	
324.00	-64.369	179.387	
325.00	-62.956	150.323	
326.00	-62.077	129.788	
327.00	-61.146	118.641	
328.00	-60.476	108.664	
329.00	-60.523	101.895	
330.00	-61.529	88.815	
331.00	-62.384	82.015	
332.00	-65.802	75.850	
333.00	-67.340	71.790	
334.00	-70.894	91.482	
335.00	-85.406	-161.898	
336.00	-78.506	-131.493	
337.00	-69.089	-166.085	
338.00	-68.518	162.364	
339.00	-70.051	158.981	
340.00	-70.543	125.376	
341.00	-66.933	74.064	
342.00	-65.634	34.546	
343.00	-62.713	28.720	
344.00	-60.791	24.237	
345.00	-60.367	12.419	
346.00	-61.264	-3.186	
347.00	-61.851	-0.241	
348.00	-64.798	-5.393	
349.00	-72.489	-9.942	
350.00	-78.237	88.216	
351.00	-70.431	145.006	
352.00	-63.535	139.256	
353.00	-63.614	138.664	
354.00	-63.016	123.445	
355.00	-62.816	120.718	
356.00	-65.300	119.528	
357.00	-66.814	102.645	
358.00	-68.651	96.593	
359.00	-72.250	96.324	
Frequency	2170.00	MHz	
Channel	test		
Scan Axis name	Azimuth  [deg]		
Scan Axis	Amplitude	Phase	
			
0.00	-69.398	-87.097	
1.00	-65.363	-62.670	
2.00	-73.442	-60.661	
3.00	-81.108	-18.450	
4.00	-70.330	-26.826	
5.00	-67.987	-53.682	
6.00	-65.800	-14.841	
7.00	-66.229	-41.768	
8.00	-67.548	13.319	
9.00	-72.244	-2.623	
10.00	-75.869	-10.194	
11.00	-81.634	24.675	
12.00	-64.235	114.841	
13.00	-74.430	103.474	
14.00	-70.965	144.341	
15.00	-68.719	122.221	
16.00	-69.601	102.591	
17.00	-64.565	84.371	
18.00	-63.509	88.215	
19.00	-63.947	69.554	
20.00	-60.762	50.746	
21.00	-59.252	46.573	
22.00	-58.841	38.390	
23.00	-57.008	48.783	
24.00	-57.330	45.566	
25.00	-56.376	44.434	
26.00	-56.698	39.755	
27.00	-56.843	46.412	
28.00	-57.658	38.527	
29.00	-58.470	31.052	
30.00	-58.459	23.384	
31.00	-59.870	11.420	
32.00	-60.364	3.528	
33.00	-61.035	-17.447	
34.00	-62.407	-16.619	
35.00	-62.699	-27.524	
36.00	-63.775	-35.918	
37.00	-64.447	-43.126	
38.00	-68.438	-37.410	
39.00	-71.429	-23.962	
40.00	-75.133	-60.416	
41.00	-78.912	-162.099	
42.00	-69.354	-157.822	
43.00	-67.264	-168.896	
44.00	-65.096	-159.223	
45.00	-63.536	-158.782	
46.00	-63.946	-161.301	
47.00	-62.556	-165.684	
48.00	-62.124	-158.096	
49.00	-62.510	-149.644	
50.00	-61.307	-132.658	
51.00	-62.155	-127.327	
52.00	-63.334	-113.701	
53.00	-66.167	-80.921	
54.00	-68.027	-62.694	
55.00	-67.923	-8.401	
56.00	-66.223	28.305	
57.00	-63.840	55.927	
58.00	-61.178	90.583	
59.00	-59.762	111.095	
60.00	-59.864	128.589	
61.00	-59.397	139.296	
62.00	-58.871	151.768	
63.00	-59.765	164.940	
64.00	-60.175	173.782	
65.00	-62.231	-173.935	
66.00	-63.317	-170.561	
67.00	-63.986	-161.744	
68.00	-65.334	-165.969	
69.00	-66.580	-176.884	
70.00	-67.182	179.762	
71.00	-65.749	-176.930	
72.00	-66.756	-178.599	
73.00	-65.697	176.833	
74.00	-68.114	171.345	
75.00	-67.725	171.277	
76.00	-69.356	165.294	
77.00	-74.955	117.644	
78.00	-75.291	68.861	
79.00	-69.243	86.826	
80.00	-65.469	58.083	
81.00	-68.073	77.659	
82.00	-63.286	67.706	
83.00	-61.270	79.522	
84.00	-62.661	95.194	
85.00	-62.218	102.582	
86.00	-61.331	119.133	
87.00	-63.290	121.536	
88.00	-65.126	130.903	
89.00	-65.945	156.985	
90.00	-67.019	169.462	
91.00	-68.194	-178.895	
92.00	-74.421	-150.863	
93.00	-81.149	-171.534	
94.00	-76.285	-1.255	
95.00	-66.502	13.683	
96.00	-64.983	40.688	
97.00	-60.512	56.865	
98.00	-60.298	69.566	
99.00	-59.753	76.222	
100.00	-57.882	88.785	
101.00	-58.380	110.791	
102.00	-57.928	130.422	
103.00	-57.883	142.452	
104.00	-57.913	154.247	
105.00	-56.822	170.183	
106.00	-57.643	175.115	
107.00	-58.095	-169.000	
108.00	-57.943	-161.521	
109.00	-57.754	-145.533	
110.00	-57.513	-130.021	
111.00	-57.404	-102.790	
112.00	-58.778	-84.988	
113.00	-56.083	-66.951	
114.00	-53.520	-49.278	
115.00	-52.595	-31.813	
116.00	-51.383	-22.475	
117.00	-50.627	-11.172	
118.00	-50.392	0.131	
119.00	-50.704	10.919	
120.00	-51.026	23.533	
121.00	-52.801	37.223	
122.00	-54.540	54.403	
123.00	-58.086	64.041	
124.00	-65.734	79.812	
125.00	-71.850	-55.713	
126.00	-60.083	-53.326	
127.00	-54.686	-36.073	
128.00	-51.113	-19.496	
129.00	-48.238	-0.942	
130.00	-46.018	12.510	
131.00	-44.552	29.086	
132.00	-43.504	43.418	
133.00	-42.984	58.193	
134.00	-42.872	73.124	
135.00	-43.149	89.172	
136.00	-43.793	106.003	
137.00	-45.096	124.713	
138.00	-46.683	145.269	
139.00	-48.809	171.144	
140.00	-51.170	-155.275	
141.00	-52.163	-111.620	
142.00	-51.284	-68.398	
143.00	-49.366	-36.906	
144.00	-47.666	-12.203	
145.00	-46.638	8.651	
146.00	-45.902	27.099	
147.00	-45.700	43.855	
148.00	-45.752	58.282	
149.00	-46.098	72.214	
150.00	-46.564	83.609	
151.00	-47.441	92.704	
152.00	-48.504	97.604	
153.00	-49.818	100.224	
154.00	-51.048	91.774	
155.00	-51.966	86.547	
156.00	-52.131	79.314	
157.00	-52.835	69.104	
158.00	-54.006	60.873	
159.00	-56.012	37.787	
160.00	-56.650	0.367	
161.00	-52.815	-33.423	
162.00	-48.724	-47.749	
163.00	-45.728	-52.346	
164.00	-43.601	-54.186	
165.00	-42.312	-54.702	
166.00	-41.705	-55.992	
167.00	-41.677	-57.913	
168.00	-42.267	-61.431	
169.00	-43.422	-67.110	
170.00	-44.905	-76.808	
171.00	-46.505	-88.180	
172.00	-48.421	-96.294	
173.00	-50.859	-91.502	
174.00	-51.663	-46.015	
175.00	-45.398	-9.252	
176.00	-39.357	0.487	
177.00	-34.796	3.592	
178.00	-31.440	4.606	
179.00	-28.763	4.960	
180.00	-26.687	4.740	
181.00	-25.153	4.451	
182.00	-24.042	3.937	
183.00	-23.377	3.394	
184.00	-23.107	2.664	
185.00	-23.238	1.774	
186.00	-23.806	1.050	
187.00	-24.835	-0.038	
188.00	-26.396	-0.794	
189.00	-28.656	-1.708	
190.00	-31.847	-1.757	
191.00	-36.539	-0.348	
192.00	-45.219	10.355	
193.00	-50.782	133.297	
194.00	-42.263	157.368	
195.00	-39.628	161.339	
196.00	-39.054	164.528	
197.00	-39.696	168.915	
198.00	-41.225	177.580	
199.00	-43.180	-167.390	
200.00	-44.016	-147.300	
201.00	-44.037	-130.255	
202.00	-43.801	-122.117	
203.00	-44.191	-121.639	
204.00	-45.901	-126.499	
205.00	-48.905	-140.624	
206.00	-53.298	-174.767	
207.00	-53.118	117.528	
208.00	-48.655	84.293	
209.00	-45.930	66.588	
210.00	-44.905	54.606	
211.00	-44.705	42.979	
212.00	-45.749	31.119	
213.00	-48.500	14.722	
214.00	-53.314	-12.069	
215.00	-56.558	-87.587	
216.00	-50.972	-140.039	
217.00	-46.913	-161.283	
218.00	-44.587	-176.003	
219.00	-43.144	172.547	
220.00	-42.463	161.800	
221.00	-42.326	151.838	
222.00	-42.723	143.188	
223.00	-43.479	136.096	
224.00	-44.808	130.624	
225.00	-46.468	128.221	
226.00	-47.981	131.274	
227.00	-50.072	140.169	
228.00	-50.554	155.769	
229.00	-49.182	166.707	
230.00	-47.521	168.579	
231.00	-46.300	165.750	
232.00	-45.229	164.109	
233.00	-44.527	157.304	
234.00	-44.069	151.096	
235.00	-43.729	143.567	
236.00	-43.788	136.742	
237.00	-43.771	128.230	
238.00	-44.463	118.381	
239.00	-44.898	107.797	
240.00	-45.525	97.162	
241.00	-46.248	84.973	
242.00	-46.979	72.783	
243.00	-47.754	59.994	
244.00	-48.690	46.093	
245.00	-49.719	32.529	
246.00	-50.949	17.921	
247.00	-52.491	4.023	
248.00	-54.383	-11.497	
249.00	-56.920	-29.123	
250.00	-59.972	-54.448	
251.00	-62.762	-79.870	
252.00	-67.103	-127.343	
253.00	-67.504	172.136	
254.00	-65.282	138.831	
255.00	-60.674	112.172	
256.00	-60.292	97.855	
257.00	-59.606	73.391	
258.00	-61.389	47.036	
259.00	-61.635	29.021	
260.00	-60.661	7.696	
261.00	-62.543	-26.088	
262.00	-62.664	-53.860	
263.00	-61.612	-75.224	
264.00	-60.175	-105.029	
265.00	-59.683	-124.762	
266.00	-58.423	-142.332	
267.00	-57.987	-159.564	
268.00	-57.826	-179.931	
269.00	-57.623	165.659	
270.00	-57.154	149.547	
271.00	-57.145	134.585	
272.00	-56.913	117.858	
273.00	-57.511	103.884	
274.00	-58.086	87.301	
275.00	-58.587	76.725	
276.00	-59.832	61.097	
277.00	-60.953	52.440	
278.00	-63.998	38.421	
279.00	-65.983	39.674	
280.00	-71.400	34.441	
281.00	-84.681	150.557	
282.00	-72.216	143.131	
283.00	-66.010	139.742	
284.00	-62.552	128.703	
285.00	-62.698	127.552	
286.00	-61.691	115.661	
287.00	-63.966	92.902	
288.00	-65.339	79.706	
289.00	-69.923	65.211	
290.00	-71.957	7.687	
291.00	-73.843	-44.487	
292.00	-71.757	-76.264	
293.00	-67.427	-102.930	
294.00	-67.746	-122.923	
295.00	-66.755	-158.809	
296.00	-67.519	169.331	
297.00	-64.472	142.059	
298.00	-62.685	128.060	
299.00	-60.889	105.860	
300.00	-61.694	113.110	
301.00	-62.442	104.906	
302.00	-63.406	98.462	
303.00	-64.788	115.420	
304.00	-63.754	143.770	
305.00	-62.698	127.317	
306.00	-62.625	146.502	
307.00	-58.780	159.430	
308.00	-57.708	138.681	
309.00	-56.876	128.521	
310.00	-57.263	124.833	
311.00	-57.873	115.060	
312.00	-58.049	110.796	
313.00	-58.351	99.841	
314.00	-57.785	98.403	
315.00	-59.891	85.435	
316.00	-60.325	81.707	
317.00	-62.345	81.070	
318.00	-67.212	100.279	
319.00	-66.242	92.811	
320.00	-65.876	119.759	
321.00	-66.537	60.996	
322.00	-62.763	113.885	
323.00	-65.976	118.015	
324.00	-63.805	156.134	
325.00	-70.693	-146.613	
326.00	-77.016	72.194	
327.00	-63.596	154.333	
328.00	-66.842	174.085	
329.00	-66.453	131.205	
330.00	-66.795	151.424	
331.00	-67.193	152.764	
332.00	-63.444	138.064	
333.00	-65.560	128.394	
334.00	-63.595	106.252	
335.00	-64.124	116.485	
336.00	-67.379	123.132	
337.00	-67.688	110.960	
338.00	-66.886	100.610	
339.00	-65.879	88.481	
340.00	-63.661	96.159	
341.00	-62.756	75.726	
342.00	-63.505	64.947	
343.00	-63.247	64.950	
344.00	-65.676	49.878	
345.00	-67.281	15.989	
346.00	-78.107	27.578	
347.00	-74.700	-51.526	
348.00	-74.766	-135.074	
349.00	-66.485	-143.940	
350.00	-63.356	174.231	
351.00	-62.887	-175.935	
352.00	-63.944	154.814	
353.00	-65.618	151.521	
354.00	-65.748	148.479	
355.00	-71.543	117.435	
356.00	-67.931	63.576	
357.00	-72.651	-2.004	
358.00	-74.353	-43.497	
359.00	-67.515	-14.421	
Frequency	2300.00	MHz	
Channel	test		
Scan Axis name	Azimuth  [deg]		
Scan Axis	Amplitude	Phase	
			
0.00	-60.630	68.428	
1.00	-62.153	53.750	
2.00	-62.080	49.449	
3.00	-63.719	40.322	
4.00	-66.457	32.039	
5.00	-70.048	4.171	
6.00	-71.249	-26.774	
7.00	-71.044	-80.191	
8.00	-65.556	-103.038	
9.00	-64.205	-110.649	
10.00	-62.012	-99.738	
11.00	-61.218	-81.403	
12.00	-60.820	-88.003	
13.00	-60.356	-80.045	
14.00	-59.311	-69.564	
15.00	-59.956	-65.951	
16.00	-60.977	-64.691	
17.00	-61.259	-59.263	
18.00	-64.259	-74.470	
19.00	-63.852	-78.344	
20.00	-65.233	-90.212	
21.00	-65.422	-96.812	
22.00	-64.933	-107.997	
23.00	-68.479	-106.064	
24.00	-66.979	-109.820	
25.00	-76.949	-111.551	
26.00	-78.738	45.828	
27.00	-69.409	69.298	
28.00	-64.513	74.436	
29.00	-60.955	87.552	
30.00	-59.747	85.437	
31.00	-58.575	100.631	
32.00	-58.794	105.415	
33.00	-59.112	115.871	
34.00	-60.471	114.873	
35.00	-61.125	120.338	
36.00	-61.704	99.745	
37.00	-61.936	100.719	
38.00	-61.234	93.316	
39.00	-62.925	96.345	
40.00	-64.538	94.254	
41.00	-68.306	98.100	
42.00	-68.813	87.800	
43.00	-76.981	100.333	
44.00	-84.339	22.054	
45.00	-94.725	-20.199	
46.00	-74.936	148.285	
47.00	-74.471	-136.986	
48.00	-69.803	-129.919	
49.00	-68.926	-120.775	
50.00	-70.357	-99.658	
51.00	-70.138	-73.489	
52.00	-73.498	-12.104	
53.00	-70.925	19.015	
54.00	-70.542	74.262	
55.00	-69.433	104.705	
56.00	-68.658	145.646	
57.00	-68.283	176.031	
58.00	-66.658	-139.735	
59.00	-65.845	-116.585	
60.00	-64.911	-85.113	
61.00	-63.355	-64.106	
62.00	-63.981	-42.882	
63.00	-65.948	-28.636	
64.00	-66.071	-6.402	
65.00	-70.404	-8.362	
66.00	-73.411	-43.035	
67.00	-71.332	-76.845	
68.00	-67.051	-75.007	
69.00	-63.813	-54.475	
70.00	-62.820	-43.675	
71.00	-61.087	-19.707	
72.00	-59.687	-3.247	
73.00	-59.188	17.694	
74.00	-58.552	38.058	
75.00	-58.777	58.310	
76.00	-58.401	78.650	
77.00	-59.305	95.218	
78.00	-61.144	128.011	
79.00	-61.382	155.618	
80.00	-62.072	-175.652	
81.00	-60.335	-151.449	
82.00	-59.228	-135.577	
83.00	-60.538	-102.042	
84.00	-59.398	-78.984	
85.00	-56.427	-53.205	
86.00	-58.034	-42.706	
87.00	-64.671	-95.535	
88.00	-63.528	31.667	
89.00	-64.421	-10.422	
90.00	-58.959	-27.290	
91.00	-63.505	-78.914	
92.00	-63.444	-12.815	
93.00	-69.037	-31.273	
94.00	-65.007	-41.103	
95.00	-61.487	-16.152	
96.00	-62.986	-66.146	
97.00	-64.673	-41.994	
98.00	-64.510	-41.282	
99.00	-65.428	-15.513	
100.00	-65.509	2.145	
101.00	-65.329	15.232	
102.00	-72.837	12.893	
103.00	-77.048	73.347	
104.00	-84.612	-26.890	
105.00	-75.272	-110.820	
106.00	-69.779	-107.106	
107.00	-67.406	-107.234	
108.00	-67.511	-87.502	
109.00	-65.900	-77.066	
110.00	-64.695	-49.923	
111.00	-64.797	-41.079	
112.00	-62.016	-36.462	
113.00	-60.169	-25.754	
114.00	-58.462	-14.104	
115.00	-56.935	-8.157	
116.00	-55.103	4.318	
117.00	-53.590	11.259	
118.00	-52.600	20.935	
119.00	-51.701	29.873	
120.00	-51.425	41.597	
121.00	-50.838	50.723	
122.00	-50.243	64.063	
123.00	-50.469	74.880	
124.00	-50.361	84.127	
125.00	-51.186	90.718	
126.00	-51.654	92.473	
127.00	-52.280	95.352	
128.00	-52.139	92.427	
129.00	-51.691	85.703	
130.00	-50.049	81.550	
131.00	-48.430	85.535	
132.00	-46.449	92.650	
133.00	-45.340	100.677	
134.00	-43.861	110.501	
135.00	-43.077	121.586	
136.00	-42.315	134.995	
137.00	-42.019	146.653	
138.00	-42.143	159.121	
139.00	-42.566	171.719	
140.00	-43.471	-175.179	
141.00	-45.096	-161.831	
142.00	-47.752	-147.092	
143.00	-51.441	-125.974	
144.00	-58.323	-81.728	
145.00	-57.380	7.651	
146.00	-51.819	42.502	
147.00	-48.718	61.083	
148.00	-46.935	73.684	
149.00	-46.270	86.787	
150.00	-46.194	97.103	
151.00	-46.884	108.599	
152.00	-48.005	118.946	
153.00	-49.921	129.831	
154.00	-52.423	140.875	
155.00	-55.789	152.329	
156.00	-59.123	163.452	
157.00	-64.229	171.284	
158.00	-74.440	176.464	
159.00	-79.597	-8.265	
160.00	-67.275	0.789	
161.00	-62.568	5.858	
162.00	-57.540	2.110	
163.00	-53.545	5.188	
164.00	-50.564	6.194	
165.00	-48.061	9.158	
166.00	-46.563	10.700	
167.00	-45.697	11.726	
168.00	-45.800	11.599	
169.00	-46.966	9.545	
170.00	-49.600	2.658	
171.00	-54.646	-18.199	
172.00	-58.104	-93.456	
173.00	-52.329	-145.049	
174.00	-48.447	-170.411	
175.00	-45.346	164.114	
176.00	-41.775	139.027	
177.00	-37.787	120.582	
178.00	-34.180	109.164	
179.00	-31.077	101.816	
180.00	-28.573	96.990	
181.00	-26.652	93.429	
182.00	-25.253	90.668	
183.00	-24.350	88.395	
184.00	-23.884	86.340	
185.00	-23.876	84.191	
186.00	-24.337	82.274	
187.00	-25.290	79.991	
188.00	-26.821	77.776	
189.00	-29.092	75.083	
190.00	-32.248	72.798	
191.00	-36.951	69.891	
192.00	-45.397	66.318	
193.00	-57.445	-111.262	
194.00	-44.945	-115.894	
195.00	-42.363	-116.624	
196.00	-42.377	-115.066	
197.00	-44.167	-108.061	
198.00	-46.739	-88.982	
199.00	-47.760	-54.216	
200.00	-45.791	-28.629	
201.00	-44.163	-20.280	
202.00	-43.580	-18.890	
203.00	-44.316	-21.155	
204.00	-46.892	-24.938	
205.00	-51.477	-28.668	
206.00	-66.136	-4.417	
207.00	-55.483	120.076	
208.00	-50.183	116.658	
209.00	-48.154	107.420	
210.00	-48.285	95.315	
211.00	-50.266	77.309	
212.00	-54.472	38.286	
213.00	-54.040	-34.764	
214.00	-48.378	-76.408	
215.00	-44.648	-94.680	
216.00	-42.241	-108.519	
217.00	-40.829	-120.230	
218.00	-40.290	-131.654	
219.00	-40.419	-141.605	
220.00	-41.052	-151.193	
221.00	-42.382	-160.974	
222.00	-44.529	-169.354	
223.00	-47.250	-173.201	
224.00	-51.327	-168.354	
225.00	-54.718	-143.093	
226.00	-52.658	-112.323	
227.00	-49.823	-106.255	
228.00	-47.536	-112.126	
229.00	-46.005	-120.706	
230.00	-45.167	-130.713	
231.00	-44.782	-140.555	
232.00	-44.844	-150.088	
233.00	-45.193	-159.871	
234.00	-45.966	-169.036	
235.00	-47.142	-177.842	
236.00	-48.465	173.809	
237.00	-50.108	165.138	
238.00	-52.025	155.715	
239.00	-54.012	144.565	
240.00	-56.440	132.507	
241.00	-58.184	116.722	
242.00	-60.099	93.522	
243.00	-60.386	70.159	
244.00	-60.326	46.477	
245.00	-59.467	28.515	
246.00	-58.916	10.531	
247.00	-59.173	-3.393	
248.00	-59.043	-14.368	
249.00	-59.498	-28.080	
250.00	-60.547	-42.142	
251.00	-61.856	-55.308	
252.00	-63.323	-67.399	
253.00	-65.056	-79.517	
254.00	-67.383	-98.283	
255.00	-67.782	-107.281	
256.00	-70.453	-119.734	
257.00	-74.803	-130.530	
258.00	-77.688	-156.528	
259.00	-75.962	135.165	
260.00	-71.783	114.545	
261.00	-69.369	95.820	
262.00	-67.392	86.715	
263.00	-65.674	75.963	
264.00	-64.598	72.524	
265.00	-63.939	64.972	
266.00	-64.736	48.589	
267.00	-65.288	30.378	
268.00	-66.521	12.200	
269.00	-65.725	-12.247	
270.00	-64.410	-40.540	
271.00	-63.449	-59.969	
272.00	-61.944	-70.695	
273.00	-60.870	-83.907	
274.00	-61.204	-90.961	
275.00	-61.708	-100.477	
276.00	-63.343	-107.794	
277.00	-64.132	-117.573	
278.00	-66.675	-120.172	
279.00	-71.044	-113.200	
280.00	-77.695	-103.380	
281.00	-76.252	-33.240	
282.00	-70.620	5.395	
283.00	-71.603	8.506	
284.00	-70.236	-1.853	
285.00	-71.283	2.943	
286.00	-69.868	-18.978	
287.00	-67.740	-30.472	
288.00	-70.568	-43.010	
289.00	-70.535	-54.199	
290.00	-69.903	-56.517	
291.00	-71.850	-53.498	
292.00	-70.279	-57.966	
293.00	-68.015	-67.812	
294.00	-65.755	-61.994	
295.00	-65.268	-60.770	
296.00	-63.869	-56.383	
297.00	-63.455	-54.082	
298.00	-63.444	-52.148	
299.00	-61.950	-58.351	
300.00	-61.160	-65.939	
301.00	-60.584	-70.469	
302.00	-60.325	-77.470	
303.00	-60.295	-79.217	
304.00	-59.431	-80.586	
305.00	-61.257	-83.910	
306.00	-61.344	-85.666	
307.00	-63.395	-72.022	
308.00	-65.150	-63.277	
309.00	-63.040	-57.898	
310.00	-62.630	-35.070	
311.00	-62.112	-25.467	
312.00	-60.843	-21.533	
313.00	-61.192	-22.376	
314.00	-60.698	-21.467	
315.00	-61.718	-22.717	
316.00	-61.593	-25.288	
317.00	-62.352	-37.673	
318.00	-61.343	-34.610	
319.00	-61.861	-32.211	
320.00	-60.594	-42.313	
321.00	-59.757	-43.384	
322.00	-58.996	-42.678	
323.00	-58.246	-48.451	
324.00	-58.439	-48.527	
325.00	-58.005	-49.694	
326.00	-58.088	-53.327	
327.00	-57.994	-53.335	
328.00	-58.005	-52.799	
329.00	-57.727	-53.915	
330.00	-57.771	-58.990	
331.00	-57.900	-61.667	
332.00	-58.561	-69.182	
333.00	-59.439	-73.739	
334.00	-61.526	-82.751	
335.00	-63.651	-99.375	
336.00	-67.017	-122.525	
337.00	-70.286	-150.060	
338.00	-71.535	159.922	
339.00	-71.382	143.856	
340.00	-70.602	86.242	
341.00	-66.904	55.022	
342.00	-65.138	33.563	
343.00	-64.436	16.855	
344.00	-63.303	-8.069	
345.00	-62.698	-25.209	
346.00	-62.551	-49.847	
347.00	-62.466	-69.443	
348.00	-63.471	-87.845	
349.00	-64.864	-112.467	
350.00	-66.779	-142.681	
351.00	-65.537	173.701	
352.00	-62.644	145.099	
353.00	-61.356	131.766	
354.00	-59.745	118.097	
355.00	-58.860	105.494	
356.00	-58.999	95.049	
357.00	-58.958	86.065	
358.00	-58.808	77.339	
359.00	-59.797	73.635	
Frequency	2350.00	MHz	
Channel	test		
Scan Axis name	Azimuth  [deg]		
Scan Axis	Amplitude	Phase	
			
0.00	-60.403	-140.848	
1.00	-61.987	-143.104	
2.00	-64.622	-149.234	
3.00	-67.576	-160.747	
4.00	-72.371	-172.039	
5.00	-78.235	-170.671	
6.00	-82.739	-73.906	
7.00	-73.002	-31.744	
8.00	-70.434	-36.771	
9.00	-68.153	-25.700	
10.00	-68.341	-23.322	
11.00	-69.425	-13.460	
12.00	-70.458	3.677	
13.00	-70.303	36.774	
14.00	-68.404	59.693	
15.00	-65.507	80.528	
16.00	-63.967	85.607	
17.00	-63.266	94.072	
18.00	-63.064	98.045	
19.00	-63.456	92.299	
20.00	-64.574	90.812	
21.00	-64.873	72.756	
22.00	-65.396	64.404	
23.00	-65.299	58.811	
24.00	-66.437	57.915	
25.00	-69.783	54.293	
26.00	-75.301	47.852	
27.00	-81.887	-93.923	
28.00	-70.758	-113.948	
29.00	-65.820	-114.998	
30.00	-63.015	-112.822	
31.00	-61.724	-107.614	
32.00	-61.124	-104.762	
33.00	-61.434	-92.490	
34.00	-63.540	-81.089	
35.00	-64.413	-67.553	
36.00	-66.585	-18.494	
37.00	-71.037	-13.320	
38.00	-69.830	4.160	
39.00	-72.701	-1.437	
40.00	-70.898	-1.887	
41.00	-69.372	-8.170	
42.00	-70.705	-9.935	
43.00	-71.909	6.749	
44.00	-73.504	0.428	
45.00	-73.823	29.709	
46.00	-73.138	42.572	
47.00	-74.561	53.941	
48.00	-73.815	74.645	
49.00	-72.118	80.324	
50.00	-69.836	94.865	
51.00	-67.772	111.361	
52.00	-66.397	122.249	
53.00	-65.745	137.555	
54.00	-65.436	150.574	
55.00	-66.460	155.525	
56.00	-68.127	158.574	
57.00	-70.064	151.973	
58.00	-70.848	130.043	
59.00	-69.373	109.968	
60.00	-68.007	106.576	
61.00	-69.698	113.239	
62.00	-73.721	110.490	
63.00	-82.459	29.246	
64.00	-67.969	-18.698	
65.00	-61.431	-20.121	
66.00	-58.860	-12.597	
67.00	-56.214	-0.667	
68.00	-55.081	10.325	
69.00	-55.021	24.914	
70.00	-55.282	39.304	
71.00	-56.604	58.466	
72.00	-58.570	82.803	
73.00	-60.127	112.604	
74.00	-61.741	150.537	
75.00	-61.244	-172.121	
76.00	-60.443	-142.090	
77.00	-59.728	-111.798	
78.00	-58.854	-88.908	
79.00	-58.235	-67.070	
80.00	-57.970	-48.701	
81.00	-58.713	-24.488	
82.00	-60.092	-10.707	
83.00	-64.207	28.855	
84.00	-64.357	31.416	
85.00	-63.885	86.756	
86.00	-62.872	171.666	
87.00	-61.227	155.913	
88.00	-58.479	-157.444	
89.00	-61.684	-168.746	
90.00	-60.566	-167.255	
91.00	-59.068	-160.398	
92.00	-61.845	-109.514	
93.00	-70.090	-93.161	
94.00	-67.579	-66.031	
95.00	-64.240	2.482	
96.00	-64.074	1.774	
97.00	-62.532	53.967	
98.00	-62.538	65.411	
99.00	-60.933	84.768	
100.00	-61.315	101.306	
101.00	-60.185	123.028	
102.00	-61.358	139.576	
103.00	-62.653	162.194	
104.00	-63.930	179.635	
105.00	-65.167	-162.647	
106.00	-66.993	-155.377	
107.00	-68.534	-148.550	
108.00	-70.069	-178.707	
109.00	-68.117	169.640	
110.00	-64.191	173.114	
111.00	-61.757	177.662	
112.00	-59.564	-177.407	
113.00	-58.471	-167.209	
114.00	-57.761	-152.696	
115.00	-56.967	-141.816	
116.00	-56.676	-128.295	
117.00	-57.246	-123.490	
118.00	-57.206	-113.996	
119.00	-57.232	-111.521	
120.00	-56.949	-111.276	
121.00	-56.242	-112.314	
122.00	-54.796	-111.799	
123.00	-53.701	-111.777	
124.00	-51.634	-105.000	
125.00	-50.464	-99.037	
126.00	-49.911	-93.251	
127.00	-49.111	-84.673	
128.00	-49.115	-77.913	
129.00	-49.696	-70.239	
130.00	-50.121	-68.762	
131.00	-50.889	-69.352	
132.00	-51.478	-77.493	
133.00	-51.526	-85.117	
134.00	-50.123	-90.053	
135.00	-48.716	-91.014	
136.00	-47.316	-87.440	
137.00	-46.108	-80.566	
138.00	-45.408	-72.085	
139.00	-45.032	-63.413	
140.00	-45.016	-53.833	
141.00	-45.610	-45.584	
142.00	-46.910	-36.867	
143.00	-49.425	-29.494	
144.00	-53.659	-23.360	
145.00	-63.560	-28.750	
146.00	-61.443	-166.450	
147.00	-53.327	-168.347	
148.00	-50.271	-162.990	
149.00	-48.819	-155.817	
150.00	-48.603	-147.321	
151.00	-48.986	-135.701	
152.00	-50.159	-121.271	
153.00	-51.425	-101.421	
154.00	-52.157	-77.258	
155.00	-52.084	-53.439	
156.00	-51.351	-35.228	
157.00	-50.639	-22.351	
158.00	-50.455	-13.082	
159.00	-50.726	-5.994	
160.00	-51.793	-0.802	
161.00	-54.213	5.220	
162.00	-59.363	13.416	
163.00	-71.367	97.017	
164.00	-57.891	171.005	
165.00	-52.204	177.965	
166.00	-49.379	178.528	
167.00	-48.000	176.470	
168.00	-47.862	170.497	
169.00	-48.648	158.586	
170.00	-49.816	136.554	
171.00	-49.754	105.164	
172.00	-48.150	75.882	
173.00	-46.580	55.868	
174.00	-45.947	37.231	
175.00	-46.252	11.958	
176.00	-45.652	-28.637	
177.00	-41.695	-66.392	
178.00	-37.214	-86.386	
179.00	-33.488	-97.181	
180.00	-30.603	-103.798	
181.00	-28.453	-108.333	
182.00	-26.909	-111.778	
183.00	-25.929	-114.644	
184.00	-25.426	-117.063	
185.00	-25.417	-119.378	
186.00	-25.890	-121.211	
187.00	-26.909	-123.125	
188.00	-28.506	-124.278	
189.00	-30.873	-125.083	
190.00	-34.168	-123.768	
191.00	-38.960	-118.450	
192.00	-46.189	-94.096	
193.00	-48.706	-22.100	
194.00	-44.754	8.083	
195.00	-43.458	17.017	
196.00	-44.041	23.082	
197.00	-46.092	32.693	
198.00	-48.878	53.139	
199.00	-50.124	86.000	
200.00	-49.046	108.352	
201.00	-48.489	115.593	
202.00	-49.506	114.236	
203.00	-52.884	104.378	
204.00	-60.182	64.301	
205.00	-57.112	-30.575	
206.00	-51.268	-55.694	
207.00	-48.753	-69.040	
208.00	-48.307	-79.378	
209.00	-49.649	-91.722	
210.00	-53.788	-108.640	
211.00	-62.459	-173.185	
212.00	-54.510	94.069	
213.00	-48.601	74.774	
214.00	-45.733	60.535	
215.00	-44.118	48.637	
216.00	-43.439	37.299	
217.00	-43.486	25.156	
218.00	-44.074	12.851	
219.00	-45.389	1.946	
220.00	-47.192	-8.305	
221.00	-49.691	-14.021	
222.00	-53.034	-13.119	
223.00	-55.944	3.458	
224.00	-55.093	28.553	
225.00	-52.662	34.414	
226.00	-50.617	29.414	
227.00	-49.403	20.372	
228.00	-48.771	9.067	
229.00	-48.616	-2.203	
230.00	-49.032	-13.360	
231.00	-49.774	-24.460	
232.00	-51.068	-33.474	
233.00	-52.879	-41.084	
234.00	-54.994	-45.546	
235.00	-57.196	-44.977	
236.00	-58.424	-38.922	
237.00	-58.723	-34.610	
238.00	-58.242	-36.868	
239.00	-58.008	-43.264	
240.00	-57.955	-54.104	
241.00	-58.475	-68.676	
242.00	-59.517	-87.444	
243.00	-60.503	-112.644	
244.00	-61.326	-142.891	
245.00	-61.314	-171.587	
246.00	-60.565	160.128	
247.00	-59.927	139.932	
248.00	-59.697	121.163	
249.00	-59.972	105.536	
250.00	-60.735	91.033	
251.00	-61.862	76.938	
252.00	-62.725	61.802	
253.00	-63.839	51.026	
254.00	-65.069	40.876	
255.00	-65.718	35.391	
256.00	-66.627	31.287	
257.00	-66.859	25.507	
258.00	-66.395	22.433	
259.00	-66.480	14.756	
260.00	-66.515	5.039	
261.00	-66.858	-8.911	
262.00	-67.932	-25.204	
263.00	-67.564	-41.602	
264.00	-68.553	-61.272	
265.00	-69.788	-76.816	
266.00	-71.376	-97.599	
267.00	-73.104	-111.596	
268.00	-75.041	-129.551	
269.00	-80.143	-157.586	
270.00	-83.289	140.045	
271.00	-88.081	97.369	
272.00	-95.072	14.637	
273.00	-82.505	-47.625	
274.00	-81.927	-75.387	
275.00	-76.132	-94.577	
276.00	-73.459	-111.255	
277.00	-71.768	-146.785	
278.00	-71.420	-164.097	
279.00	-69.821	177.513	
280.00	-69.554	164.479	
281.00	-68.566	145.283	
282.00	-68.667	124.049	
283.00	-69.833	107.135	
284.00	-71.856	93.633	
285.00	-73.771	57.539	
286.00	-73.244	22.119	
287.00	-71.609	-25.632	
288.00	-69.175	-41.632	
289.00	-68.348	-50.611	
290.00	-68.541	-54.202	
291.00	-69.354	-56.424	
292.00	-72.410	-57.687	
293.00	-76.552	-47.347	
294.00	-81.194	-22.380	
295.00	-80.237	44.003	
296.00	-77.495	72.674	
297.00	-74.146	80.050	
298.00	-71.413	75.496	
299.00	-70.033	75.408	
300.00	-67.903	70.915	
301.00	-66.904	62.774	
302.00	-66.485	55.799	
303.00	-65.967	45.929	
304.00	-66.246	35.044	
305.00	-66.963	26.843	
306.00	-67.329	8.011	
307.00	-68.704	-3.467	
308.00	-71.645	-15.830	
309.00	-73.377	-14.793	
310.00	-75.976	1.429	
311.00	-76.832	36.110	
312.00	-73.941	53.764	
313.00	-72.347	64.974	
314.00	-72.126	73.894	
315.00	-72.684	90.250	
316.00	-72.672	119.491	
317.00	-70.479	135.274	
318.00	-68.777	148.812	
319.00	-67.677	167.605	
320.00	-70.010	155.369	
321.00	-72.790	132.620	
322.00	-76.271	97.001	
323.00	-73.619	40.788	
324.00	-69.891	18.976	
325.00	-68.153	17.415	
326.00	-67.098	16.604	
327.00	-66.618	28.128	
328.00	-65.786	38.027	
329.00	-64.165	50.471	
330.00	-62.351	56.941	
331.00	-60.966	56.463	
332.00	-59.882	53.522	
333.00	-59.477	47.284	
334.00	-59.903	37.815	
335.00	-60.733	23.126	
336.00	-62.118	6.903	
337.00	-63.474	-18.224	
338.00	-64.655	-46.777	
339.00	-64.798	-68.931	
340.00	-64.511	-90.870	
341.00	-65.852	-112.819	
342.00	-67.002	-121.216	
343.00	-68.641	-136.122	
344.00	-70.864	-152.333	
345.00	-73.527	-162.424	
346.00	-76.754	168.657	
347.00	-77.058	141.063	
348.00	-75.267	124.037	
349.00	-75.725	128.143	
350.00	-75.220	145.087	
351.00	-73.983	-179.829	
352.00	-70.484	-144.457	
353.00	-66.097	-132.705	
354.00	-63.351	-125.848	
355.00	-61.409	-126.399	
356.00	-60.159	-127.308	
357.00	-59.502	-129.562	
358.00	-59.326	-132.655	
359.00	-59.562	-134.532	
Frequency	2400.00	MHz	
Channel	test		
Scan Axis name	Azimuth  [deg]		
Scan Axis	Amplitude	Phase	
			
0.00	-73.678	-126.829	
1.00	-72.550	-131.800	
2.00	-77.892	-146.505	
3.00	-77.404	-153.138	
4.00	-80.327	-127.814	
5.00	-81.135	-147.877	
6.00	-78.892	-158.952	
7.00	-75.034	173.828	
8.00	-71.673	157.600	
9.00	-67.405	150.749	
10.00	-66.152	154.978	
11.00	-66.008	151.405	
12.00	-66.119	157.399	
13.00	-68.216	158.885	
14.00	-68.630	170.539	
15.00	-73.447	-169.310	
16.00	-72.983	-104.610	
17.00	-69.964	-83.625	
18.00	-68.960	-70.315	
19.00	-67.317	-59.172	
20.00	-67.699	-61.691	
21.00	-68.245	-69.758	
22.00	-71.740	-75.957	
23.00	-70.219	-100.691	
24.00	-69.276	-101.229	
25.00	-70.323	-107.866	
26.00	-68.954	-100.470	
27.00	-71.389	-110.235	
28.00	-74.515	-52.745	
29.00	-73.926	-1.354	
30.00	-71.271	31.672	
31.00	-68.662	42.674	
32.00	-66.860	59.301	
33.00	-66.021	68.195	
34.00	-65.254	85.781	
35.00	-65.197	98.763	
36.00	-67.601	114.817	
37.00	-68.435	132.322	
38.00	-70.537	140.161	
39.00	-71.081	139.997	
40.00	-75.159	125.645	
41.00	-73.637	112.158	
42.00	-67.184	114.698	
43.00	-68.274	116.591	
44.00	-66.056	133.235	
45.00	-66.803	140.465	
46.00	-66.560	151.053	
47.00	-67.078	159.921	
48.00	-67.169	152.867	
49.00	-67.297	139.213	
50.00	-66.963	138.315	
51.00	-65.652	128.209	
52.00	-65.397	129.734	
53.00	-64.147	133.094	
54.00	-63.976	133.706	
55.00	-64.051	136.839	
56.00	-65.129	138.068	
57.00	-66.342	146.572	
58.00	-68.351	158.721	
59.00	-72.308	-169.650	
60.00	-74.182	-113.938	
61.00	-69.184	-73.907	
62.00	-66.596	-45.759	
63.00	-64.684	-33.120	
64.00	-64.003	-22.416	
65.00	-65.265	-6.453	
66.00	-68.347	0.875	
67.00	-81.888	-1.778	
68.00	-72.195	-153.132	
69.00	-65.145	-140.252	
70.00	-61.740	-126.569	
71.00	-59.810	-116.387	
72.00	-58.458	-101.079	
73.00	-58.417	-84.387	
74.00	-58.634	-63.405	
75.00	-59.110	-39.201	
76.00	-59.237	-15.844	
77.00	-59.255	12.756	
78.00	-59.104	33.630	
79.00	-59.507	59.086	
80.00	-59.643	80.754	
81.00	-60.513	104.471	
82.00	-59.545	135.715	
83.00	-57.914	152.502	
84.00	-60.119	167.808	
85.00	-66.132	-160.944	
86.00	-66.158	174.830	
87.00	-61.116	-91.554	
88.00	-63.951	-63.452	
89.00	-60.289	-60.826	
90.00	-62.528	-61.780	
91.00	-64.922	-49.501	
92.00	-66.789	-38.342	
93.00	-58.484	55.907	
94.00	-63.971	36.655	
95.00	-68.559	49.968	
96.00	-71.233	105.749	
97.00	-67.665	154.450	
98.00	-64.758	-172.668	
99.00	-63.280	-159.350	
100.00	-62.406	-133.401	
101.00	-62.076	-113.167	
102.00	-63.134	-93.009	
103.00	-63.097	-74.463	
104.00	-64.989	-51.941	
105.00	-66.872	-23.184	
106.00	-69.110	3.087	
107.00	-67.415	42.232	
108.00	-68.854	39.785	
109.00	-69.289	44.835	
110.00	-68.743	46.302	
111.00	-67.576	39.498	
112.00	-67.558	39.617	
113.00	-65.160	31.136	
114.00	-63.077	49.228	
115.00	-61.901	65.456	
116.00	-60.499	83.464	
117.00	-59.421	93.760	
118.00	-58.981	107.367	
119.00	-59.318	118.192	
120.00	-62.101	122.712	
121.00	-64.756	107.239	
122.00	-66.205	58.576	
123.00	-60.281	30.259	
124.00	-54.953	30.734	
125.00	-52.128	40.263	
126.00	-50.767	49.633	
127.00	-49.345	63.557	
128.00	-48.655	77.498	
129.00	-48.231	91.085	
130.00	-48.772	106.156	
131.00	-49.651	121.102	
132.00	-50.768	130.244	
133.00	-53.144	139.024	
134.00	-56.564	139.034	
135.00	-60.549	99.745	
136.00	-56.272	64.929	
137.00	-51.620	59.858	
138.00	-48.796	65.913	
139.00	-47.165	74.486	
140.00	-46.198	85.559	
141.00	-45.968	96.324	
142.00	-46.445	109.092	
143.00	-47.676	121.408	
144.00	-49.578	137.079	
145.00	-52.757	155.221	
146.00	-57.296	-172.322	
147.00	-60.137	-109.975	
148.00	-56.781	-63.895	
149.00	-54.031	-39.599	
150.00	-52.552	-24.229	
151.00	-52.181	-11.321	
152.00	-52.734	-0.095	
153.00	-53.401	13.460	
154.00	-54.923	25.739	
155.00	-56.163	45.487	
156.00	-56.734	64.467	
157.00	-55.895	83.295	
158.00	-54.432	94.993	
159.00	-53.099	102.678	
160.00	-52.112	107.356	
161.00	-51.618	111.623	
162.00	-52.026	114.411	
163.00	-53.602	117.056	
164.00	-56.706	117.322	
165.00	-64.912	111.316	
166.00	-71.018	-71.000	
167.00	-59.353	-61.193	
168.00	-55.993	-68.827	
169.00	-54.673	-83.706	
170.00	-53.579	-106.864	
171.00	-51.401	-131.412	
172.00	-48.989	-150.939	
173.00	-46.453	-163.814	
174.00	-44.930	-172.417	
175.00	-44.468	178.131	
176.00	-45.530	165.564	
177.00	-47.524	139.253	
178.00	-47.597	88.788	
179.00	-42.730	53.087	
180.00	-38.383	37.041	
181.00	-35.328	28.796	
182.00	-33.111	23.253	
183.00	-31.664	19.249	
184.00	-30.816	15.798	
185.00	-30.560	12.578	
186.00	-30.826	9.847	
187.00	-31.679	6.867	
188.00	-33.143	4.406	
189.00	-35.365	1.712	
190.00	-38.465	-0.224	
191.00	-43.080	-1.905	
192.00	-50.334	2.973	
193.00	-68.604	56.010	
194.00	-54.889	157.963	
195.00	-53.146	167.402	
196.00	-53.614	176.537	
197.00	-55.725	-157.754	
198.00	-54.322	-122.533	
199.00	-51.779	-102.646	
200.00	-50.363	-94.956	
201.00	-50.804	-94.521	
202.00	-53.100	-95.936	
203.00	-58.836	-89.050	
204.00	-66.147	18.268	
205.00	-54.824	46.312	
206.00	-50.496	42.575	
207.00	-48.730	35.926	
208.00	-48.532	26.159	
209.00	-49.490	13.905	
210.00	-52.646	-0.105	
211.00	-56.812	-43.588	
212.00	-55.968	-110.738	
213.00	-52.189	-145.685	
214.00	-49.443	-164.106	
215.00	-48.202	-177.136	
216.00	-48.108	167.042	
217.00	-49.230	156.307	
218.00	-50.699	151.931	
219.00	-53.611	146.423	
220.00	-57.456	159.017	
221.00	-58.055	-164.279	
222.00	-54.169	-149.525	
223.00	-51.616	-152.459	
224.00	-49.438	-159.233	
225.00	-48.351	-170.518	
226.00	-48.065	177.316	
227.00	-48.316	165.667	
228.00	-49.132	153.428	
229.00	-50.343	138.853	
230.00	-52.638	126.942	
231.00	-55.103	116.280	
232.00	-59.273	108.245	
233.00	-63.334	97.046	
234.00	-67.123	92.032	
235.00	-67.094	133.005	
236.00	-65.006	140.194	
237.00	-63.451	128.016	
238.00	-62.700	113.880	
239.00	-61.933	98.198	
240.00	-62.454	82.367	
241.00	-63.970	57.561	
242.00	-69.468	39.044	
243.00	-72.878	-8.679	
244.00	-75.130	-85.639	
245.00	-67.359	-132.416	
246.00	-63.997	-155.585	
247.00	-61.759	-174.904	
248.00	-61.384	170.781	
249.00	-61.106	157.840	
250.00	-61.594	141.624	
251.00	-63.372	126.191	
252.00	-65.623	111.130	
253.00	-70.219	81.183	
254.00	-75.211	35.746	
255.00	-74.169	-40.170	
256.00	-71.027	-76.483	
257.00	-67.323	-90.484	
258.00	-67.314	-105.376	
259.00	-66.684	-119.095	
260.00	-68.949	-137.067	
261.00	-70.351	-145.707	
262.00	-71.675	177.665	
263.00	-72.443	164.451	
264.00	-72.169	147.309	
265.00	-74.030	146.573	
266.00	-72.855	141.979	
267.00	-72.306	150.951	
268.00	-71.105	149.862	
269.00	-69.536	150.361	
270.00	-68.338	147.666	
271.00	-67.836	136.987	
272.00	-65.465	126.206	
273.00	-66.516	113.409	
274.00	-67.003	107.170	
275.00	-67.692	94.347	
276.00	-69.672	87.732	
277.00	-72.262	89.499	
278.00	-74.574	45.740	
279.00	-81.040	15.629	
280.00	-81.384	-46.526	
281.00	-74.403	-143.774	
282.00	-72.049	-142.673	
283.00	-66.614	-175.938	
284.00	-67.097	-179.753	
285.00	-65.988	144.881	
286.00	-64.260	134.801	
287.00	-68.495	117.753	
288.00	-64.984	107.975	
289.00	-65.583	94.235	
290.00	-64.664	81.054	
291.00	-66.722	57.002	
292.00	-66.660	56.254	
293.00	-67.328	31.035	
294.00	-68.011	12.863	
295.00	-69.002	14.444	
296.00	-71.886	3.733	
297.00	-73.247	35.485	
298.00	-73.678	42.702	
299.00	-71.821	44.143	
300.00	-70.326	58.553	
301.00	-68.496	50.303	
302.00	-68.613	41.880	
303.00	-68.226	45.844	
304.00	-67.827	29.180	
305.00	-67.784	20.934	
306.00	-68.056	4.386	
307.00	-68.694	-0.562	
308.00	-68.615	-10.707	
309.00	-66.786	-30.406	
310.00	-67.607	-36.373	
311.00	-67.983	-45.911	
312.00	-69.927	-41.696	
313.00	-71.236	-45.900	
314.00	-73.309	-27.519	
315.00	-71.474	-7.472	
316.00	-69.996	10.833	
317.00	-67.272	7.508	
318.00	-65.887	0.814	
319.00	-65.228	-4.991	
320.00	-64.814	-16.575	
321.00	-66.114	-28.866	
322.00	-66.960	-38.745	
323.00	-68.505	-50.312	
324.00	-71.778	-58.553	
325.00	-74.627	-65.188	
326.00	-80.270	-53.382	
327.00	-82.611	-63.827	
328.00	-79.762	-44.028	
329.00	-74.086	-64.200	
330.00	-71.245	-82.943	
331.00	-69.106	-96.812	
332.00	-67.169	-113.899	
333.00	-66.929	-133.627	
334.00	-66.167	-158.451	
335.00	-66.056	178.460	
336.00	-67.224	151.082	
337.00	-67.548	125.426	
338.00	-65.765	90.922	
339.00	-65.233	66.042	
340.00	-65.569	56.136	
341.00	-63.072	37.260	
342.00	-63.047	35.364	
343.00	-63.732	28.640	
344.00	-65.232	23.405	
345.00	-67.493	19.054	
346.00	-73.745	-11.831	
347.00	-81.642	-34.992	
348.00	-77.912	-158.297	
349.00	-75.093	165.732	
350.00	-75.128	159.657	
351.00	-73.651	161.256	
352.00	-73.248	154.720	
353.00	-84.180	115.532	
354.00	-78.601	135.442	
355.00	-80.291	160.250	
356.00	-79.949	-137.624	
357.00	-72.122	-165.293	
358.00	-72.435	-146.643	
359.00	-71.707	-150.624	
Frequency	2450.00	MHz	
Channel	test		
Scan Axis name	Azimuth  [deg]		
Scan Axis	Amplitude	Phase	
			
0.00	-70.223	-15.234	
1.00	-73.238	-29.229	
2.00	-82.030	-31.049	
3.00	-98.184	-140.004	
4.00	-92.921	165.358	
5.00	-78.092	-113.151	
6.00	-71.435	-108.643	
7.00	-67.476	-107.587	
8.00	-63.741	-103.273	
9.00	-62.283	-102.368	
10.00	-61.378	-105.817	
11.00	-60.734	-102.276	
12.00	-61.480	-101.914	
13.00	-62.656	-105.393	
14.00	-64.576	-110.009	
15.00	-66.112	-123.175	
16.00	-69.379	-142.445	
17.00	-69.821	-163.325	
18.00	-69.122	172.418	
19.00	-69.292	166.513	
20.00	-67.947	156.621	
21.00	-68.746	149.240	
22.00	-69.922	146.952	
23.00	-70.593	144.293	
24.00	-72.183	119.572	
25.00	-71.515	105.431	
26.00	-69.449	80.762	
27.00	-69.936	74.584	
28.00	-68.627	73.983	
29.00	-68.986	70.640	
30.00	-70.613	67.242	
31.00	-70.493	56.258	
32.00	-70.086	44.663	
33.00	-74.288	23.272	
34.00	-70.283	-18.363	
35.00	-66.908	-38.490	
36.00	-66.301	-34.651	
37.00	-64.168	-35.532	
38.00	-64.733	-35.938	
39.00	-64.905	-41.641	
40.00	-68.019	-38.946	
41.00	-67.531	-63.758	
42.00	-66.253	-75.495	
43.00	-65.618	-86.137	
44.00	-64.940	-83.123	
45.00	-65.714	-67.308	
46.00	-67.401	-75.510	
47.00	-71.914	-74.103	
48.00	-74.391	-111.786	
49.00	-71.323	-159.265	
50.00	-67.962	-167.377	
51.00	-66.439	-158.313	
52.00	-66.374	-147.305	
53.00	-67.870	-141.804	
54.00	-68.260	-136.228	
55.00	-70.908	-124.067	
56.00	-73.850	-104.252	
57.00	-73.494	-80.240	
58.00	-71.056	-45.942	
59.00	-68.410	-24.900	
60.00	-67.502	-12.613	
61.00	-66.804	-5.968	
62.00	-67.620	3.870	
63.00	-70.343	8.249	
64.00	-82.735	-5.739	
65.00	-75.734	-128.495	
66.00	-68.655	-118.075	
67.00	-65.695	-106.010	
68.00	-64.823	-91.976	
69.00	-64.257	-64.531	
70.00	-64.242	-30.952	
71.00	-63.679	0.532	
72.00	-61.611	29.932	
73.00	-59.769	53.613	
74.00	-58.991	69.540	
75.00	-58.916	90.934	
76.00	-58.664	109.586	
77.00	-60.090	134.092	
78.00	-60.761	156.848	
79.00	-61.623	-173.652	
80.00	-61.352	-148.885	
81.00	-61.766	-122.908	
82.00	-60.683	-97.577	
83.00	-60.609	-94.631	
84.00	-68.335	-53.082	
85.00	-74.523	-29.495	
86.00	-60.220	29.320	
87.00	-64.201	46.555	
88.00	-67.412	152.987	
89.00	-57.365	92.522	
90.00	-59.264	-174.330	
91.00	-58.794	143.571	
92.00	-59.394	175.604	
93.00	-57.846	-174.089	
94.00	-57.173	-171.150	
95.00	-58.143	-147.897	
96.00	-60.058	-133.471	
97.00	-61.014	-102.162	
98.00	-63.278	-66.722	
99.00	-63.519	-35.955	
100.00	-59.247	-0.329	
101.00	-59.777	26.223	
102.00	-59.755	54.683	
103.00	-59.098	76.697	
104.00	-58.987	97.310	
105.00	-58.884	126.693	
106.00	-58.543	148.043	
107.00	-57.414	174.224	
108.00	-57.670	-171.713	
109.00	-57.655	-156.777	
110.00	-58.835	-143.619	
111.00	-62.432	-131.698	
112.00	-64.469	-124.912	
113.00	-72.429	-124.058	
114.00	-77.188	125.049	
115.00	-70.263	116.401	
116.00	-65.111	119.518	
117.00	-63.696	114.825	
118.00	-63.987	111.595	
119.00	-64.433	107.806	
120.00	-63.856	93.836	
121.00	-62.157	95.120	
122.00	-60.080	93.898	
123.00	-58.979	105.479	
124.00	-58.260	127.336	
125.00	-56.107	146.831	
126.00	-55.351	167.397	
127.00	-54.738	-171.931	
128.00	-53.680	-149.764	
129.00	-53.155	-129.590	
130.00	-54.730	-111.473	
131.00	-56.264	-87.663	
132.00	-59.648	-56.968	
133.00	-63.457	-15.140	
134.00	-62.843	67.445	
135.00	-57.751	120.754	
136.00	-53.380	150.022	
137.00	-50.186	172.707	
138.00	-47.879	-167.495	
139.00	-46.275	-150.901	
140.00	-45.291	-134.270	
141.00	-44.856	-119.834	
142.00	-44.983	-103.853	
143.00	-45.710	-89.235	
144.00	-47.162	-73.113	
145.00	-49.390	-54.973	
146.00	-52.441	-30.959	
147.00	-55.974	8.918	
148.00	-56.388	57.550	
149.00	-54.584	94.336	
150.00	-53.299	114.134	
151.00	-52.692	128.301	
152.00	-53.346	141.692	
153.00	-54.022	153.642	
154.00	-55.247	166.772	
155.00	-55.786	-178.953	
156.00	-55.814	-163.512	
157.00	-55.239	-149.868	
158.00	-54.424	-137.222	
159.00	-53.678	-127.919	
160.00	-53.405	-120.955	
161.00	-54.138	-115.027	
162.00	-56.564	-111.850	
163.00	-63.245	-111.015	
164.00	-68.725	102.960	
165.00	-56.449	90.930	
166.00	-51.539	92.342	
167.00	-48.845	93.277	
168.00	-47.621	93.070	
169.00	-47.484	90.996	
170.00	-48.519	84.809	
171.00	-50.460	71.107	
172.00	-52.287	45.668	
173.00	-52.295	16.346	
174.00	-51.987	-1.697	
175.00	-54.433	-3.143	
176.00	-62.669	80.841	
177.00	-47.996	139.710	
178.00	-40.832	143.233	
179.00	-36.090	143.711	
180.00	-32.716	143.188	
181.00	-30.255	142.148	
182.00	-28.520	140.865	
183.00	-27.392	139.308	
184.00	-26.794	137.653	
185.00	-26.722	135.598	
186.00	-27.179	133.822	
187.00	-28.206	131.573	
188.00	-29.858	129.489	
189.00	-32.364	127.324	
190.00	-35.911	126.167	
191.00	-41.321	127.180	
192.00	-51.614	144.786	
193.00	-52.270	-96.465	
194.00	-46.557	-81.938	
195.00	-45.495	-79.014	
196.00	-46.873	-74.780	
197.00	-50.370	-61.243	
198.00	-53.198	-21.789	
199.00	-50.946	16.026	
200.00	-48.305	26.474	
201.00	-47.492	26.723	
202.00	-48.347	22.881	
203.00	-50.918	18.681	
204.00	-57.346	17.168	
205.00	-68.380	114.368	
206.00	-55.706	150.195	
207.00	-51.511	140.428	
208.00	-49.799	124.158	
209.00	-49.159	100.712	
210.00	-48.831	75.564	
211.00	-48.465	46.864	
212.00	-47.445	16.913	
213.00	-46.263	-7.721	
214.00	-45.556	-29.690	
215.00	-45.155	-50.417	
216.00	-45.430	-69.998	
217.00	-46.156	-88.421	
218.00	-47.717	-107.767	
219.00	-49.811	-130.281	
220.00	-52.909	-156.269	
221.00	-57.416	164.666	
222.00	-59.193	94.520	
223.00	-55.458	40.891	
224.00	-52.048	13.829	
225.00	-50.095	-5.801	
226.00	-49.205	-21.352	
227.00	-48.871	-35.015	
228.00	-49.312	-47.354	
229.00	-49.996	-58.742	
230.00	-51.173	-68.523	
231.00	-52.251	-76.442	
232.00	-53.142	-81.230	
233.00	-54.036	-85.830	
234.00	-54.535	-90.113	
235.00	-54.803	-93.693	
236.00	-55.150	-101.149	
237.00	-55.887	-109.531	
238.00	-57.039	-122.631	
239.00	-58.677	-136.605	
240.00	-60.664	-153.104	
241.00	-63.828	-175.150	
242.00	-66.704	150.031	
243.00	-70.381	120.411	
244.00	-72.786	57.957	
245.00	-71.739	-8.215	
246.00	-69.080	-45.840	
247.00	-66.809	-78.983	
248.00	-65.623	-97.442	
249.00	-64.656	-120.080	
250.00	-64.473	-138.682	
251.00	-65.069	-161.018	
252.00	-66.487	-178.522	
253.00	-68.886	156.629	
254.00	-72.068	121.534	
255.00	-75.642	74.553	
256.00	-71.945	19.171	
257.00	-70.244	-17.228	
258.00	-68.239	-33.510	
259.00	-67.081	-55.562	
260.00	-67.272	-70.336	
261.00	-67.874	-83.037	
262.00	-69.956	-101.568	
263.00	-72.505	-112.905	
264.00	-77.642	-153.128	
265.00	-79.572	128.096	
266.00	-76.836	69.034	
267.00	-72.450	38.142	
268.00	-69.996	24.408	
269.00	-69.592	6.418	
270.00	-67.189	-15.324	
271.00	-66.329	-37.946	
272.00	-66.494	-47.954	
273.00	-66.223	-68.725	
274.00	-67.074	-91.041	
275.00	-67.842	-104.926	
276.00	-69.981	-135.038	
277.00	-68.382	-131.778	
278.00	-71.991	-155.965	
279.00	-72.895	147.395	
280.00	-76.411	122.662	
281.00	-85.862	86.796	
282.00	-71.441	23.314	
283.00	-68.806	0.701	
284.00	-69.061	-22.461	
285.00	-68.131	-41.381	
286.00	-68.931	-71.751	
287.00	-68.995	-99.549	
288.00	-68.131	-119.487	
289.00	-68.023	-138.332	
290.00	-67.442	-155.313	
291.00	-69.235	-155.919	
292.00	-71.128	-165.111	
293.00	-73.539	174.118	
294.00	-75.059	174.762	
295.00	-80.583	175.453	
296.00	-90.071	125.740	
297.00	-84.240	-177.944	
298.00	-78.703	173.141	
299.00	-77.391	170.412	
300.00	-74.411	164.472	
301.00	-73.380	155.057	
302.00	-71.655	141.395	
303.00	-69.993	133.212	
304.00	-72.049	130.870	
305.00	-70.607	120.149	
306.00	-70.821	105.674	
307.00	-71.517	85.207	
308.00	-71.928	71.223	
309.00	-71.900	69.186	
310.00	-70.184	22.090	
311.00	-68.872	9.057	
312.00	-67.667	-7.514	
313.00	-66.869	-24.819	
314.00	-67.926	-34.335	
315.00	-68.793	-51.430	
316.00	-71.888	-70.314	
317.00	-75.384	-118.236	
318.00	-74.928	-164.730	
319.00	-75.400	122.560	
320.00	-71.740	124.803	
321.00	-70.855	113.014	
322.00	-68.905	103.119	
323.00	-69.181	92.758	
324.00	-68.541	82.750	
325.00	-68.313	84.138	
326.00	-68.939	81.564	
327.00	-68.162	82.409	
328.00	-67.536	87.816	
329.00	-67.075	90.983	
330.00	-66.597	85.411	
331.00	-66.276	77.673	
332.00	-68.599	73.486	
333.00	-73.737	51.552	
334.00	-100.900	124.274	
335.00	-73.082	-125.841	
336.00	-66.488	-143.229	
337.00	-63.986	-144.539	
338.00	-62.867	-152.702	
339.00	-62.447	-157.171	
340.00	-62.769	-162.908	
341.00	-63.229	-173.139	
342.00	-64.272	178.165	
343.00	-64.710	166.611	
344.00	-65.243	155.038	
345.00	-65.062	140.380	
346.00	-65.475	125.925	
347.00	-66.307	111.444	
348.00	-65.730	104.393	
349.00	-66.368	96.172	
350.00	-67.262	90.886	
351.00	-67.771	76.504	
352.00	-70.213	57.760	
353.00	-70.798	34.032	
354.00	-70.753	14.818	
355.00	-68.486	-3.118	
356.00	-66.838	-10.191	
357.00	-66.354	-16.824	
358.00	-66.515	-19.848	
359.00	-66.556	-22.608	
Frequency	2496.00	MHz	
Channel	test		
Scan Axis name	Azimuth  [deg]		
Scan Axis	Amplitude	Phase	
			
0.00	-69.401	149.403	
1.00	-84.262	-175.194	
2.00	-75.614	-84.912	
3.00	-82.757	-120.932	
4.00	-77.114	94.186	
5.00	-73.406	79.816	
6.00	-65.004	80.186	
7.00	-63.128	86.169	
8.00	-62.274	81.328	
9.00	-62.452	78.511	
10.00	-62.999	73.283	
11.00	-64.684	67.215	
12.00	-66.781	59.852	
13.00	-71.841	80.972	
14.00	-78.418	-2.256	
15.00	-71.167	-26.662	
16.00	-66.882	-35.520	
17.00	-70.722	-28.423	
18.00	-66.900	-37.957	
19.00	-68.831	-26.628	
20.00	-69.723	-18.106	
21.00	-73.924	29.509	
22.00	-80.241	82.659	
23.00	-74.365	87.174	
24.00	-76.888	82.400	
25.00	-73.825	140.596	
26.00	-71.475	131.987	
27.00	-71.355	150.176	
28.00	-69.470	145.255	
29.00	-66.994	153.080	
30.00	-65.737	169.635	
31.00	-65.917	171.590	
32.00	-63.691	164.735	
33.00	-64.234	173.964	
34.00	-64.318	165.872	
35.00	-64.854	164.302	
36.00	-65.949	176.207	
37.00	-67.732	-160.494	
38.00	-70.160	-128.796	
39.00	-70.471	-94.631	
40.00	-72.445	-76.337	
41.00	-68.251	-61.634	
42.00	-68.064	-20.550	
43.00	-71.598	-26.527	
44.00	-72.569	-26.770	
45.00	-74.423	-0.279	
46.00	-77.698	-41.872	
47.00	-78.415	-130.788	
48.00	-75.460	-156.259	
49.00	-72.467	-139.990	
50.00	-74.408	-140.936	
51.00	-74.392	-138.231	
52.00	-78.456	-109.659	
53.00	-85.087	-69.033	
54.00	-89.265	63.428	
55.00	-76.616	38.445	
56.00	-70.405	62.665	
57.00	-67.881	62.584	
58.00	-67.969	64.113	
59.00	-74.099	57.406	
60.00	-75.080	-1.497	
61.00	-74.718	-86.521	
62.00	-67.517	-69.944	
63.00	-63.501	-64.763	
64.00	-61.339	-65.540	
65.00	-61.462	-50.848	
66.00	-63.508	-36.496	
67.00	-66.235	-33.992	
68.00	-73.867	-26.814	
69.00	-75.213	177.667	
70.00	-65.302	171.432	
71.00	-62.463	-172.597	
72.00	-62.291	-165.894	
73.00	-61.081	-160.064	
74.00	-63.646	-149.699	
75.00	-67.235	-134.164	
76.00	-76.472	-109.813	
77.00	-75.486	31.570	
78.00	-68.352	57.738	
79.00	-65.582	72.864	
80.00	-63.668	86.627	
81.00	-65.253	109.352	
82.00	-65.175	129.713	
83.00	-67.126	166.466	
84.00	-66.300	-178.593	
85.00	-71.177	-114.480	
86.00	-75.360	-121.287	
87.00	-68.849	-85.649	
88.00	-68.181	-100.643	
89.00	-65.608	-85.674	
90.00	-87.787	-11.931	
91.00	-70.750	-12.053	
92.00	-73.266	-61.120	
93.00	-67.853	-12.606	
94.00	-71.046	-24.734	
95.00	-66.990	-39.296	
96.00	-67.827	-8.104	
97.00	-68.318	15.604	
98.00	-65.993	37.562	
99.00	-68.538	47.597	
100.00	-66.691	113.688	
101.00	-64.159	160.559	
102.00	-62.691	-169.896	
103.00	-59.491	-157.377	
104.00	-58.156	-138.921	
105.00	-58.270	-120.088	
106.00	-58.445	-104.534	
107.00	-57.859	-77.690	
108.00	-58.875	-62.305	
109.00	-60.001	-29.199	
110.00	-60.530	-10.188	
111.00	-60.618	16.387	
112.00	-62.128	43.909	
113.00	-62.240	75.741	
114.00	-64.760	102.169	
115.00	-66.724	130.885	
116.00	-68.641	-169.129	
117.00	-67.194	-128.799	
118.00	-65.700	-82.085	
119.00	-63.141	-51.825	
120.00	-63.034	-35.757	
121.00	-62.624	-15.364	
122.00	-64.473	-11.339	
123.00	-64.036	-21.290	
124.00	-63.687	-40.236	
125.00	-60.296	-51.350	
126.00	-58.021	-52.146	
127.00	-55.852	-42.787	
128.00	-54.507	-32.646	
129.00	-53.651	-21.423	
130.00	-53.526	-7.388	
131.00	-53.524	5.111	
132.00	-55.236	15.350	
133.00	-56.930	14.368	
134.00	-58.849	3.262	
135.00	-56.750	-17.331	
136.00	-53.922	-21.029	
137.00	-51.013	-14.137	
138.00	-48.513	-4.540	
139.00	-46.639	7.206	
140.00	-45.341	20.829	
141.00	-44.552	32.210	
142.00	-44.456	46.241	
143.00	-45.053	58.610	
144.00	-46.267	73.052	
145.00	-48.534	88.869	
146.00	-52.247	111.690	
147.00	-56.897	157.349	
148.00	-55.539	-139.713	
149.00	-52.208	-106.700	
150.00	-49.994	-92.003	
151.00	-49.143	-78.877	
152.00	-48.982	-70.943	
153.00	-49.150	-64.963	
154.00	-49.747	-56.830	
155.00	-50.239	-51.863	
156.00	-50.910	-44.305	
157.00	-50.920	-35.652	
158.00	-51.105	-25.785	
159.00	-50.505	-17.730	
160.00	-50.481	-14.803	
161.00	-50.583	-5.334	
162.00	-51.655	-6.484	
163.00	-51.853	-13.877	
164.00	-53.202	-33.911	
165.00	-51.955	-59.323	
166.00	-49.187	-78.363	
167.00	-47.380	-86.493	
168.00	-45.784	-93.011	
169.00	-45.485	-97.507	
170.00	-46.191	-101.830	
171.00	-47.945	-104.503	
172.00	-51.425	-111.757	
173.00	-56.174	-125.546	
174.00	-66.675	-131.644	
175.00	-58.677	-27.495	
176.00	-48.755	-37.544	
177.00	-42.001	-43.900	
178.00	-37.126	-49.581	
179.00	-33.285	-52.573	
180.00	-30.347	-55.737	
181.00	-28.157	-57.911	
182.00	-26.542	-60.070	
183.00	-25.538	-62.072	
184.00	-24.988	-63.916	
185.00	-25.004	-65.702	
186.00	-25.522	-67.279	
187.00	-26.629	-69.234	
188.00	-28.370	-70.029	
189.00	-31.075	-71.229	
190.00	-34.800	-69.609	
191.00	-40.650	-63.307	
192.00	-49.869	-21.481	
193.00	-46.850	58.017	
194.00	-43.597	71.304	
195.00	-43.264	76.079	
196.00	-45.083	79.613	
197.00	-48.743	93.710	
198.00	-52.930	139.715	
199.00	-50.708	-176.882	
200.00	-48.452	-163.918	
201.00	-48.365	-161.213	
202.00	-50.630	-160.838	
203.00	-57.487	-153.231	
204.00	-59.673	-43.088	
205.00	-51.158	-21.594	
206.00	-47.715	-24.037	
207.00	-46.446	-29.559	
208.00	-47.048	-38.309	
209.00	-49.539	-50.407	
210.00	-55.526	-84.064	
211.00	-56.498	178.170	
212.00	-49.110	140.187	
213.00	-45.444	124.128	
214.00	-43.254	111.728	
215.00	-42.415	101.603	
216.00	-42.410	91.479	
217.00	-43.178	81.484	
218.00	-44.545	72.861	
219.00	-46.628	65.250	
220.00	-49.521	59.575	
221.00	-52.928	66.019	
222.00	-55.423	84.734	
223.00	-54.767	104.031	
224.00	-53.085	109.011	
225.00	-51.166	107.607	
226.00	-50.430	98.882	
227.00	-50.180	89.334	
228.00	-50.424	78.311	
229.00	-50.709	66.929	
230.00	-51.544	54.775	
231.00	-52.306	41.213	
232.00	-52.713	28.502	
233.00	-53.555	17.696	
234.00	-54.164	6.295	
235.00	-54.808	-2.059	
236.00	-55.822	-12.829	
237.00	-57.221	-31.722	
238.00	-59.885	-47.918	
239.00	-63.020	-75.610	
240.00	-65.253	-111.417	
241.00	-64.378	-150.658	
242.00	-63.653	166.857	
243.00	-62.578	138.643	
244.00	-63.335	109.708	
245.00	-62.073	81.431	
246.00	-62.302	49.724	
247.00	-62.858	25.665	
248.00	-61.774	-6.595	
249.00	-61.996	-32.074	
250.00	-61.650	-64.220	
251.00	-62.991	-93.810	
252.00	-62.045	-124.897	
253.00	-62.080	-155.069	
254.00	-62.067	168.241	
255.00	-61.387	146.968	
256.00	-60.678	132.061	
257.00	-59.958	104.500	
258.00	-60.489	87.101	
259.00	-60.866	55.678	
260.00	-59.897	34.056	
261.00	-61.104	11.272	
262.00	-60.590	-12.367	
263.00	-61.000	-36.480	
264.00	-62.406	-60.805	
265.00	-63.799	-78.273	
266.00	-63.607	-106.172	
267.00	-64.469	-137.077	
268.00	-64.453	-165.593	
269.00	-63.881	169.775	
270.00	-65.796	145.792	
271.00	-64.511	117.489	
272.00	-64.580	93.639	
273.00	-64.501	68.400	
274.00	-64.575	52.028	
275.00	-65.162	32.472	
276.00	-65.287	11.921	
277.00	-66.031	-13.311	
278.00	-68.046	-26.143	
279.00	-71.909	-30.796	
280.00	-69.365	-75.631	
281.00	-85.781	-132.462	
282.00	-78.679	146.175	
283.00	-73.956	83.935	
284.00	-69.380	86.398	
285.00	-69.787	65.978	
286.00	-67.823	60.987	
287.00	-68.956	22.753	
288.00	-68.246	-5.506	
289.00	-69.916	-36.862	
290.00	-69.964	-53.389	
291.00	-72.838	-93.930	
292.00	-70.078	-122.685	
293.00	-71.595	-147.431	
294.00	-72.073	168.771	
295.00	-70.798	153.080	
296.00	-69.543	108.863	
297.00	-68.137	91.329	
298.00	-66.332	68.919	
299.00	-66.825	50.522	
300.00	-64.322	50.661	
301.00	-66.319	6.955	
302.00	-67.182	0.668	
303.00	-64.745	-15.661	
304.00	-66.585	-36.350	
305.00	-65.874	-46.629	
306.00	-67.361	-68.972	
307.00	-66.617	-98.817	
308.00	-70.104	-92.320	
309.00	-69.472	-117.580	
310.00	-68.267	-135.228	
311.00	-68.240	-147.885	
312.00	-71.865	-147.144	
313.00	-74.050	-154.124	
314.00	-77.513	-144.518	
315.00	-80.686	-54.293	
316.00	-75.754	-22.367	
317.00	-68.060	-45.725	
318.00	-68.017	-49.592	
319.00	-66.464	-56.371	
320.00	-66.803	-88.053	
321.00	-67.360	-99.907	
322.00	-68.778	-122.313	
323.00	-69.802	-146.202	
324.00	-77.843	-162.869	
325.00	-86.875	91.272	
326.00	-75.305	19.641	
327.00	-72.806	-3.855	
328.00	-68.899	-17.905	
329.00	-67.229	-44.274	
330.00	-68.262	-46.360	
331.00	-71.035	-53.918	
332.00	-72.954	-48.637	
333.00	-73.941	-23.585	
334.00	-69.026	12.766	
335.00	-66.670	0.000	
336.00	-65.153	-6.181	
337.00	-64.075	-15.928	
338.00	-64.463	-20.853	
339.00	-63.737	-34.785	
340.00	-65.424	-33.029	
341.00	-67.369	-27.930	
342.00	-66.303	-17.180	
343.00	-67.167	-12.244	
344.00	-65.095	-4.474	
345.00	-64.294	-8.893	
346.00	-63.717	-7.974	
347.00	-64.278	-14.117	
348.00	-63.273	-15.170	
349.00	-63.777	-19.810	
350.00	-65.708	-19.543	
351.00	-68.101	-21.708	
352.00	-76.369	-13.670	
353.00	-89.233	41.226	
354.00	-75.671	108.779	
355.00	-69.809	129.499	
356.00	-67.300	127.152	
357.00	-63.767	127.796	
358.00	-65.440	130.077	
359.00	-67.152	129.827	
Frequency	2550.00	MHz	
Channel	test		
Scan Axis name	Azimuth  [deg]		
Scan Axis	Amplitude	Phase	
			
0.00	-72.111	14.685	
1.00	-71.975	-17.821	
2.00	-67.031	-49.636	
3.00	-69.269	-39.114	
4.00	-66.460	-57.126	
5.00	-65.488	-60.848	
6.00	-66.616	-87.542	
7.00	-64.267	-86.112	
8.00	-64.086	-99.511	
9.00	-67.329	-106.850	
10.00	-66.924	-102.455	
11.00	-67.635	-105.163	
12.00	-68.052	-98.559	
13.00	-68.559	-99.967	
14.00	-75.452	-105.350	
15.00	-74.239	-151.584	
16.00	-77.505	-174.685	
17.00	-71.236	119.092	
18.00	-69.615	116.161	
19.00	-68.425	114.584	
20.00	-66.446	99.923	
21.00	-68.583	89.046	
22.00	-71.940	79.038	
23.00	-69.513	71.199	
24.00	-71.908	64.580	
25.00	-71.338	60.967	
26.00	-77.325	22.162	
27.00	-77.329	-4.289	
28.00	-83.089	-56.200	
29.00	-75.567	-85.141	
30.00	-73.933	-101.981	
31.00	-71.425	-103.570	
32.00	-67.301	-132.548	
33.00	-66.575	-131.139	
34.00	-64.875	-131.641	
35.00	-64.213	-134.500	
36.00	-63.244	-133.577	
37.00	-64.433	-134.312	
38.00	-64.595	-142.008	
39.00	-66.813	-151.050	
40.00	-66.841	-169.010	
41.00	-63.560	-177.035	
42.00	-65.761	167.885	
43.00	-62.798	177.435	
44.00	-62.248	-166.403	
45.00	-62.871	-159.489	
46.00	-62.936	-148.168	
47.00	-63.021	-140.386	
48.00	-63.290	-130.375	
49.00	-63.770	-132.847	
50.00	-63.713	-135.226	
51.00	-64.555	-123.668	
52.00	-65.382	-117.706	
53.00	-69.245	-139.583	
54.00	-71.439	-148.786	
55.00	-72.883	169.370	
56.00	-69.797	147.036	
57.00	-68.096	150.264	
58.00	-68.785	155.562	
59.00	-74.071	166.844	
60.00	-93.913	-92.999	
61.00	-72.742	6.429	
62.00	-66.556	21.456	
63.00	-64.773	37.256	
64.00	-64.438	57.265	
65.00	-65.614	80.770	
66.00	-68.310	99.011	
67.00	-69.527	158.299	
68.00	-68.144	-148.780	
69.00	-65.515	-112.185	
70.00	-64.975	-79.551	
71.00	-64.856	-46.880	
72.00	-63.519	-13.764	
73.00	-63.751	25.868	
74.00	-62.839	58.418	
75.00	-61.773	85.539	
76.00	-62.271	111.618	
77.00	-62.321	136.879	
78.00	-63.200	171.443	
79.00	-64.000	-149.014	
80.00	-62.408	-118.185	
81.00	-61.300	-72.591	
82.00	-60.477	-38.732	
83.00	-60.301	-12.559	
84.00	-58.998	16.527	
85.00	-58.612	45.601	
86.00	-56.671	71.720	
87.00	-57.033	105.055	
88.00	-57.930	109.159	
89.00	-57.198	142.443	
90.00	-57.125	172.236	
91.00	-57.346	-168.424	
92.00	-57.296	-140.787	
93.00	-56.704	-115.633	
94.00	-57.733	-99.914	
95.00	-58.150	-71.925	
96.00	-59.684	-52.374	
97.00	-61.001	-27.494	
98.00	-62.677	-6.408	
99.00	-63.674	18.601	
100.00	-66.703	33.418	
101.00	-68.197	49.519	
102.00	-69.802	46.118	
103.00	-68.454	29.030	
104.00	-66.188	20.071	
105.00	-63.399	34.617	
106.00	-61.792	42.614	
107.00	-60.821	59.341	
108.00	-59.997	75.725	
109.00	-59.770	100.197	
110.00	-60.199	120.049	
111.00	-61.255	146.950	
112.00	-61.902	169.068	
113.00	-63.350	-155.384	
114.00	-62.980	-118.744	
115.00	-62.693	-89.087	
116.00	-63.545	-58.898	
117.00	-65.045	-36.944	
118.00	-67.947	13.722	
119.00	-65.293	63.102	
120.00	-62.158	100.181	
121.00	-60.214	119.741	
122.00	-59.148	129.778	
123.00	-60.369	134.874	
124.00	-61.821	131.946	
125.00	-62.957	122.644	
126.00	-62.715	110.697	
127.00	-60.986	109.754	
128.00	-58.646	117.839	
129.00	-56.764	135.286	
130.00	-54.479	152.099	
131.00	-52.757	167.697	
132.00	-51.859	-178.191	
133.00	-51.265	-168.780	
134.00	-52.240	-161.984	
135.00	-53.181	-160.115	
136.00	-54.279	-161.813	
137.00	-55.331	176.638	
138.00	-53.972	159.856	
139.00	-51.296	154.307	
140.00	-49.556	159.735	
141.00	-47.938	164.875	
142.00	-47.008	175.124	
143.00	-46.858	-174.652	
144.00	-47.278	-165.647	
145.00	-48.702	-156.578	
146.00	-51.223	-150.583	
147.00	-55.395	-151.493	
148.00	-61.739	-178.757	
149.00	-60.415	111.761	
150.00	-55.216	105.648	
151.00	-52.352	110.659	
152.00	-50.619	117.360	
153.00	-49.857	125.637	
154.00	-49.157	133.337	
155.00	-48.953	137.907	
156.00	-48.642	142.783	
157.00	-48.695	145.603	
158.00	-48.633	147.966	
159.00	-48.487	149.784	
160.00	-48.526	152.214	
161.00	-48.782	153.814	
162.00	-49.332	155.016	
163.00	-50.586	152.916	
164.00	-52.291	146.255	
165.00	-54.596	126.698	
166.00	-55.095	88.680	
167.00	-52.664	64.216	
168.00	-50.096	49.604	
169.00	-49.166	41.387	
170.00	-49.137	35.209	
171.00	-50.303	26.595	
172.00	-53.233	18.012	
173.00	-60.017	-2.721	
174.00	-66.273	-131.196	
175.00	-55.010	169.431	
176.00	-47.842	148.037	
177.00	-42.891	131.163	
178.00	-38.652	120.330	
179.00	-35.094	112.667	
180.00	-32.316	106.850	
181.00	-30.188	102.545	
182.00	-28.711	98.830	
183.00	-27.781	96.028	
184.00	-27.388	93.543	
185.00	-27.511	91.272	
186.00	-28.218	89.521	
187.00	-29.568	87.763	
188.00	-31.616	87.310	
189.00	-34.622	88.005	
190.00	-39.167	91.937	
191.00	-45.756	110.131	
192.00	-50.223	175.928	
193.00	-46.660	-146.162	
194.00	-45.409	-138.304	
195.00	-46.495	-134.984	
196.00	-49.702	-125.470	
197.00	-54.355	-98.898	
198.00	-56.341	-33.630	
199.00	-52.978	-2.740	
200.00	-51.345	1.362	
201.00	-52.895	11.895	
202.00	-56.228	36.175	
203.00	-56.293	96.913	
204.00	-50.744	113.031	
205.00	-47.785	113.690	
206.00	-46.706	110.250	
207.00	-46.632	102.018	
208.00	-47.948	93.522	
209.00	-50.765	72.803	
210.00	-56.529	34.240	
211.00	-57.647	-43.620	
212.00	-50.899	-80.984	
213.00	-47.807	-99.361	
214.00	-46.398	-110.962	
215.00	-45.436	-123.326	
216.00	-45.722	-131.068	
217.00	-47.259	-136.422	
218.00	-49.220	-139.125	
219.00	-52.100	-130.052	
220.00	-55.032	-114.094	
221.00	-54.124	-85.739	
222.00	-52.342	-77.789	
223.00	-50.830	-78.657	
224.00	-50.231	-82.208	
225.00	-50.308	-90.645	
226.00	-50.638	-101.871	
227.00	-51.185	-111.361	
228.00	-51.696	-123.501	
229.00	-52.473	-135.530	
230.00	-52.801	-143.970	
231.00	-53.729	-157.303	
232.00	-54.228	-163.723	
233.00	-55.318	179.633	
234.00	-55.351	163.566	
235.00	-56.544	151.664	
236.00	-57.273	139.567	
237.00	-59.305	121.622	
238.00	-61.117	111.743	
239.00	-64.547	100.049	
240.00	-71.647	97.097	
241.00	-89.099	-79.763	
242.00	-74.112	-148.807	
243.00	-68.865	-169.941	
244.00	-67.021	167.336	
245.00	-67.508	132.002	
246.00	-66.334	92.054	
247.00	-63.107	52.263	
248.00	-60.226	29.218	
249.00	-57.971	10.283	
250.00	-56.495	-11.510	
251.00	-55.679	-26.734	
252.00	-55.472	-43.886	
253.00	-55.574	-61.067	
254.00	-55.761	-78.430	
255.00	-56.548	-98.013	
256.00	-57.744	-117.584	
257.00	-59.026	-143.173	
258.00	-60.877	-168.182	
259.00	-60.990	162.911	
260.00	-61.606	125.164	
261.00	-61.218	104.314	
262.00	-61.196	78.306	
263.00	-60.927	54.144	
264.00	-60.516	31.401	
265.00	-61.116	6.206	
266.00	-61.480	-13.883	
267.00	-60.801	-33.766	
268.00	-60.562	-53.969	
269.00	-60.250	-72.080	
270.00	-59.841	-86.541	
271.00	-59.939	-102.285	
272.00	-60.772	-114.177	
273.00	-61.641	-127.964	
274.00	-63.333	-143.499	
275.00	-65.295	-162.358	
276.00	-67.617	-175.201	
277.00	-70.890	169.980	
278.00	-78.214	119.738	
279.00	-86.230	162.104	
280.00	-75.533	-117.395	
281.00	-70.772	-71.579	
282.00	-65.503	-94.032	
283.00	-63.615	-99.115	
284.00	-63.598	-122.615	
285.00	-62.404	-126.567	
286.00	-62.277	-150.122	
287.00	-64.919	-177.644	
288.00	-63.897	170.408	
289.00	-64.742	160.717	
290.00	-65.116	154.303	
291.00	-64.605	142.301	
292.00	-64.681	138.568	
293.00	-65.882	130.124	
294.00	-65.788	128.966	
295.00	-69.311	125.678	
296.00	-66.143	136.621	
297.00	-69.227	114.899	
298.00	-68.983	91.364	
299.00	-69.024	78.953	
300.00	-69.772	60.305	
301.00	-70.439	31.529	
302.00	-70.658	14.449	
303.00	-69.583	-1.086	
304.00	-71.678	-3.684	
305.00	-73.428	6.315	
306.00	-72.881	29.536	
307.00	-71.951	45.394	
308.00	-69.275	43.872	
309.00	-68.669	54.992	
310.00	-67.328	54.965	
311.00	-66.758	41.199	
312.00	-67.744	28.482	
313.00	-67.443	21.538	
314.00	-69.591	7.678	
315.00	-71.347	-9.483	
316.00	-71.524	-15.287	
317.00	-73.400	-18.636	
318.00	-74.765	-14.196	
319.00	-74.779	-0.112	
320.00	-73.956	26.266	
321.00	-73.899	22.702	
322.00	-72.291	22.750	
323.00	-70.908	9.932	
324.00	-74.161	-4.153	
325.00	-72.847	-19.578	
326.00	-73.947	-36.813	
327.00	-72.001	-42.892	
328.00	-71.993	-51.880	
329.00	-69.804	-57.150	
330.00	-67.803	-64.680	
331.00	-66.305	-74.101	
332.00	-65.367	-73.940	
333.00	-64.410	-89.827	
334.00	-64.049	-97.854	
335.00	-64.546	-102.461	
336.00	-64.824	-110.222	
337.00	-66.446	-111.912	
338.00	-68.411	-115.606	
339.00	-70.035	-118.890	
340.00	-71.297	-133.792	
341.00	-71.134	-152.098	
342.00	-69.665	-166.416	
343.00	-70.763	146.459	
344.00	-71.804	152.265	
345.00	-70.726	114.156	
346.00	-67.665	102.323	
347.00	-66.377	89.722	
348.00	-74.928	87.862	
349.00	-69.859	92.631	
350.00	-78.872	46.803	
351.00	-81.469	-176.388	
352.00	-69.453	-142.092	
353.00	-68.201	-132.588	
354.00	-69.268	-145.688	
355.00	-70.403	-155.772	
356.00	-72.946	173.429	
357.00	-73.581	-144.492	
358.00	-74.591	-161.872	
359.00	-94.688	-36.791	
Frequency	2600.00	MHz	
Channel	test		
Scan Axis name	Azimuth  [deg]		
Scan Axis	Amplitude	Phase	
			
0.00	-63.765	-138.041	
1.00	-64.414	-148.555	
2.00	-65.022	-156.718	
3.00	-68.139	-168.161	
4.00	-72.980	172.637	
5.00	-84.533	110.095	
6.00	-73.011	30.907	
7.00	-67.469	25.347	
8.00	-64.165	23.460	
9.00	-62.621	27.385	
10.00	-61.513	27.252	
11.00	-60.821	27.999	
12.00	-60.484	27.148	
13.00	-60.710	27.984	
14.00	-61.329	28.491	
15.00	-62.411	28.204	
16.00	-65.629	23.091	
17.00	-69.519	8.016	
18.00	-71.844	-43.222	
19.00	-70.310	-77.719	
20.00	-66.494	-98.255	
21.00	-64.792	-102.494	
22.00	-63.810	-109.077	
23.00	-63.593	-115.664	
24.00	-62.732	-117.483	
25.00	-63.432	-115.573	
26.00	-65.237	-120.488	
27.00	-66.535	-125.988	
28.00	-67.811	-136.625	
29.00	-68.298	-146.220	
30.00	-68.595	-140.734	
31.00	-69.317	-130.941	
32.00	-71.567	-119.317	
33.00	-73.125	-87.786	
34.00	-74.872	-39.143	
35.00	-70.334	-6.495	
36.00	-67.347	8.365	
37.00	-65.759	9.565	
38.00	-65.283	23.339	
39.00	-66.427	24.502	
40.00	-70.669	15.174	
41.00	-74.402	-41.907	
42.00	-67.356	-78.089	
43.00	-63.721	-76.672	
44.00	-61.642	-68.251	
45.00	-60.741	-55.213	
46.00	-61.280	-43.657	
47.00	-61.884	-31.043	
48.00	-63.553	-18.011	
49.00	-65.583	-1.221	
50.00	-68.547	6.854	
51.00	-71.583	5.672	
52.00	-75.708	4.526	
53.00	-82.040	-83.801	
54.00	-71.893	-107.347	
55.00	-66.048	-105.080	
56.00	-62.366	-82.865	
57.00	-59.876	-74.107	
58.00	-58.631	-57.638	
59.00	-58.033	-42.922	
60.00	-58.282	-28.458	
61.00	-59.752	-16.167	
62.00	-62.583	-9.124	
63.00	-66.647	-13.420	
64.00	-70.328	-60.636	
65.00	-65.302	-69.189	
66.00	-62.805	-62.578	
67.00	-61.920	-50.755	
68.00	-61.379	-25.548	
69.00	-61.740	2.287	
70.00	-62.146	38.344	
71.00	-62.039	73.609	
72.00	-61.800	113.693	
73.00	-61.360	149.209	
74.00	-60.049	-176.213	
75.00	-58.615	-145.595	
76.00	-57.896	-120.957	
77.00	-57.711	-94.881	
78.00	-57.838	-71.666	
79.00	-59.354	-42.500	
80.00	-60.500	-8.895	
81.00	-61.619	30.741	
82.00	-61.274	71.080	
83.00	-60.383	109.070	
84.00	-59.091	140.332	
85.00	-58.298	173.015	
86.00	-57.727	-161.622	
87.00	-56.921	-130.569	
88.00	-56.359	-103.723	
89.00	-56.768	-76.151	
90.00	-57.192	-47.002	
91.00	-57.284	-18.833	
92.00	-57.181	13.535	
93.00	-56.457	49.200	
94.00	-55.680	74.208	
95.00	-55.042	96.712	
96.00	-54.807	115.992	
97.00	-54.905	136.757	
98.00	-56.156	157.150	
99.00	-57.934	178.379	
100.00	-60.421	-155.694	
101.00	-63.332	-110.096	
102.00	-66.248	-72.366	
103.00	-68.111	-12.084	
104.00	-68.303	51.661	
105.00	-66.540	88.241	
106.00	-65.127	125.160	
107.00	-63.198	169.263	
108.00	-61.873	-158.305	
109.00	-59.256	-123.569	
110.00	-57.055	-98.351	
111.00	-55.661	-74.678	
112.00	-54.728	-53.486	
113.00	-54.535	-32.705	
114.00	-55.032	-7.777	
115.00	-55.609	16.857	
116.00	-56.105	45.760	
117.00	-56.019	75.529	
118.00	-56.584	101.423	
119.00	-57.295	127.759	
120.00	-58.920	151.827	
121.00	-61.859	-175.647	
122.00	-62.891	-125.071	
123.00	-61.403	-81.998	
124.00	-59.509	-53.437	
125.00	-58.677	-40.839	
126.00	-59.514	-34.511	
127.00	-60.929	-34.877	
128.00	-62.009	-49.387	
129.00	-60.881	-60.643	
130.00	-58.611	-60.227	
131.00	-56.852	-45.479	
132.00	-55.392	-21.182	
133.00	-53.562	-1.439	
134.00	-52.215	16.750	
135.00	-51.680	33.021	
136.00	-51.878	47.851	
137.00	-53.033	63.580	
138.00	-56.802	78.895	
139.00	-69.239	111.958	
140.00	-60.241	-90.397	
141.00	-52.964	-73.252	
142.00	-49.315	-58.543	
143.00	-47.392	-46.283	
144.00	-46.513	-33.936	
145.00	-46.582	-21.497	
146.00	-47.484	-9.314	
147.00	-49.548	3.328	
148.00	-53.147	14.980	
149.00	-60.150	27.959	
150.00	-72.697	-150.479	
151.00	-57.708	-132.252	
152.00	-53.698	-121.530	
153.00	-51.813	-113.889	
154.00	-51.411	-105.927	
155.00	-52.363	-100.526	
156.00	-54.307	-96.054	
157.00	-56.990	-93.112	
158.00	-60.151	-93.021	
159.00	-62.961	-94.871	
160.00	-63.325	-89.419	
161.00	-61.456	-81.778	
162.00	-59.780	-75.464	
163.00	-57.954	-71.697	
164.00	-57.511	-75.940	
165.00	-57.248	-90.637	
166.00	-56.447	-114.416	
167.00	-54.245	-137.301	
168.00	-51.618	-150.402	
169.00	-49.797	-156.522	
170.00	-49.021	-160.420	
171.00	-49.397	-160.139	
172.00	-50.814	-157.185	
173.00	-53.645	-147.184	
174.00	-56.561	-119.035	
175.00	-54.744	-84.738	
176.00	-50.641	-76.577	
177.00	-46.717	-83.718	
178.00	-43.151	-93.981	
179.00	-39.772	-103.100	
180.00	-36.993	-110.391	
181.00	-34.839	-116.163	
182.00	-33.288	-120.737	
183.00	-32.367	-124.494	
184.00	-32.022	-127.784	
185.00	-32.327	-130.875	
186.00	-33.292	-133.284	
187.00	-35.103	-135.959	
188.00	-38.030	-137.642	
189.00	-42.936	-138.372	
190.00	-53.011	-127.112	
191.00	-53.625	8.791	
192.00	-46.515	17.972	
193.00	-44.566	16.732	
194.00	-44.818	15.513	
195.00	-46.746	14.040	
196.00	-50.527	16.150	
197.00	-56.931	30.392	
198.00	-62.709	92.721	
199.00	-59.220	137.131	
200.00	-58.925	147.966	
201.00	-62.725	164.797	
202.00	-66.075	-124.512	
203.00	-58.383	-90.057	
204.00	-55.049	-89.154	
205.00	-54.186	-96.882	
206.00	-55.616	-112.314	
207.00	-59.805	-149.980	
208.00	-58.579	133.015	
209.00	-52.617	96.245	
210.00	-49.065	76.565	
211.00	-46.813	62.928	
212.00	-45.959	49.917	
213.00	-45.885	39.003	
214.00	-46.782	27.866	
215.00	-48.820	18.313	
216.00	-52.408	13.005	
217.00	-59.248	21.526	
218.00	-61.499	97.743	
219.00	-55.080	118.812	
220.00	-52.139	113.648	
221.00	-50.744	103.252	
222.00	-50.366	89.473	
223.00	-50.747	75.609	
224.00	-51.622	60.114	
225.00	-53.591	45.610	
226.00	-55.644	29.213	
227.00	-58.874	12.907	
228.00	-61.833	-6.814	
229.00	-65.223	-15.611	
230.00	-68.205	-12.455	
231.00	-67.516	-0.860	
232.00	-65.652	2.950	
233.00	-63.632	-1.582	
234.00	-62.338	-15.270	
235.00	-61.814	-27.182	
236.00	-61.626	-38.929	
237.00	-62.313	-55.250	
238.00	-62.199	-65.926	
239.00	-62.554	-80.443	
240.00	-61.926	-87.616	
241.00	-61.119	-97.099	
242.00	-59.965	-108.454	
243.00	-59.103	-119.794	
244.00	-58.032	-134.669	
245.00	-57.306	-153.125	
246.00	-56.699	-172.124	
247.00	-56.265	167.869	
248.00	-55.375	145.645	
249.00	-54.528	125.329	
250.00	-53.793	105.703	
251.00	-53.235	89.232	
252.00	-53.062	73.310	
253.00	-53.327	56.045	
254.00	-53.830	39.656	
255.00	-54.730	22.482	
256.00	-56.109	2.218	
257.00	-57.086	-21.588	
258.00	-58.001	-43.315	
259.00	-58.214	-67.413	
260.00	-58.995	-87.925	
261.00	-59.906	-107.571	
262.00	-60.803	-127.250	
263.00	-61.816	-149.105	
264.00	-63.235	-173.274	
265.00	-64.732	162.111	
266.00	-65.210	129.302	
267.00	-65.211	100.373	
268.00	-64.214	75.359	
269.00	-63.915	54.202	
270.00	-64.072	37.231	
271.00	-63.562	21.772	
272.00	-63.960	1.072	
273.00	-65.514	-11.738	
274.00	-67.494	-36.126	
275.00	-69.455	-62.386	
276.00	-70.675	-95.195	
277.00	-70.261	-121.841	
278.00	-71.741	-139.790	
279.00	-71.282	-173.285	
280.00	-72.262	161.743	
281.00	-72.724	127.383	
282.00	-74.457	90.392	
283.00	-75.128	41.887	
284.00	-71.552	1.805	
285.00	-69.207	-2.075	
286.00	-68.852	-45.666	
287.00	-69.346	-79.703	
288.00	-68.241	-83.539	
289.00	-70.034	-120.293	
290.00	-70.228	-136.805	
291.00	-71.251	-154.567	
292.00	-72.231	-168.911	
293.00	-74.302	-159.491	
294.00	-76.283	-137.557	
295.00	-73.798	-126.443	
296.00	-70.830	-126.042	
297.00	-69.006	-135.899	
298.00	-68.170	-150.225	
299.00	-67.048	-165.857	
300.00	-66.941	179.081	
301.00	-67.521	163.758	
302.00	-69.202	156.075	
303.00	-72.550	152.287	
304.00	-86.139	162.660	
305.00	-78.930	-110.756	
306.00	-75.509	-85.184	
307.00	-71.431	-96.425	
308.00	-70.260	-114.710	
309.00	-74.041	-139.564	
310.00	-76.250	-173.734	
311.00	-74.548	139.341	
312.00	-71.983	128.893	
313.00	-69.597	134.092	
314.00	-67.607	127.649	
315.00	-66.011	125.230	
316.00	-64.611	116.333	
317.00	-63.101	105.681	
318.00	-63.421	96.643	
319.00	-63.579	88.236	
320.00	-64.346	73.453	
321.00	-65.795	56.323	
322.00	-68.192	37.004	
323.00	-71.714	7.736	
324.00	-72.471	-31.436	
325.00	-71.286	-65.015	
326.00	-69.461	-85.209	
327.00	-68.690	-100.966	
328.00	-69.944	-114.620	
329.00	-74.025	-114.870	
330.00	-84.499	-119.049	
331.00	-81.559	53.373	
332.00	-72.374	33.416	
333.00	-68.091	30.246	
334.00	-66.431	19.213	
335.00	-64.443	16.090	
336.00	-63.012	13.197	
337.00	-62.532	3.930	
338.00	-62.001	-2.353	
339.00	-62.249	-17.369	
340.00	-63.046	-29.969	
341.00	-63.923	-46.472	
342.00	-65.416	-61.450	
343.00	-67.442	-83.749	
344.00	-68.769	-102.845	
345.00	-69.419	-138.386	
346.00	-69.902	-164.689	
347.00	-70.388	176.477	
348.00	-72.037	155.922	
349.00	-78.562	121.049	
350.00	-79.294	43.024	
351.00	-74.310	-6.274	
352.00	-71.005	-35.650	
353.00	-68.595	-50.377	
354.00	-66.897	-66.420	
355.00	-65.193	-86.041	
356.00	-64.098	-100.063	
357.00	-63.084	-111.275	
358.00	-63.083	-122.947	
359.00	-63.024	-131.893	
Frequency	2650.00	MHz	
Channel	test		
Scan Axis name	Azimuth  [deg]		
Scan Axis	Amplitude	Phase	
			
0.00	-59.938	22.058	
1.00	-61.178	-5.732	
2.00	-62.616	4.889	
3.00	-63.206	-45.178	
4.00	-64.654	-79.441	
5.00	-67.425	-48.792	
6.00	-69.336	-74.676	
7.00	-69.836	-126.264	
8.00	-67.533	-164.888	
9.00	-67.235	-173.968	
10.00	-66.967	-137.198	
11.00	-67.441	-155.257	
12.00	-71.688	-167.960	
13.00	-67.135	154.765	
14.00	-69.590	107.831	
15.00	-69.264	117.483	
16.00	-66.386	141.411	
17.00	-66.774	106.978	
18.00	-69.573	109.188	
19.00	-65.718	84.997	
20.00	-69.675	80.895	
21.00	-68.548	38.524	
22.00	-64.160	52.683	
23.00	-61.303	31.107	
24.00	-60.744	12.091	
25.00	-58.532	13.945	
26.00	-60.544	36.217	
27.00	-62.137	21.131	
28.00	-63.408	22.477	
29.00	-62.525	5.283	
30.00	-60.596	3.913	
31.00	-63.691	5.971	
32.00	-66.204	-15.522	
33.00	-67.298	-17.314	
34.00	-64.838	-10.590	
35.00	-65.374	-6.720	
36.00	-66.054	4.757	
37.00	-78.402	-6.492	
38.00	-76.226	49.797	
39.00	-75.746	93.476	
40.00	-74.695	-110.601	
41.00	-67.953	-116.750	
42.00	-66.548	-70.076	
43.00	-64.679	-27.859	
44.00	-63.567	-4.955	
45.00	-62.692	26.240	
46.00	-62.819	54.927	
47.00	-65.737	84.246	
48.00	-65.996	108.740	
49.00	-65.988	132.827	
50.00	-67.024	117.703	
51.00	-66.453	120.831	
52.00	-69.412	95.819	
53.00	-68.733	88.843	
54.00	-71.445	52.316	
55.00	-65.113	35.926	
56.00	-59.996	37.133	
57.00	-59.057	52.388	
58.00	-56.920	62.743	
59.00	-56.968	81.060	
60.00	-58.166	101.876	
61.00	-61.116	136.417	
62.00	-62.602	177.848	
63.00	-64.007	-130.823	
64.00	-60.163	-82.662	
65.00	-58.479	-49.870	
66.00	-57.638	-31.999	
67.00	-58.234	-8.666	
68.00	-60.700	8.441	
69.00	-65.932	39.662	
70.00	-70.860	129.812	
71.00	-64.163	-149.832	
72.00	-61.852	-114.052	
73.00	-59.916	-85.558	
74.00	-58.331	-47.847	
75.00	-56.525	-19.550	
76.00	-55.344	7.047	
77.00	-54.644	37.935	
78.00	-53.730	59.722	
79.00	-54.249	90.923	
80.00	-54.615	124.362	
81.00	-54.578	152.879	
82.00	-54.568	-178.363	
83.00	-53.758	-143.965	
84.00	-54.333	-115.241	
85.00	-53.658	-89.737	
86.00	-53.898	-55.811	
87.00	-53.151	-29.601	
88.00	-52.867	-6.162	
89.00	-53.247	21.596	
90.00	-52.850	48.545	
91.00	-54.115	75.485	
92.00	-53.936	101.370	
93.00	-54.722	131.049	
94.00	-55.042	151.774	
95.00	-55.505	177.732	
96.00	-56.570	-139.402	
97.00	-57.669	-117.922	
98.00	-58.579	-78.584	
99.00	-58.603	-43.026	
100.00	-57.882	-26.459	
101.00	-58.138	18.030	
102.00	-58.980	53.848	
103.00	-59.788	66.395	
104.00	-60.357	96.780	
105.00	-59.789	111.913	
106.00	-62.329	153.157	
107.00	-70.733	164.507	
108.00	-87.335	127.323	
109.00	-68.369	23.339	
110.00	-63.625	45.152	
111.00	-59.687	59.433	
112.00	-59.263	72.692	
113.00	-57.738	102.706	
114.00	-55.461	123.270	
115.00	-54.722	136.068	
116.00	-54.475	159.310	
117.00	-54.711	171.190	
118.00	-56.131	-176.279	
119.00	-59.110	-161.779	
120.00	-65.325	-156.650	
121.00	-83.003	170.082	
122.00	-65.875	62.122	
123.00	-60.482	65.797	
124.00	-58.376	72.849	
125.00	-59.155	82.486	
126.00	-61.217	82.752	
127.00	-67.298	93.634	
128.00	-70.276	75.020	
129.00	-67.857	27.950	
130.00	-65.174	38.994	
131.00	-65.630	72.538	
132.00	-62.715	98.905	
133.00	-58.732	129.489	
134.00	-56.540	144.744	
135.00	-56.655	164.466	
136.00	-56.223	-174.113	
137.00	-59.852	-159.927	
138.00	-63.248	-107.094	
139.00	-63.962	-18.622	
140.00	-55.513	36.143	
141.00	-51.629	54.738	
142.00	-48.476	72.996	
143.00	-47.109	88.368	
144.00	-46.462	104.177	
145.00	-46.598	118.681	
146.00	-47.733	136.645	
147.00	-50.073	161.437	
148.00	-51.684	-168.924	
149.00	-53.706	-129.699	
150.00	-55.601	-88.654	
151.00	-54.997	-51.377	
152.00	-52.867	-14.589	
153.00	-51.837	7.542	
154.00	-52.093	21.328	
155.00	-52.787	35.537	
156.00	-55.283	42.008	
157.00	-59.713	37.623	
158.00	-62.930	26.315	
159.00	-67.256	16.856	
160.00	-62.584	5.795	
161.00	-62.042	-5.660	
162.00	-60.006	21.765	
163.00	-60.544	35.686	
164.00	-59.325	55.316	
165.00	-57.998	56.847	
166.00	-60.732	35.853	
167.00	-58.651	-7.920	
168.00	-55.843	-18.381	
169.00	-53.271	-31.343	
170.00	-53.342	-32.786	
171.00	-53.776	-27.702	
172.00	-55.910	-14.076	
173.00	-61.251	11.535	
174.00	-61.302	66.216	
175.00	-59.639	81.934	
176.00	-57.178	59.265	
177.00	-51.202	21.197	
178.00	-45.402	4.733	
179.00	-40.199	-4.808	
180.00	-36.380	-8.084	
181.00	-33.763	-10.996	
182.00	-31.999	-13.402	
183.00	-30.872	-15.411	
184.00	-30.478	-17.367	
185.00	-30.624	-19.526	
186.00	-31.564	-21.139	
187.00	-33.140	-23.784	
188.00	-35.880	-26.404	
189.00	-40.134	-29.154	
190.00	-47.714	-25.138	
191.00	-58.599	94.574	
192.00	-48.303	122.906	
193.00	-46.362	122.536	
194.00	-46.220	118.613	
195.00	-48.954	111.969	
196.00	-54.392	106.191	
197.00	-68.573	-139.743	
198.00	-57.194	-105.928	
199.00	-52.203	-110.000	
200.00	-51.706	-121.913	
201.00	-52.824	-134.662	
202.00	-56.309	-167.006	
203.00	-59.890	148.956	
204.00	-60.687	94.985	
205.00	-58.784	35.407	
206.00	-57.743	5.455	
207.00	-56.430	-43.149	
208.00	-54.732	-83.390	
209.00	-52.305	-124.375	
210.00	-49.975	-149.759	
211.00	-48.280	-176.120	
212.00	-47.019	164.877	
213.00	-47.105	146.096	
214.00	-47.493	129.259	
215.00	-49.004	109.649	
216.00	-51.713	90.068	
217.00	-57.581	70.999	
218.00	-66.853	-19.362	
219.00	-57.300	-101.259	
220.00	-52.824	-125.815	
221.00	-50.431	-137.072	
222.00	-49.850	-153.340	
223.00	-50.720	-170.515	
224.00	-51.294	173.569	
225.00	-52.625	147.895	
226.00	-54.000	132.036	
227.00	-55.299	99.941	
228.00	-56.469	93.354	
229.00	-57.665	75.399	
230.00	-58.385	69.901	
231.00	-57.644	60.955	
232.00	-57.268	62.347	
233.00	-57.614	57.120	
234.00	-56.680	48.022	
235.00	-58.050	42.694	
236.00	-59.396	44.989	
237.00	-59.807	17.653	
238.00	-62.176	18.965	
239.00	-65.782	25.433	
240.00	-65.589	38.763	
241.00	-63.804	62.271	
242.00	-61.925	45.482	
243.00	-59.617	33.412	
244.00	-59.708	15.332	
245.00	-58.276	-3.820	
246.00	-58.021	-11.495	
247.00	-59.223	-42.743	
248.00	-58.392	-56.897	
249.00	-58.805	-83.824	
250.00	-59.686	-105.566	
251.00	-58.521	-133.584	
252.00	-61.057	-152.636	
253.00	-59.417	-168.862	
254.00	-60.305	150.615	
255.00	-60.784	142.784	
256.00	-59.359	118.836	
257.00	-62.369	99.923	
258.00	-62.973	87.421	
259.00	-64.249	79.823	
260.00	-62.213	48.873	
261.00	-62.961	18.699	
262.00	-63.119	19.030	
263.00	-64.628	-6.668	
264.00	-62.961	-14.192	
265.00	-64.069	-38.243	
266.00	-64.139	-39.268	
267.00	-65.169	-77.073	
268.00	-67.623	-84.773	
269.00	-67.854	-93.270	
270.00	-67.388	-131.750	
271.00	-68.355	-135.199	
272.00	-72.182	-178.636	
273.00	-75.033	123.984	
274.00	-71.116	84.916	
275.00	-70.744	67.478	
276.00	-67.428	46.649	
277.00	-66.046	16.217	
278.00	-69.237	15.439	
279.00	-71.198	31.305	
280.00	-68.611	-28.934	
281.00	-72.739	-6.758	
282.00	-74.644	-14.258	
283.00	-77.563	-108.534	
284.00	-75.223	20.598	
285.00	-65.422	33.240	
286.00	-67.786	20.305	
287.00	-65.907	-2.316	
288.00	-64.889	-16.268	
289.00	-65.504	-25.926	
290.00	-65.827	-33.582	
291.00	-64.958	-53.184	
292.00	-66.975	-63.070	
293.00	-69.157	-73.002	
294.00	-72.217	-80.795	
295.00	-76.933	-80.729	
296.00	-82.762	-37.875	
297.00	-81.427	79.117	
298.00	-78.494	-75.673	
299.00	-89.322	11.473	
300.00	-69.366	-12.240	
301.00	-70.731	141.864	
302.00	-92.905	119.952	
303.00	-70.117	-131.288	
304.00	-70.910	52.184	
305.00	-75.843	-96.494	
306.00	-73.601	99.036	
307.00	-71.914	14.418	
308.00	-71.953	-50.377	
309.00	-67.304	-40.140	
310.00	-74.697	70.156	
311.00	-70.613	17.899	
312.00	-66.807	56.895	
313.00	-73.517	6.278	
314.00	-67.490	16.343	
315.00	-63.603	-15.607	
316.00	-64.930	-9.156	
317.00	-66.417	-30.888	
318.00	-66.435	-41.330	
319.00	-64.190	-56.067	
320.00	-63.316	-99.910	
321.00	-64.830	-76.197	
322.00	-63.983	-128.898	
323.00	-61.627	156.813	
324.00	-73.200	159.607	
325.00	-71.045	55.239	
326.00	-77.704	-171.113	
327.00	-59.932	19.827	
328.00	-69.478	46.392	
329.00	-73.884	-162.605	
330.00	-68.884	167.750	
331.00	-62.292	-104.302	
332.00	-72.848	-61.486	
333.00	-68.386	-164.503	
334.00	-68.426	-153.866	
335.00	-75.109	-96.142	
336.00	-78.346	-139.994	
337.00	-79.571	-171.641	
338.00	-73.339	154.265	
339.00	-78.203	140.682	
340.00	-68.770	134.443	
341.00	-67.567	99.254	
342.00	-66.973	103.567	
343.00	-70.945	102.116	
344.00	-65.306	52.160	
345.00	-70.338	16.149	
346.00	-65.761	2.765	
347.00	-67.765	-39.652	
348.00	-76.331	-62.115	
349.00	-69.228	-6.655	
350.00	-65.995	-32.101	
351.00	-66.496	-72.653	
352.00	-63.724	-90.582	
353.00	-70.334	-66.645	
354.00	-68.072	132.016	
355.00	-62.994	71.553	
356.00	-61.908	33.996	
357.00	-65.641	38.986	
358.00	-61.112	44.636	
359.00	-64.343	-19.331	
Frequency	2700.00	MHz	
Channel	test		
Scan Axis name	Azimuth  [deg]		
Scan Axis	Amplitude	Phase	
			
0.00	-63.586	135.480	
1.00	-65.932	132.887	
2.00	-67.323	176.164	
3.00	-70.073	155.853	
4.00	-70.184	-160.690	
5.00	-71.850	-89.516	
6.00	-68.049	-102.200	
7.00	-68.384	-56.133	
8.00	-67.916	-72.536	
9.00	-71.087	-49.360	
10.00	-70.742	-24.139	
11.00	-71.294	-32.724	
12.00	-99.836	-36.619	
13.00	-85.061	-68.117	
14.00	-85.801	67.390	
15.00	-73.474	-147.633	
16.00	-71.317	-119.087	
17.00	-70.777	-119.188	
18.00	-73.054	-98.854	
19.00	-74.724	-138.851	
20.00	-76.628	-151.685	
21.00	-72.098	-152.574	
22.00	-67.834	148.793	
23.00	-69.914	150.657	
24.00	-63.461	165.479	
25.00	-66.743	138.003	
26.00	-62.606	154.144	
27.00	-63.207	160.581	
28.00	-64.093	-179.084	
29.00	-64.353	-156.516	
30.00	-65.993	-147.136	
31.00	-66.630	-121.131	
32.00	-72.396	-128.830	
33.00	-70.268	-86.830	
34.00	-81.836	144.708	
35.00	-74.539	157.217	
36.00	-73.393	159.244	
37.00	-73.215	-155.404	
38.00	-70.229	-132.074	
39.00	-69.744	-82.190	
40.00	-67.095	-44.374	
41.00	-64.407	-20.983	
42.00	-63.945	3.207	
43.00	-62.205	67.677	
44.00	-63.460	80.877	
45.00	-62.510	134.610	
46.00	-63.500	167.991	
47.00	-63.490	-159.825	
48.00	-65.070	-143.315	
49.00	-65.181	-105.148	
50.00	-65.674	-96.792	
51.00	-65.097	-78.945	
52.00	-67.433	-57.751	
53.00	-71.929	-34.559	
54.00	-75.411	3.309	
55.00	-69.178	102.436	
56.00	-66.651	142.193	
57.00	-63.437	165.678	
58.00	-60.255	-171.194	
59.00	-59.728	-140.793	
60.00	-59.133	-111.068	
61.00	-59.341	-68.056	
62.00	-59.945	-34.511	
63.00	-58.773	12.123	
64.00	-56.835	55.999	
65.00	-55.186	87.358	
66.00	-55.109	120.093	
67.00	-54.499	153.983	
68.00	-55.184	-175.818	
69.00	-55.022	-145.969	
70.00	-56.605	-108.780	
71.00	-57.953	-68.251	
72.00	-58.688	-25.053	
73.00	-57.435	23.648	
74.00	-55.727	70.901	
75.00	-54.340	100.710	
76.00	-53.040	128.595	
77.00	-52.458	155.833	
78.00	-52.401	-176.755	
79.00	-53.033	-148.691	
80.00	-53.869	-115.321	
81.00	-53.831	-80.513	
82.00	-52.984	-39.146	
83.00	-52.665	-10.438	
84.00	-52.456	25.904	
85.00	-52.984	42.049	
86.00	-51.764	69.608	
87.00	-50.403	120.932	
88.00	-49.530	138.091	
89.00	-54.273	156.112	
90.00	-51.877	-177.447	
91.00	-51.570	-160.022	
92.00	-49.351	-121.968	
93.00	-50.056	-101.330	
94.00	-52.044	-65.053	
95.00	-51.939	-31.291	
96.00	-51.897	-9.966	
97.00	-51.958	23.353	
98.00	-51.595	51.293	
99.00	-51.995	79.501	
100.00	-51.170	108.208	
101.00	-51.057	149.115	
102.00	-51.411	174.319	
103.00	-52.126	-161.801	
104.00	-51.992	-135.826	
105.00	-52.108	-106.904	
106.00	-51.874	-84.971	
107.00	-52.295	-61.662	
108.00	-52.884	-41.366	
109.00	-53.934	-18.743	
110.00	-56.272	1.094	
111.00	-59.659	19.706	
112.00	-65.866	41.953	
113.00	-82.560	-57.828	
114.00	-61.995	-111.713	
115.00	-57.722	-95.874	
116.00	-55.356	-78.021	
117.00	-54.731	-63.035	
118.00	-54.897	-46.914	
119.00	-55.484	-31.292	
120.00	-59.971	-3.208	
121.00	-63.935	46.943	
122.00	-63.134	103.322	
123.00	-57.103	141.761	
124.00	-56.632	160.218	
125.00	-55.665	174.364	
126.00	-57.888	-169.965	
127.00	-60.027	-165.926	
128.00	-67.484	-143.592	
129.00	-65.592	-64.832	
130.00	-74.923	-75.556	
131.00	-71.348	-24.233	
132.00	-66.895	-44.239	
133.00	-63.245	-55.367	
134.00	-58.920	-62.804	
135.00	-56.001	-51.671	
136.00	-55.067	-41.519	
137.00	-55.244	-31.222	
138.00	-56.898	-20.725	
139.00	-60.393	-26.269	
140.00	-63.765	-91.765	
141.00	-56.376	-112.888	
142.00	-51.692	-111.929	
143.00	-49.126	-103.813	
144.00	-47.808	-93.436	
145.00	-47.485	-78.469	
146.00	-47.813	-61.458	
147.00	-49.119	-39.577	
148.00	-50.757	-18.444	
149.00	-53.192	6.988	
150.00	-55.766	48.543	
151.00	-56.972	106.539	
152.00	-53.771	146.084	
153.00	-51.865	167.652	
154.00	-51.256	-176.023	
155.00	-52.043	-165.864	
156.00	-54.456	-154.581	
157.00	-57.901	-138.833	
158.00	-64.111	-118.521	
159.00	-71.750	-120.201	
160.00	-74.524	-150.305	
161.00	-65.913	-161.171	
162.00	-60.551	-156.043	
163.00	-56.902	-151.216	
164.00	-55.043	-151.156	
165.00	-54.193	-156.569	
166.00	-54.194	-169.407	
167.00	-53.992	167.976	
168.00	-52.988	152.034	
169.00	-52.114	144.399	
170.00	-51.769	142.356	
171.00	-53.782	148.238	
172.00	-57.776	174.604	
173.00	-58.066	-120.277	
174.00	-51.863	-89.914	
175.00	-48.666	-86.727	
176.00	-48.271	-90.131	
177.00	-48.035	-117.428	
178.00	-46.027	-162.115	
179.00	-41.145	168.465	
180.00	-36.715	155.394	
181.00	-33.486	149.732	
182.00	-31.229	145.661	
183.00	-29.779	143.272	
184.00	-29.039	141.236	
185.00	-28.963	139.470	
186.00	-29.528	138.386	
187.00	-30.806	137.226	
188.00	-32.910	137.156	
189.00	-36.125	139.555	
190.00	-40.641	147.854	
191.00	-46.212	177.698	
192.00	-47.889	-129.862	
193.00	-45.961	-107.404	
194.00	-46.344	-101.549	
195.00	-48.949	-98.726	
196.00	-55.452	-91.946	
197.00	-65.622	32.522	
198.00	-54.052	59.060	
199.00	-51.073	64.526	
200.00	-51.835	60.851	
201.00	-54.107	66.282	
202.00	-57.874	108.611	
203.00	-54.710	155.397	
204.00	-49.693	162.004	
205.00	-47.278	158.823	
206.00	-46.700	147.215	
207.00	-46.506	134.152	
208.00	-48.006	115.140	
209.00	-50.310	90.125	
210.00	-51.812	58.453	
211.00	-51.851	18.636	
212.00	-50.468	-18.621	
213.00	-50.139	-36.812	
214.00	-50.284	-56.470	
215.00	-51.474	-64.172	
216.00	-53.906	-61.914	
217.00	-59.882	-37.655	
218.00	-57.028	2.732	
219.00	-53.485	14.328	
220.00	-51.482	13.850	
221.00	-50.258	8.252	
222.00	-49.542	-0.127	
223.00	-50.070	-10.315	
224.00	-50.199	-23.292	
225.00	-51.453	-30.954	
226.00	-52.034	-41.860	
227.00	-52.516	-52.169	
228.00	-53.775	-61.582	
229.00	-53.947	-69.900	
230.00	-53.512	-83.872	
231.00	-54.502	-100.446	
232.00	-53.029	-116.083	
233.00	-54.046	-142.254	
234.00	-53.745	-163.209	
235.00	-54.739	-176.994	
236.00	-55.794	165.998	
237.00	-58.220	149.529	
238.00	-58.629	130.961	
239.00	-59.965	99.754	
240.00	-61.927	78.432	
241.00	-62.493	65.621	
242.00	-64.304	52.187	
243.00	-66.890	34.489	
244.00	-67.082	38.046	
245.00	-66.206	27.629	
246.00	-64.730	19.871	
247.00	-63.643	17.061	
248.00	-63.067	17.190	
249.00	-61.871	9.550	
250.00	-61.928	1.612	
251.00	-63.308	-5.140	
252.00	-64.585	-12.414	
253.00	-67.835	-20.268	
254.00	-67.328	-34.296	
255.00	-66.876	-46.282	
256.00	-67.032	-55.074	
257.00	-66.569	-53.920	
258.00	-64.443	-67.166	
259.00	-66.996	-74.271	
260.00	-67.415	-99.243	
261.00	-64.592	-132.055	
262.00	-63.987	-167.631	
263.00	-64.292	166.025	
264.00	-61.810	145.634	
265.00	-61.181	120.242	
266.00	-61.457	103.659	
267.00	-61.298	93.432	
268.00	-61.762	58.856	
269.00	-63.038	47.943	
270.00	-64.371	19.714	
271.00	-62.588	1.031	
272.00	-64.271	-22.552	
273.00	-65.610	-49.840	
274.00	-66.384	-65.431	
275.00	-66.824	-77.371	
276.00	-74.099	-125.522	
277.00	-80.109	-116.455	
278.00	-78.641	107.934	
279.00	-76.755	70.640	
280.00	-76.514	38.530	
281.00	-68.422	43.053	
282.00	-66.789	22.012	
283.00	-71.238	25.872	
284.00	-68.379	9.343	
285.00	-69.422	9.778	
286.00	-68.150	-0.419	
287.00	-66.676	-16.138	
288.00	-63.578	-19.994	
289.00	-63.924	-34.610	
290.00	-63.121	-29.157	
291.00	-64.497	-58.595	
292.00	-63.931	-70.241	
293.00	-64.176	-89.497	
294.00	-62.281	-113.664	
295.00	-63.629	-136.951	
296.00	-64.480	-169.296	
297.00	-65.979	168.874	
298.00	-68.078	163.175	
299.00	-67.608	131.083	
300.00	-71.185	98.147	
301.00	-76.557	65.656	
302.00	-73.693	-20.826	
303.00	-70.610	-49.486	
304.00	-72.429	-92.822	
305.00	-71.123	-123.393	
306.00	-71.273	-141.157	
307.00	-77.740	-151.116	
308.00	-74.695	-150.955	
309.00	-75.755	-144.137	
310.00	-79.324	-128.077	
311.00	-70.916	-123.777	
312.00	-67.286	-127.046	
313.00	-64.249	-139.937	
314.00	-63.232	-149.936	
315.00	-61.791	-164.591	
316.00	-61.460	-179.317	
317.00	-61.979	164.815	
318.00	-61.548	154.627	
319.00	-61.891	136.061	
320.00	-63.931	128.841	
321.00	-64.302	117.896	
322.00	-67.326	109.829	
323.00	-67.902	127.030	
324.00	-69.439	135.471	
325.00	-67.854	140.161	
326.00	-67.941	131.182	
327.00	-65.978	111.358	
328.00	-68.469	102.833	
329.00	-68.736	90.266	
330.00	-70.173	78.076	
331.00	-69.700	63.983	
332.00	-70.194	61.355	
333.00	-70.545	41.754	
334.00	-65.962	17.938	
335.00	-63.647	7.405	
336.00	-62.242	16.003	
337.00	-61.376	13.307	
338.00	-61.306	-5.566	
339.00	-63.611	-7.229	
340.00	-63.946	5.252	
341.00	-62.964	-23.922	
342.00	-63.845	-43.577	
343.00	-64.854	-54.809	
344.00	-65.192	-57.905	
345.00	-65.380	-80.284	
346.00	-63.833	-109.077	
347.00	-65.274	-122.598	
348.00	-68.390	-104.016	
349.00	-69.672	-149.796	
350.00	-69.448	-149.133	
351.00	-71.002	72.767	
352.00	-71.721	36.636	
353.00	-68.433	71.226	
354.00	-65.543	62.291	
355.00	-65.254	86.001	
356.00	-65.155	74.526	
357.00	-62.074	112.155	
358.00	-61.271	129.265	
359.00	-61.614	131.144	
