Test Title:	Alpha Wireless Indoor Range						
Date:	06/01/2017						
Time:	15:22						
Operator Name:	FL						
Comment:	TAB ON ELEMENT 10 TOP PATCH
PARTITION AT ELEMENT 9						
Caib. File Name:	C:\Program Files\Midas 2.01d\Calibration Files\test sigma 180900.cal						
							
[Scan Axis] Name: 	Azimuth  [deg]Start: 	0.000000	Stop	359.000000	Increment	1.000000[Step Axis] Name: 	Start: 	0.000000	Stop	0.000000	Increment	0.000000[Tert] Name: 	None [Forth] Name: 	None  [ Freq.]  (List) 	MHz.	3300.000000	3350.000000	3400.000000	3450.000000	3500.000000	3550.000000	3575.000000	3600.000000	3625.000000	3650.000000	3675.000000	3700.000000	3750.000000	3800.000000
 [Switch]  	None [Channel]  	test			 [ Beam] 	None			
Database:			
First Question			
2nd			
3rd			
4th			
			
Frequency	3300.00	MHz	
Channel	test		
Scan Axis name	Azimuth  [deg]		
Scan Axis	Amplitude	Phase	
			
0.00	-63.710	-19.931	
1.00	-62.302	-33.421	
2.00	-63.531	-38.858	
3.00	-63.534	-36.138	
4.00	-62.558	-48.161	
5.00	-62.668	-47.051	
6.00	-62.043	-53.208	
7.00	-62.605	-56.013	
8.00	-61.951	-45.059	
9.00	-63.982	-38.891	
10.00	-64.248	-41.207	
11.00	-64.332	-26.483	
12.00	-65.100	-16.783	
13.00	-65.451	-2.227	
14.00	-66.486	9.458	
15.00	-68.619	35.061	
16.00	-67.623	58.442	
17.00	-66.401	69.250	
18.00	-65.059	100.276	
19.00	-63.993	114.952	
20.00	-63.025	128.412	
21.00	-61.452	138.731	
22.00	-61.281	153.577	
23.00	-59.667	167.002	
24.00	-60.001	-179.744	
25.00	-59.239	-168.468	
26.00	-60.067	-152.899	
27.00	-59.801	-137.696	
28.00	-61.188	-123.252	
29.00	-60.338	-96.111	
30.00	-60.582	-81.471	
31.00	-61.527	-57.727	
32.00	-60.690	-35.090	
33.00	-59.641	-4.994	
34.00	-58.837	14.431	
35.00	-58.476	36.833	
36.00	-57.286	52.114	
37.00	-56.577	76.307	
38.00	-56.031	90.424	
39.00	-55.857	114.739	
40.00	-55.205	127.770	
41.00	-55.364	148.034	
42.00	-54.900	164.464	
43.00	-54.299	-173.185	
44.00	-54.102	-157.268	
45.00	-54.303	-136.894	
46.00	-53.976	-115.197	
47.00	-54.295	-93.019	
48.00	-53.924	-72.632	
49.00	-54.308	-53.595	
50.00	-53.990	-27.431	
51.00	-53.942	-8.942	
52.00	-53.534	12.536	
53.00	-53.620	33.074	
54.00	-53.485	54.986	
55.00	-53.287	78.459	
56.00	-53.128	99.584	
57.00	-53.019	123.598	
58.00	-52.844	147.897	
59.00	-52.812	168.103	
60.00	-52.797	-167.533	
61.00	-52.363	-146.045	
62.00	-52.035	-120.872	
63.00	-51.599	-97.657	
64.00	-51.823	-77.471	
65.00	-51.555	-54.500	
66.00	-51.563	-32.089	
67.00	-51.273	-9.832	
68.00	-51.076	14.323	
69.00	-50.994	36.579	
70.00	-50.806	55.910	
71.00	-50.491	81.529	
72.00	-50.578	99.186	
73.00	-50.663	123.028	
74.00	-50.370	145.501	
75.00	-50.241	171.133	
76.00	-50.362	-168.122	
77.00	-50.175	-143.770	
78.00	-50.026	-121.853	
79.00	-49.815	-98.638	
80.00	-50.000	-78.458	
81.00	-49.750	-53.653	
82.00	-49.907	-35.998	
83.00	-49.405	-15.003	
84.00	-49.458	5.993	
85.00	-49.550	26.916	
86.00	-49.587	48.366	
87.00	-49.541	74.674	
88.00	-49.897	93.794	
89.00	-49.534	115.210	
90.00	-49.932	137.788	
91.00	-49.817	159.563	
92.00	-49.615	-178.876	
93.00	-49.759	-158.361	
94.00	-49.951	-137.140	
95.00	-49.809	-116.940	
96.00	-49.887	-96.955	
97.00	-50.122	-75.412	
98.00	-49.837	-57.152	
99.00	-49.910	-37.059	
100.00	-50.035	-16.145	
101.00	-50.286	1.958	
102.00	-50.039	24.199	
103.00	-49.795	42.925	
104.00	-49.961	62.387	
105.00	-49.924	81.485	
106.00	-49.903	102.982	
107.00	-49.741	118.697	
108.00	-49.247	137.516	
109.00	-49.203	157.246	
110.00	-49.110	175.363	
111.00	-49.040	-168.312	
112.00	-48.852	-150.217	
113.00	-48.889	-134.500	
114.00	-49.081	-115.282	
115.00	-48.955	-98.224	
116.00	-48.875	-82.621	
117.00	-49.001	-64.931	
118.00	-48.942	-45.707	
119.00	-48.951	-30.113	
120.00	-49.006	-13.406	
121.00	-48.792	1.128	
122.00	-48.849	17.649	
123.00	-49.079	32.947	
124.00	-49.429	49.347	
125.00	-49.519	63.680	
126.00	-49.682	77.201	
127.00	-49.879	92.915	
128.00	-50.371	108.366	
129.00	-50.577	121.626	
130.00	-51.330	135.927	
131.00	-51.502	149.857	
132.00	-52.141	161.048	
133.00	-52.597	175.224	
134.00	-53.203	-172.798	
135.00	-53.902	-163.383	
136.00	-54.666	-156.013	
137.00	-55.607	-147.460	
138.00	-56.922	-138.386	
139.00	-57.552	-130.529	
140.00	-58.615	-129.126	
141.00	-58.713	-123.701	
142.00	-59.443	-123.351	
143.00	-59.551	-123.749	
144.00	-59.671	-125.920	
145.00	-59.464	-119.596	
146.00	-58.537	-123.388	
147.00	-57.504	-115.109	
148.00	-57.263	-114.569	
149.00	-56.489	-104.742	
150.00	-55.740	-102.951	
151.00	-55.108	-98.042	
152.00	-54.615	-89.849	
153.00	-53.987	-85.744	
154.00	-53.615	-80.595	
155.00	-53.585	-75.948	
156.00	-53.011	-65.851	
157.00	-52.852	-64.522	
158.00	-52.228	-58.686	
159.00	-52.165	-53.889	
160.00	-51.940	-50.543	
161.00	-51.808	-46.819	
162.00	-51.679	-45.185	
163.00	-51.469	-40.528	
164.00	-51.367	-38.810	
165.00	-51.178	-34.729	
166.00	-51.151	-33.470	
167.00	-51.092	-31.535	
168.00	-50.881	-31.642	
169.00	-51.400	-26.134	
170.00	-51.106	-25.559	
171.00	-51.438	-24.618	
172.00	-51.379	-22.198	
173.00	-51.628	-20.106	
174.00	-51.335	-19.991	
175.00	-51.560	-18.836	
176.00	-51.810	-17.878	
177.00	-51.856	-15.480	
178.00	-52.390	-17.175	
179.00	-52.490	-18.184	
180.00	-52.561	-18.850	
181.00	-53.156	-18.099	
182.00	-53.427	-19.404	
183.00	-53.762	-22.173	
184.00	-54.446	-26.570	
185.00	-55.060	-29.161	
186.00	-55.058	-34.283	
187.00	-55.827	-39.885	
188.00	-56.740	-45.591	
189.00	-57.257	-52.616	
190.00	-58.710	-61.619	
191.00	-59.462	-78.521	
192.00	-59.474	-85.431	
193.00	-59.557	-93.604	
194.00	-60.268	-111.376	
195.00	-59.889	-125.875	
196.00	-58.975	-139.998	
197.00	-59.380	-153.980	
198.00	-57.876	-168.949	
199.00	-56.560	178.062	
200.00	-55.414	168.679	
201.00	-55.129	158.041	
202.00	-54.080	146.733	
203.00	-53.224	137.179	
204.00	-52.464	126.862	
205.00	-52.253	115.312	
206.00	-51.732	104.769	
207.00	-51.560	94.235	
208.00	-51.065	87.457	
209.00	-50.561	72.083	
210.00	-50.197	58.784	
211.00	-50.334	46.664	
212.00	-50.193	32.717	
213.00	-50.251	19.909	
214.00	-50.235	5.592	
215.00	-50.425	-9.091	
216.00	-50.098	-20.836	
217.00	-50.479	-39.357	
218.00	-50.740	-54.384	
219.00	-50.739	-70.647	
220.00	-50.734	-87.303	
221.00	-50.435	-107.021	
222.00	-50.802	-124.487	
223.00	-50.819	-143.051	
224.00	-50.935	-161.453	
225.00	-50.482	178.888	
226.00	-50.365	161.594	
227.00	-50.101	142.364	
228.00	-49.857	123.827	
229.00	-49.537	103.702	
230.00	-49.284	83.878	
231.00	-48.858	65.804	
232.00	-48.647	46.743	
233.00	-48.372	28.084	
234.00	-48.354	9.819	
235.00	-48.084	-10.265	
236.00	-47.901	-32.154	
237.00	-47.548	-49.602	
238.00	-47.312	-70.215	
239.00	-47.223	-87.546	
240.00	-47.298	-108.462	
241.00	-47.246	-126.887	
242.00	-46.983	-148.630	
243.00	-46.960	-167.478	
244.00	-46.724	170.149	
245.00	-46.570	151.033	
246.00	-46.710	130.939	
247.00	-46.578	108.570	
248.00	-46.440	87.883	
249.00	-46.305	66.755	
250.00	-46.395	46.622	
251.00	-46.374	25.756	
252.00	-46.363	3.697	
253.00	-46.110	-16.326	
254.00	-46.189	-38.240	
255.00	-46.297	-59.226	
256.00	-46.187	-79.811	
257.00	-46.257	-102.867	
258.00	-46.303	-123.141	
259.00	-46.676	-145.440	
260.00	-46.580	-165.521	
261.00	-46.967	171.309	
262.00	-47.049	150.288	
263.00	-47.352	128.636	
264.00	-47.511	106.148	
265.00	-47.746	81.996	
266.00	-48.164	58.428	
267.00	-48.444	34.752	
268.00	-48.868	12.057	
269.00	-48.894	-12.891	
270.00	-49.341	-38.145	
271.00	-49.097	-62.634	
272.00	-48.964	-87.753	
273.00	-48.685	-111.402	
274.00	-48.922	-135.479	
275.00	-48.662	-158.127	
276.00	-48.413	179.917	
277.00	-48.561	156.568	
278.00	-48.503	132.952	
279.00	-48.564	111.665	
280.00	-48.804	90.117	
281.00	-48.841	64.845	
282.00	-49.159	44.404	
283.00	-49.421	21.491	
284.00	-49.462	-1.758	
285.00	-49.481	-27.222	
286.00	-50.076	-50.066	
287.00	-50.240	-71.922	
288.00	-50.505	-96.614	
289.00	-50.785	-119.688	
290.00	-50.832	-143.225	
291.00	-51.100	-164.767	
292.00	-51.357	172.827	
293.00	-51.310	145.972	
294.00	-51.521	125.300	
295.00	-51.715	100.155	
296.00	-51.946	78.492	
297.00	-52.045	55.434	
298.00	-52.169	34.338	
299.00	-52.597	11.664	
300.00	-52.568	-10.737	
301.00	-52.555	-30.991	
302.00	-53.146	-54.194	
303.00	-54.035	-75.044	
304.00	-54.569	-96.314	
305.00	-54.824	-119.856	
306.00	-55.409	-143.421	
307.00	-55.381	-168.179	
308.00	-55.749	165.126	
309.00	-55.946	150.201	
310.00	-56.017	124.706	
311.00	-56.710	103.652	
312.00	-56.398	82.004	
313.00	-56.452	63.290	
314.00	-57.088	42.423	
315.00	-57.321	24.964	
316.00	-58.284	0.953	
317.00	-58.271	-17.115	
318.00	-58.579	-43.608	
319.00	-59.253	-70.870	
320.00	-59.513	-87.907	
321.00	-60.439	-114.286	
322.00	-59.715	-136.741	
323.00	-59.998	-157.903	
324.00	-60.077	178.677	
325.00	-60.523	164.020	
326.00	-59.939	139.776	
327.00	-59.938	126.272	
328.00	-59.711	105.437	
329.00	-60.576	90.693	
330.00	-60.542	72.857	
331.00	-60.614	52.940	
332.00	-61.550	43.093	
333.00	-62.085	35.642	
334.00	-63.998	18.202	
335.00	-63.250	-2.354	
336.00	-64.402	-18.734	
337.00	-67.744	-33.435	
338.00	-69.229	-43.017	
339.00	-73.792	-71.759	
340.00	-70.552	-98.792	
341.00	-71.237	-138.612	
342.00	-69.047	-175.988	
343.00	-68.971	171.231	
344.00	-68.698	141.601	
345.00	-66.648	126.980	
346.00	-66.735	115.101	
347.00	-64.552	100.838	
348.00	-64.497	83.235	
349.00	-63.213	78.038	
350.00	-64.359	79.657	
351.00	-63.283	65.938	
352.00	-62.674	52.391	
353.00	-63.265	49.194	
354.00	-63.142	40.922	
355.00	-63.675	23.750	
356.00	-63.220	19.721	
357.00	-63.169	15.599	
358.00	-63.608	-0.059	
359.00	-64.916	-4.618	
Frequency	3350.00	MHz	
Channel	test		
Scan Axis name	Azimuth  [deg]		
Scan Axis	Amplitude	Phase	
			
0.00	-68.432	78.394	
1.00	-68.312	59.690	
2.00	-68.472	58.405	
3.00	-66.134	66.192	
4.00	-66.586	53.856	
5.00	-65.712	45.942	
6.00	-65.109	52.032	
7.00	-64.150	51.174	
8.00	-64.902	60.667	
9.00	-64.695	70.549	
10.00	-63.554	63.284	
11.00	-64.486	82.572	
12.00	-65.016	97.974	
13.00	-64.967	111.348	
14.00	-64.748	127.755	
15.00	-64.907	148.320	
16.00	-64.575	161.895	
17.00	-63.174	-174.296	
18.00	-63.557	-163.753	
19.00	-62.061	-149.621	
20.00	-61.287	-139.279	
21.00	-60.788	-122.532	
22.00	-59.539	-111.575	
23.00	-59.558	-90.766	
24.00	-59.499	-83.390	
25.00	-60.363	-67.349	
26.00	-60.421	-47.614	
27.00	-60.175	-30.406	
28.00	-60.503	-12.112	
29.00	-60.259	11.865	
30.00	-60.566	29.687	
31.00	-59.947	53.634	
32.00	-60.011	78.561	
33.00	-58.589	103.111	
34.00	-57.988	123.574	
35.00	-56.900	142.320	
36.00	-56.603	158.309	
37.00	-56.012	-176.472	
38.00	-55.480	-161.990	
39.00	-55.003	-143.702	
40.00	-54.801	-122.354	
41.00	-54.466	-106.785	
42.00	-54.489	-87.638	
43.00	-54.508	-65.685	
44.00	-54.111	-47.194	
45.00	-54.459	-26.756	
46.00	-53.785	-5.301	
47.00	-54.106	16.630	
48.00	-54.103	37.873	
49.00	-53.905	59.850	
50.00	-54.190	80.130	
51.00	-53.880	103.556	
52.00	-53.781	126.896	
53.00	-53.535	144.722	
54.00	-53.396	170.664	
55.00	-53.763	-169.248	
56.00	-53.234	-145.060	
57.00	-52.731	-120.644	
58.00	-52.811	-99.376	
59.00	-52.800	-77.428	
60.00	-52.503	-54.034	
61.00	-52.519	-28.405	
62.00	-52.363	-6.595	
63.00	-52.091	17.814	
64.00	-51.931	39.049	
65.00	-51.797	64.905	
66.00	-51.471	85.875	
67.00	-51.475	110.456	
68.00	-51.500	132.533	
69.00	-51.162	157.719	
70.00	-50.982	175.291	
71.00	-50.867	-160.816	
72.00	-50.636	-139.747	
73.00	-50.786	-115.335	
74.00	-50.807	-91.135	
75.00	-50.460	-66.150	
76.00	-50.604	-46.911	
77.00	-50.291	-20.795	
78.00	-50.428	0.007	
79.00	-50.063	23.110	
80.00	-50.091	42.496	
81.00	-50.274	67.092	
82.00	-50.365	86.125	
83.00	-50.223	107.175	
84.00	-50.229	127.854	
85.00	-50.650	152.554	
86.00	-50.901	172.912	
87.00	-50.813	-162.355	
88.00	-50.923	-142.183	
89.00	-51.191	-117.352	
90.00	-51.170	-94.180	
91.00	-51.381	-70.035	
92.00	-51.583	-49.978	
93.00	-51.446	-24.811	
94.00	-51.515	-5.225	
95.00	-51.430	15.136	
96.00	-51.597	36.547	
97.00	-51.672	57.486	
98.00	-51.426	77.842	
99.00	-51.741	96.802	
100.00	-51.704	116.694	
101.00	-51.601	135.277	
102.00	-51.528	158.828	
103.00	-51.390	174.944	
104.00	-51.377	-167.217	
105.00	-51.398	-147.219	
106.00	-51.441	-127.434	
107.00	-51.284	-111.402	
108.00	-51.108	-92.693	
109.00	-51.240	-73.816	
110.00	-51.057	-57.792	
111.00	-51.240	-40.309	
112.00	-50.965	-22.196	
113.00	-51.196	-5.618	
114.00	-51.447	14.747	
115.00	-51.257	31.613	
116.00	-51.547	48.122	
117.00	-51.145	66.666	
118.00	-51.193	84.948	
119.00	-50.977	100.552	
120.00	-50.762	116.657	
121.00	-50.636	132.639	
122.00	-50.662	147.641	
123.00	-50.610	165.983	
124.00	-50.684	178.906	
125.00	-50.722	-165.728	
126.00	-50.854	-150.922	
127.00	-51.063	-137.025	
128.00	-51.622	-122.325	
129.00	-51.825	-109.949	
130.00	-52.405	-93.738	
131.00	-52.526	-82.068	
132.00	-53.485	-68.406	
133.00	-54.246	-54.981	
134.00	-54.719	-39.657	
135.00	-54.975	-31.518	
136.00	-56.077	-20.478	
137.00	-56.630	-8.272	
138.00	-56.966	-2.710	
139.00	-57.654	2.394	
140.00	-58.271	10.495	
141.00	-58.323	12.810	
142.00	-58.673	15.452	
143.00	-58.176	20.620	
144.00	-57.527	18.163	
145.00	-57.432	23.901	
146.00	-56.891	26.357	
147.00	-55.967	34.294	
148.00	-55.505	36.869	
149.00	-54.962	41.263	
150.00	-54.483	47.492	
151.00	-53.740	52.902	
152.00	-53.538	59.499	
153.00	-53.059	65.402	
154.00	-53.070	71.757	
155.00	-52.694	77.096	
156.00	-52.538	83.206	
157.00	-52.516	87.780	
158.00	-52.353	90.697	
159.00	-52.143	95.529	
160.00	-52.144	99.476	
161.00	-51.974	101.166	
162.00	-51.754	103.060	
163.00	-51.826	105.696	
164.00	-51.195	104.579	
165.00	-51.206	106.987	
166.00	-51.128	107.944	
167.00	-50.727	106.634	
168.00	-50.622	105.793	
169.00	-50.734	108.523	
170.00	-50.702	106.671	
171.00	-50.302	106.663	
172.00	-50.100	107.864	
173.00	-50.068	109.154	
174.00	-49.951	106.814	
175.00	-49.780	108.804	
176.00	-49.772	107.260	
177.00	-49.610	106.538	
178.00	-49.806	106.919	
179.00	-49.602	104.753	
180.00	-49.773	103.550	
181.00	-49.786	100.314	
182.00	-50.025	98.549	
183.00	-50.565	93.776	
184.00	-50.790	91.268	
185.00	-51.042	86.281	
186.00	-51.666	81.631	
187.00	-51.926	74.728	
188.00	-52.337	68.351	
189.00	-53.020	60.161	
190.00	-53.492	49.127	
191.00	-54.376	42.049	
192.00	-54.600	28.659	
193.00	-55.026	16.159	
194.00	-54.979	3.654	
195.00	-55.086	-8.197	
196.00	-54.729	-24.212	
197.00	-54.602	-35.611	
198.00	-54.278	-50.223	
199.00	-53.516	-61.448	
200.00	-52.684	-74.344	
201.00	-52.351	-86.201	
202.00	-51.444	-97.873	
203.00	-50.775	-108.418	
204.00	-50.607	-119.066	
205.00	-49.870	-131.563	
206.00	-49.574	-142.198	
207.00	-49.328	-153.928	
208.00	-49.056	-164.803	
209.00	-48.673	-176.460	
210.00	-48.582	171.170	
211.00	-48.371	158.528	
212.00	-48.228	145.095	
213.00	-48.144	129.845	
214.00	-48.285	117.551	
215.00	-48.352	103.463	
216.00	-48.218	89.736	
217.00	-48.251	73.568	
218.00	-48.398	59.454	
219.00	-48.573	42.392	
220.00	-48.486	27.550	
221.00	-48.521	11.291	
222.00	-48.247	-6.858	
223.00	-48.345	-23.575	
224.00	-48.287	-40.631	
225.00	-48.183	-58.138	
226.00	-48.208	-75.226	
227.00	-48.013	-93.621	
228.00	-47.804	-110.357	
229.00	-47.617	-129.897	
230.00	-47.461	-147.043	
231.00	-47.279	-166.260	
232.00	-47.292	173.792	
233.00	-47.045	156.001	
234.00	-46.916	135.743	
235.00	-46.715	117.059	
236.00	-46.639	95.957	
237.00	-46.426	77.054	
238.00	-46.263	58.105	
239.00	-46.116	39.560	
240.00	-45.928	19.292	
241.00	-45.945	2.663	
242.00	-45.900	-19.311	
243.00	-46.008	-36.422	
244.00	-45.996	-59.636	
245.00	-45.873	-78.522	
246.00	-45.888	-98.594	
247.00	-45.955	-120.852	
248.00	-45.896	-140.985	
249.00	-45.858	-162.706	
250.00	-46.008	175.885	
251.00	-45.863	153.531	
252.00	-45.799	132.446	
253.00	-45.899	111.423	
254.00	-45.903	88.674	
255.00	-45.844	66.940	
256.00	-45.643	45.401	
257.00	-45.763	23.582	
258.00	-45.840	3.044	
259.00	-45.949	-19.952	
260.00	-45.843	-39.381	
261.00	-46.094	-63.227	
262.00	-46.447	-84.240	
263.00	-46.465	-106.611	
264.00	-46.706	-127.767	
265.00	-46.922	-149.788	
266.00	-47.440	-173.057	
267.00	-47.620	162.894	
268.00	-47.943	139.535	
269.00	-48.377	116.325	
270.00	-48.586	92.820	
271.00	-48.946	67.725	
272.00	-49.101	41.045	
273.00	-49.244	17.347	
274.00	-49.333	-8.958	
275.00	-49.429	-33.799	
276.00	-49.189	-58.856	
277.00	-49.148	-83.288	
278.00	-49.380	-106.442	
279.00	-49.286	-131.643	
280.00	-49.195	-153.706	
281.00	-49.285	-175.895	
282.00	-49.454	159.632	
283.00	-49.542	137.490	
284.00	-49.991	115.432	
285.00	-49.900	88.868	
286.00	-50.141	65.736	
287.00	-50.386	43.448	
288.00	-50.742	20.579	
289.00	-50.844	-5.010	
290.00	-50.839	-26.905	
291.00	-50.889	-51.240	
292.00	-51.526	-73.293	
293.00	-51.316	-99.004	
294.00	-51.726	-119.721	
295.00	-51.656	-146.401	
296.00	-51.820	-168.369	
297.00	-51.904	167.595	
298.00	-51.910	146.243	
299.00	-52.251	122.267	
300.00	-52.526	99.810	
301.00	-52.625	78.525	
302.00	-52.964	57.123	
303.00	-53.241	33.229	
304.00	-53.590	12.822	
305.00	-53.874	-11.291	
306.00	-54.307	-31.878	
307.00	-55.222	-52.896	
308.00	-55.265	-77.941	
309.00	-55.197	-101.490	
310.00	-56.034	-123.788	
311.00	-55.393	-146.403	
312.00	-55.794	-166.250	
313.00	-55.639	171.807	
314.00	-55.799	150.174	
315.00	-56.085	132.779	
316.00	-55.952	111.539	
317.00	-56.581	93.573	
318.00	-57.001	73.401	
319.00	-57.410	53.909	
320.00	-58.125	31.694	
321.00	-59.079	10.546	
322.00	-59.173	-11.970	
323.00	-60.454	-32.122	
324.00	-60.260	-64.140	
325.00	-60.354	-84.117	
326.00	-59.262	-108.063	
327.00	-59.818	-126.580	
328.00	-59.119	-149.136	
329.00	-58.690	-159.684	
330.00	-58.582	178.802	
331.00	-58.528	167.095	
332.00	-58.623	156.525	
333.00	-59.434	146.131	
334.00	-59.135	134.913	
335.00	-60.061	124.027	
336.00	-61.060	114.202	
337.00	-61.854	98.974	
338.00	-63.790	90.800	
339.00	-65.200	75.573	
340.00	-67.160	71.188	
341.00	-71.541	54.516	
342.00	-72.707	14.626	
343.00	-78.659	-0.713	
344.00	-83.132	-41.619	
345.00	-76.275	-115.639	
346.00	-73.006	-147.023	
347.00	-70.967	-158.812	
348.00	-70.031	-158.598	
349.00	-70.880	169.969	
350.00	-68.660	177.331	
351.00	-68.991	169.487	
352.00	-67.306	157.950	
353.00	-66.713	142.943	
354.00	-66.982	144.917	
355.00	-68.539	130.675	
356.00	-67.070	127.412	
357.00	-69.297	125.836	
358.00	-67.702	114.982	
359.00	-68.834	102.791	
Frequency	3400.00	MHz	
Channel	test		
Scan Axis name	Azimuth  [deg]		
Scan Axis	Amplitude	Phase	
			
0.00	-74.567	164.802	
1.00	-70.055	163.665	
2.00	-69.619	167.149	
3.00	-67.492	149.798	
4.00	-67.393	145.187	
5.00	-65.849	142.850	
6.00	-64.317	154.989	
7.00	-64.052	152.049	
8.00	-63.969	166.852	
9.00	-63.845	164.594	
10.00	-64.302	168.195	
11.00	-64.222	-179.075	
12.00	-65.162	-168.318	
13.00	-65.791	-153.941	
14.00	-65.424	-131.309	
15.00	-65.856	-119.463	
16.00	-67.162	-103.876	
17.00	-66.351	-77.219	
18.00	-66.068	-66.171	
19.00	-65.127	-43.634	
20.00	-64.230	-21.187	
21.00	-63.134	-12.258	
22.00	-62.412	8.677	
23.00	-62.873	21.600	
24.00	-62.821	51.158	
25.00	-62.366	58.619	
26.00	-62.209	77.044	
27.00	-62.526	101.219	
28.00	-60.892	118.039	
29.00	-61.077	137.958	
30.00	-60.720	161.025	
31.00	-59.709	-175.752	
32.00	-59.178	-154.848	
33.00	-58.107	-131.541	
34.00	-57.713	-111.020	
35.00	-57.355	-93.362	
36.00	-56.931	-77.758	
37.00	-56.537	-55.929	
38.00	-56.396	-39.552	
39.00	-55.793	-19.468	
40.00	-55.412	-1.905	
41.00	-55.130	18.594	
42.00	-55.228	33.805	
43.00	-54.700	58.042	
44.00	-54.939	74.723	
45.00	-54.969	98.203	
46.00	-55.302	118.032	
47.00	-55.409	138.515	
48.00	-55.207	160.200	
49.00	-56.336	-173.331	
50.00	-55.793	-153.001	
51.00	-55.277	-127.209	
52.00	-55.302	-105.747	
53.00	-55.524	-83.524	
54.00	-55.539	-60.648	
55.00	-55.496	-35.067	
56.00	-55.213	-10.754	
57.00	-55.067	16.047	
58.00	-54.584	38.291	
59.00	-54.001	62.940	
60.00	-53.454	84.775	
61.00	-53.152	111.885	
62.00	-53.275	130.770	
63.00	-52.794	157.395	
64.00	-52.522	179.053	
65.00	-52.715	-160.203	
66.00	-52.513	-135.420	
67.00	-52.360	-112.726	
68.00	-52.438	-88.896	
69.00	-52.010	-63.781	
70.00	-52.362	-44.852	
71.00	-52.092	-20.215	
72.00	-51.940	1.237	
73.00	-51.734	28.932	
74.00	-51.810	51.839	
75.00	-51.130	74.380	
76.00	-51.138	95.319	
77.00	-51.156	119.941	
78.00	-51.132	138.933	
79.00	-51.025	163.822	
80.00	-51.623	-175.935	
81.00	-51.709	-152.324	
82.00	-51.723	-131.679	
83.00	-51.801	-108.053	
84.00	-51.860	-87.120	
85.00	-52.274	-59.136	
86.00	-51.997	-40.143	
87.00	-52.297	-10.968	
88.00	-52.567	9.785	
89.00	-52.718	34.345	
90.00	-52.667	56.549	
91.00	-52.531	81.459	
92.00	-52.407	102.118	
93.00	-52.601	126.825	
94.00	-52.614	146.526	
95.00	-52.378	169.631	
96.00	-52.595	-170.517	
97.00	-52.549	-149.446	
98.00	-52.604	-130.177	
99.00	-52.785	-108.908	
100.00	-53.117	-88.342	
101.00	-52.951	-70.086	
102.00	-53.163	-47.172	
103.00	-53.200	-27.826	
104.00	-53.092	-9.635	
105.00	-53.041	8.488	
106.00	-53.328	29.324	
107.00	-53.522	45.101	
108.00	-53.408	65.432	
109.00	-53.653	85.783	
110.00	-53.453	102.039	
111.00	-53.446	119.860	
112.00	-53.368	137.400	
113.00	-52.957	155.351	
114.00	-53.458	171.839	
115.00	-52.673	-170.716	
116.00	-52.935	-154.059	
117.00	-52.550	-136.463	
118.00	-52.429	-119.963	
119.00	-52.558	-104.307	
120.00	-52.163	-86.712	
121.00	-52.111	-72.111	
122.00	-52.178	-58.595	
123.00	-52.132	-41.850	
124.00	-52.220	-28.331	
125.00	-52.626	-13.527	
126.00	-52.860	1.916	
127.00	-52.579	16.865	
128.00	-53.265	34.094	
129.00	-53.173	47.084	
130.00	-53.371	62.729	
131.00	-53.946	79.493	
132.00	-53.979	90.499	
133.00	-54.397	108.455	
134.00	-54.474	118.344	
135.00	-55.187	128.560	
136.00	-55.231	138.004	
137.00	-56.360	143.354	
138.00	-56.250	151.072	
139.00	-57.321	158.942	
140.00	-57.680	156.813	
141.00	-58.070	160.101	
142.00	-58.083	164.193	
143.00	-57.704	166.795	
144.00	-57.475	167.124	
145.00	-56.683	172.046	
146.00	-56.423	175.605	
147.00	-55.312	-176.099	
148.00	-54.166	-169.210	
149.00	-53.119	-162.189	
150.00	-52.634	-157.344	
151.00	-52.076	-150.773	
152.00	-51.374	-143.902	
153.00	-50.848	-135.943	
154.00	-50.323	-128.019	
155.00	-49.857	-124.120	
156.00	-49.637	-116.352	
157.00	-49.450	-112.353	
158.00	-49.001	-104.952	
159.00	-49.032	-101.290	
160.00	-48.836	-96.375	
161.00	-48.782	-93.960	
162.00	-48.894	-92.172	
163.00	-48.856	-86.947	
164.00	-48.964	-85.975	
165.00	-49.170	-82.179	
166.00	-49.272	-81.508	
167.00	-49.271	-80.757	
168.00	-49.525	-81.018	
169.00	-49.611	-77.983	
170.00	-49.633	-81.709	
171.00	-49.599	-80.385	
172.00	-50.065	-82.888	
173.00	-49.759	-81.983	
174.00	-49.943	-83.242	
175.00	-50.109	-83.631	
176.00	-49.821	-85.701	
177.00	-49.724	-90.096	
178.00	-49.898	-89.120	
179.00	-50.061	-94.389	
180.00	-49.974	-99.319	
181.00	-50.072	-101.438	
182.00	-50.010	-106.075	
183.00	-50.677	-110.936	
184.00	-50.814	-115.622	
185.00	-51.199	-121.953	
186.00	-51.312	-126.555	
187.00	-51.713	-136.399	
188.00	-52.354	-145.623	
189.00	-52.568	-152.235	
190.00	-53.179	-164.384	
191.00	-53.336	-173.941	
192.00	-53.528	175.281	
193.00	-53.406	163.284	
194.00	-53.154	151.717	
195.00	-53.106	141.344	
196.00	-53.130	126.211	
197.00	-52.700	116.179	
198.00	-52.210	105.834	
199.00	-52.035	91.854	
200.00	-51.471	81.239	
201.00	-51.122	70.196	
202.00	-50.430	60.222	
203.00	-50.429	49.066	
204.00	-50.092	37.371	
205.00	-49.785	25.081	
206.00	-49.685	12.560	
207.00	-49.709	1.132	
208.00	-49.224	-10.336	
209.00	-49.110	-23.652	
210.00	-49.046	-36.324	
211.00	-49.059	-50.952	
212.00	-48.894	-65.614	
213.00	-48.890	-81.980	
214.00	-48.985	-94.868	
215.00	-48.747	-108.552	
216.00	-48.782	-123.805	
217.00	-48.910	-139.452	
218.00	-48.675	-153.448	
219.00	-48.654	-169.211	
220.00	-48.530	174.986	
221.00	-48.452	158.583	
222.00	-48.734	142.080	
223.00	-48.610	124.800	
224.00	-48.086	110.307	
225.00	-48.388	91.299	
226.00	-48.288	76.065	
227.00	-48.098	55.076	
228.00	-48.040	40.069	
229.00	-47.951	21.693	
230.00	-47.630	3.079	
231.00	-47.586	-15.489	
232.00	-47.487	-32.997	
233.00	-47.273	-53.540	
234.00	-47.333	-72.009	
235.00	-46.868	-90.286	
236.00	-46.892	-113.237	
237.00	-46.924	-129.519	
238.00	-46.717	-150.778	
239.00	-46.490	-169.156	
240.00	-46.550	171.157	
241.00	-46.473	153.530	
242.00	-46.315	131.671	
243.00	-46.535	114.147	
244.00	-46.260	92.048	
245.00	-46.325	71.390	
246.00	-46.427	52.665	
247.00	-46.374	30.882	
248.00	-46.539	9.215	
249.00	-46.455	-11.979	
250.00	-46.588	-32.959	
251.00	-46.390	-55.891	
252.00	-46.586	-76.794	
253.00	-46.611	-98.704	
254.00	-46.586	-121.232	
255.00	-46.664	-143.699	
256.00	-46.533	-164.909	
257.00	-46.517	172.171	
258.00	-46.697	150.665	
259.00	-46.759	127.169	
260.00	-46.716	106.813	
261.00	-46.880	83.319	
262.00	-47.245	63.168	
263.00	-47.502	39.661	
264.00	-47.401	17.867	
265.00	-47.752	-5.296	
266.00	-48.043	-27.898	
267.00	-48.210	-52.612	
268.00	-48.443	-75.171	
269.00	-48.772	-98.806	
270.00	-49.196	-122.191	
271.00	-49.329	-146.732	
272.00	-49.633	-172.721	
273.00	-49.813	164.761	
274.00	-50.104	138.731	
275.00	-50.138	114.075	
276.00	-50.316	90.130	
277.00	-50.551	64.445	
278.00	-50.554	40.367	
279.00	-50.785	14.969	
280.00	-50.822	-7.786	
281.00	-50.945	-31.246	
282.00	-50.985	-57.505	
283.00	-51.143	-79.388	
284.00	-51.683	-103.164	
285.00	-51.345	-128.596	
286.00	-51.836	-153.075	
287.00	-52.156	-175.613	
288.00	-52.453	160.662	
289.00	-52.538	134.883	
290.00	-52.884	111.238	
291.00	-52.589	88.498	
292.00	-52.946	63.161	
293.00	-52.856	40.750	
294.00	-53.502	16.922	
295.00	-53.927	-10.794	
296.00	-53.794	-34.478	
297.00	-54.161	-57.965	
298.00	-54.166	-83.095	
299.00	-54.468	-105.061	
300.00	-54.439	-131.859	
301.00	-54.904	-155.969	
302.00	-54.839	-177.711	
303.00	-55.160	161.775	
304.00	-55.474	138.045	
305.00	-55.232	115.852	
306.00	-55.832	96.247	
307.00	-55.766	73.107	
308.00	-56.625	49.839	
309.00	-56.952	27.118	
310.00	-57.367	2.543	
311.00	-57.871	-15.789	
312.00	-57.183	-41.102	
313.00	-58.008	-60.462	
314.00	-57.388	-91.140	
315.00	-57.515	-111.571	
316.00	-56.926	-130.991	
317.00	-57.430	-152.197	
318.00	-57.548	-168.883	
319.00	-57.758	171.479	
320.00	-58.302	155.295	
321.00	-59.083	138.374	
322.00	-60.788	113.918	
323.00	-62.954	95.662	
324.00	-63.440	60.679	
325.00	-63.988	38.414	
326.00	-64.565	2.939	
327.00	-62.592	-26.456	
328.00	-61.876	-52.374	
329.00	-61.046	-67.741	
330.00	-60.479	-78.343	
331.00	-59.641	-96.977	
332.00	-59.273	-111.475	
333.00	-59.536	-121.460	
334.00	-58.819	-126.636	
335.00	-59.475	-142.299	
336.00	-59.914	-149.527	
337.00	-60.935	-165.912	
338.00	-62.046	-176.817	
339.00	-62.619	166.571	
340.00	-63.962	150.784	
341.00	-67.682	145.739	
342.00	-66.906	122.972	
343.00	-67.166	106.105	
344.00	-72.402	90.577	
345.00	-70.410	57.836	
346.00	-70.738	39.173	
347.00	-71.934	20.371	
348.00	-69.844	-12.439	
349.00	-71.669	-26.527	
350.00	-68.201	-25.693	
351.00	-70.756	-33.585	
352.00	-67.323	-52.537	
353.00	-67.968	-55.894	
354.00	-69.415	-59.873	
355.00	-70.380	-80.570	
356.00	-71.905	-85.575	
357.00	-71.605	-79.730	
358.00	-73.885	-117.972	
359.00	-73.759	-156.439	
Frequency	3450.00	MHz	
Channel	test		
Scan Axis name	Azimuth  [deg]		
Scan Axis	Amplitude	Phase	
			
0.00	-87.500	-15.274	
1.00	-63.899	-43.032	
2.00	-72.127	-97.342	
3.00	-69.104	-53.273	
4.00	-68.080	-93.092	
5.00	-69.748	-59.229	
6.00	-72.263	-80.171	
7.00	-70.044	-99.822	
8.00	-70.086	-76.049	
9.00	-68.449	-85.619	
10.00	-66.847	-81.400	
11.00	-72.242	-60.242	
12.00	-73.060	-33.366	
13.00	-68.145	-9.091	
14.00	-68.172	-12.979	
15.00	-66.518	-5.466	
16.00	-65.064	-5.063	
17.00	-75.848	26.901	
18.00	-64.073	48.075	
19.00	-63.925	94.157	
20.00	-71.611	123.562	
21.00	-62.651	107.543	
22.00	-62.906	109.768	
23.00	-64.258	135.654	
24.00	-62.822	150.173	
25.00	-61.284	174.675	
26.00	-61.453	174.222	
27.00	-65.107	-150.051	
28.00	-60.407	-136.334	
29.00	-60.220	-128.283	
30.00	-63.112	-116.194	
31.00	-62.120	-90.889	
32.00	-62.874	-60.094	
33.00	-58.406	-35.972	
34.00	-60.511	-29.764	
35.00	-58.633	10.733	
36.00	-59.966	14.142	
37.00	-59.511	36.539	
38.00	-59.491	59.864	
39.00	-59.402	70.061	
40.00	-58.020	95.749	
41.00	-58.588	115.549	
42.00	-58.649	141.396	
43.00	-58.984	158.800	
44.00	-58.116	178.757	
45.00	-57.332	-149.597	
46.00	-59.135	-132.776	
47.00	-57.449	-109.685	
48.00	-58.954	-82.024	
49.00	-58.693	-61.164	
50.00	-58.975	-38.187	
51.00	-58.115	-8.693	
52.00	-57.522	11.222	
53.00	-59.007	42.983	
54.00	-56.632	54.776	
55.00	-55.404	74.191	
56.00	-58.983	105.001	
57.00	-56.593	124.405	
58.00	-56.929	156.445	
59.00	-55.377	175.676	
60.00	-54.312	-165.741	
61.00	-53.999	-147.731	
62.00	-56.690	-126.581	
63.00	-56.156	-92.910	
64.00	-55.380	-67.197	
65.00	-55.634	-51.826	
66.00	-53.990	-26.314	
67.00	-55.243	2.722	
68.00	-54.899	22.664	
69.00	-54.677	51.990	
70.00	-54.374	66.049	
71.00	-54.547	92.615	
72.00	-53.670	110.489	
73.00	-53.199	137.972	
74.00	-54.049	155.546	
75.00	-54.296	-173.209	
76.00	-54.528	-152.840	
77.00	-54.733	-120.241	
78.00	-55.006	-118.950	
79.00	-53.892	-76.994	
80.00	-55.759	-60.521	
81.00	-55.227	-35.449	
82.00	-54.844	-3.091	
83.00	-55.526	20.788	
84.00	-55.647	37.258	
85.00	-56.197	56.294	
86.00	-55.879	81.439	
87.00	-56.186	112.845	
88.00	-56.331	139.038	
89.00	-56.257	147.195	
90.00	-58.720	167.575	
91.00	-56.200	-156.281	
92.00	-55.801	-138.560	
93.00	-55.523	-103.790	
94.00	-57.292	-96.958	
95.00	-56.573	-75.898	
96.00	-55.969	-38.545	
97.00	-54.865	-21.851	
98.00	-58.314	-12.762	
99.00	-56.998	20.719	
100.00	-57.229	25.410	
101.00	-57.176	61.908	
102.00	-59.480	86.414	
103.00	-56.232	96.155	
104.00	-58.102	102.398	
105.00	-58.680	125.838	
106.00	-58.835	162.891	
107.00	-58.968	161.321	
108.00	-59.356	177.193	
109.00	-58.248	-173.055	
110.00	-57.785	-135.610	
111.00	-57.475	-113.296	
112.00	-56.876	-106.960	
113.00	-57.692	-81.817	
114.00	-56.520	-68.300	
115.00	-56.115	-54.660	
116.00	-55.234	-37.213	
117.00	-55.492	-26.245	
118.00	-55.432	-11.505	
119.00	-55.161	0.653	
120.00	-56.099	18.839	
121.00	-55.868	36.936	
122.00	-55.931	50.914	
123.00	-55.132	70.337	
124.00	-56.603	89.337	
125.00	-54.331	93.427	
126.00	-56.491	130.674	
127.00	-55.353	131.324	
128.00	-55.592	145.470	
129.00	-56.452	157.964	
130.00	-56.571	172.103	
131.00	-55.598	-170.776	
132.00	-57.087	-158.105	
133.00	-58.418	-153.849	
134.00	-57.737	-132.777	
135.00	-57.950	-127.533	
136.00	-60.286	-117.594	
137.00	-59.808	-117.279	
138.00	-61.511	-116.800	
139.00	-61.965	-114.421	
140.00	-61.363	-113.215	
141.00	-63.489	-100.924	
142.00	-60.606	-103.333	
143.00	-59.503	-102.285	
144.00	-59.347	-104.311	
145.00	-57.865	-82.527	
146.00	-56.106	-68.595	
147.00	-55.076	-67.099	
148.00	-55.793	-72.748	
149.00	-53.431	-54.479	
150.00	-54.012	-50.197	
151.00	-52.319	-34.978	
152.00	-51.029	-34.188	
153.00	-50.499	-26.651	
154.00	-49.394	-20.172	
155.00	-49.452	-15.566	
156.00	-49.204	-4.197	
157.00	-49.362	-2.931	
158.00	-49.434	1.583	
159.00	-49.359	9.460	
160.00	-49.425	15.882	
161.00	-49.300	17.541	
162.00	-49.309	27.461	
163.00	-49.118	28.779	
164.00	-49.545	35.860	
165.00	-49.666	37.311	
166.00	-49.943	37.699	
167.00	-49.537	40.739	
168.00	-49.834	42.386	
169.00	-49.675	49.908	
170.00	-50.664	45.318	
171.00	-50.123	44.394	
172.00	-50.557	41.415	
173.00	-50.739	45.098	
174.00	-51.005	37.949	
175.00	-50.033	42.592	
176.00	-50.676	36.525	
177.00	-50.354	30.676	
178.00	-50.138	31.432	
179.00	-50.876	27.141	
180.00	-51.130	23.076	
181.00	-51.442	15.813	
182.00	-51.600	12.124	
183.00	-52.841	10.925	
184.00	-52.129	4.237	
185.00	-53.251	-10.289	
186.00	-53.540	-17.514	
187.00	-54.315	-29.813	
188.00	-53.425	-35.874	
189.00	-55.203	-40.045	
190.00	-55.493	-60.582	
191.00	-52.861	-69.491	
192.00	-53.197	-78.997	
193.00	-54.762	-92.048	
194.00	-52.949	-103.999	
195.00	-52.924	-110.294	
196.00	-52.677	-124.779	
197.00	-52.166	-139.058	
198.00	-52.446	-142.571	
199.00	-51.534	-158.823	
200.00	-51.056	-176.063	
201.00	-51.666	-177.639	
202.00	-52.662	173.448	
203.00	-50.884	163.718	
204.00	-51.233	147.429	
205.00	-50.700	136.737	
206.00	-50.659	126.293	
207.00	-50.548	107.328	
208.00	-51.146	96.900	
209.00	-50.614	90.964	
210.00	-50.197	78.134	
211.00	-50.952	62.984	
212.00	-50.907	52.611	
213.00	-50.541	31.646	
214.00	-50.702	18.714	
215.00	-51.639	7.444	
216.00	-52.136	-10.050	
217.00	-52.589	-22.269	
218.00	-51.385	-42.299	
219.00	-52.181	-54.232	
220.00	-52.529	-71.550	
221.00	-51.686	-87.846	
222.00	-52.015	-106.067	
223.00	-52.438	-119.541	
224.00	-51.686	-135.135	
225.00	-51.538	-146.454	
226.00	-52.585	177.026	
227.00	-52.623	166.964	
228.00	-51.689	146.309	
229.00	-51.618	139.865	
230.00	-52.447	114.321	
231.00	-51.311	88.855	
232.00	-51.863	75.756	
233.00	-52.031	53.655	
234.00	-50.397	28.714	
235.00	-50.894	11.111	
236.00	-49.107	-3.241	
237.00	-49.438	-20.693	
238.00	-49.738	-40.771	
239.00	-49.369	-57.283	
240.00	-48.910	-76.015	
241.00	-48.303	-93.826	
242.00	-48.877	-115.731	
243.00	-48.253	-135.362	
244.00	-48.435	-153.274	
245.00	-48.096	-175.307	
246.00	-48.463	165.339	
247.00	-48.208	140.725	
248.00	-47.618	124.112	
249.00	-48.043	99.229	
250.00	-47.879	81.551	
251.00	-48.523	56.639	
252.00	-47.916	36.447	
253.00	-48.072	14.729	
254.00	-47.699	-3.871	
255.00	-47.526	-30.337	
256.00	-47.843	-47.713	
257.00	-47.930	-71.860	
258.00	-48.458	-94.591	
259.00	-47.358	-122.392	
260.00	-48.165	-135.475	
261.00	-47.939	-162.699	
262.00	-48.080	177.502	
263.00	-48.202	153.352	
264.00	-48.815	133.454	
265.00	-48.532	113.823	
266.00	-48.977	90.204	
267.00	-49.045	65.715	
268.00	-49.450	42.915	
269.00	-50.124	23.549	
270.00	-49.893	-2.318	
271.00	-50.816	-28.729	
272.00	-50.986	-60.437	
273.00	-51.095	-71.717	
274.00	-51.458	-96.516	
275.00	-51.575	-135.976	
276.00	-50.152	-151.547	
277.00	-51.112	179.740	
278.00	-52.110	155.342	
279.00	-52.079	133.374	
280.00	-52.345	109.931	
281.00	-52.658	84.350	
282.00	-51.865	57.819	
283.00	-52.109	28.023	
284.00	-52.934	9.930	
285.00	-53.417	-17.694	
286.00	-53.137	-42.700	
287.00	-53.881	-69.938	
288.00	-54.380	-93.063	
289.00	-54.061	-109.984	
290.00	-54.453	-137.785	
291.00	-54.173	-157.552	
292.00	-54.564	-176.652	
293.00	-56.661	151.441	
294.00	-54.145	120.354	
295.00	-55.083	93.123	
296.00	-54.480	74.992	
297.00	-56.120	54.922	
298.00	-54.936	36.878	
299.00	-56.162	4.783	
300.00	-56.233	-12.140	
301.00	-57.296	-39.863	
302.00	-56.229	-68.759	
303.00	-58.776	-85.496	
304.00	-59.161	-121.866	
305.00	-57.107	-139.307	
306.00	-55.458	-173.928	
307.00	-57.825	164.768	
308.00	-58.621	155.214	
309.00	-58.574	134.816	
310.00	-58.452	100.399	
311.00	-58.043	61.805	
312.00	-58.728	46.149	
313.00	-64.833	48.773	
314.00	-57.425	21.364	
315.00	-63.092	-28.014	
316.00	-57.776	-27.303	
317.00	-59.215	-76.945	
318.00	-58.552	-76.593	
319.00	-58.140	-83.722	
320.00	-60.247	-112.160	
321.00	-61.756	-128.743	
322.00	-63.376	-147.727	
323.00	-60.751	-168.354	
324.00	-61.844	165.710	
325.00	-60.419	145.024	
326.00	-63.927	138.129	
327.00	-67.331	91.926	
328.00	-64.802	81.480	
329.00	-65.032	44.524	
330.00	-68.118	-6.335	
331.00	-65.250	-26.643	
332.00	-61.713	-22.694	
333.00	-61.763	-46.382	
334.00	-62.383	-48.018	
335.00	-62.602	-72.270	
336.00	-64.252	-80.654	
337.00	-65.853	-103.349	
338.00	-63.967	-89.569	
339.00	-62.685	-134.043	
340.00	-63.125	-118.379	
341.00	-65.938	-161.116	
342.00	-65.178	-161.498	
343.00	-64.648	157.329	
344.00	-65.633	165.855	
345.00	-66.740	146.039	
346.00	-65.653	152.728	
347.00	-69.542	115.053	
348.00	-65.357	78.694	
349.00	-65.540	45.801	
350.00	-64.993	72.610	
351.00	-63.509	49.831	
352.00	-63.338	55.966	
353.00	-66.846	31.936	
354.00	-63.971	30.720	
355.00	-66.780	15.020	
356.00	-68.562	26.536	
357.00	-65.469	22.048	
358.00	-66.305	-40.875	
359.00	-64.725	-22.998	
Frequency	3500.00	MHz	
Channel	test		
Scan Axis name	Azimuth  [deg]		
Scan Axis	Amplitude	Phase	
			
0.00	-66.961	65.413	
1.00	-68.773	50.685	
2.00	-69.933	45.206	
3.00	-67.905	36.400	
4.00	-66.063	31.801	
5.00	-65.328	21.333	
6.00	-64.747	13.176	
7.00	-65.430	17.273	
8.00	-64.372	22.151	
9.00	-63.534	24.589	
10.00	-63.373	27.046	
11.00	-64.487	36.468	
12.00	-65.241	43.903	
13.00	-64.939	44.196	
14.00	-67.318	58.162	
15.00	-69.870	72.292	
16.00	-70.357	79.450	
17.00	-72.680	105.586	
18.00	-72.253	122.207	
19.00	-72.857	172.850	
20.00	-71.810	-156.589	
21.00	-70.135	-138.778	
22.00	-69.064	-123.340	
23.00	-66.408	-120.024	
24.00	-66.035	-96.800	
25.00	-65.166	-82.348	
26.00	-65.997	-76.386	
27.00	-65.403	-56.538	
28.00	-65.186	-42.986	
29.00	-65.473	-30.391	
30.00	-66.447	-21.167	
31.00	-66.208	-0.674	
32.00	-67.895	12.785	
33.00	-70.893	50.892	
34.00	-72.282	68.477	
35.00	-72.964	126.885	
36.00	-71.460	153.496	
37.00	-69.798	-178.963	
38.00	-68.034	-143.975	
39.00	-68.030	-122.576	
40.00	-66.918	-105.778	
41.00	-66.401	-83.316	
42.00	-65.013	-66.276	
43.00	-65.254	-37.628	
44.00	-64.491	-16.928	
45.00	-64.018	6.943	
46.00	-63.218	26.353	
47.00	-63.595	49.428	
48.00	-63.054	69.008	
49.00	-62.504	103.954	
50.00	-62.747	123.113	
51.00	-62.621	144.481	
52.00	-61.842	174.389	
53.00	-61.940	-159.722	
54.00	-61.172	-136.636	
55.00	-61.026	-108.828	
56.00	-59.351	-88.403	
57.00	-58.618	-62.415	
58.00	-58.606	-44.848	
59.00	-57.893	-21.805	
60.00	-57.595	2.600	
61.00	-57.934	26.735	
62.00	-57.568	46.840	
63.00	-56.858	74.304	
64.00	-56.820	94.502	
65.00	-56.734	116.522	
66.00	-56.605	139.418	
67.00	-56.440	165.778	
68.00	-56.446	-172.555	
69.00	-56.408	-147.400	
70.00	-56.460	-127.541	
71.00	-56.240	-105.118	
72.00	-56.338	-83.377	
73.00	-56.502	-55.693	
74.00	-56.164	-28.797	
75.00	-56.505	-7.922	
76.00	-56.580	13.066	
77.00	-56.692	40.469	
78.00	-56.561	61.064	
79.00	-56.939	89.246	
80.00	-57.202	110.837	
81.00	-57.214	138.480	
82.00	-57.571	157.390	
83.00	-57.906	-178.529	
84.00	-57.959	-153.228	
85.00	-57.223	-125.774	
86.00	-57.749	-104.573	
87.00	-57.700	-75.047	
88.00	-58.374	-55.766	
89.00	-58.045	-28.160	
90.00	-57.819	-3.701	
91.00	-58.303	18.639	
92.00	-58.851	42.829	
93.00	-59.456	63.505	
94.00	-59.531	88.110	
95.00	-60.222	111.818	
96.00	-59.877	137.445	
97.00	-59.456	158.019	
98.00	-60.330	-176.898	
99.00	-59.740	-156.043	
100.00	-60.422	-134.081	
101.00	-60.466	-110.639	
102.00	-60.529	-87.680	
103.00	-60.632	-67.089	
104.00	-60.603	-51.720	
105.00	-61.392	-35.246	
106.00	-61.354	-13.507	
107.00	-61.746	2.799	
108.00	-61.907	18.643	
109.00	-62.756	40.771	
110.00	-63.310	54.313	
111.00	-64.090	71.707	
112.00	-63.747	87.552	
113.00	-64.367	103.410	
114.00	-64.744	124.999	
115.00	-64.903	143.037	
116.00	-65.812	148.923	
117.00	-66.130	176.522	
118.00	-66.767	-158.230	
119.00	-69.663	-141.279	
120.00	-69.362	-125.097	
121.00	-68.632	-92.508	
122.00	-67.213	-79.612	
123.00	-67.465	-45.704	
124.00	-66.462	-31.548	
125.00	-64.724	-12.260	
126.00	-64.901	5.541	
127.00	-64.382	22.087	
128.00	-64.427	44.152	
129.00	-63.739	63.302	
130.00	-63.139	81.368	
131.00	-62.895	98.007	
132.00	-62.606	122.713	
133.00	-61.123	140.971	
134.00	-60.764	155.095	
135.00	-60.513	176.596	
136.00	-59.803	-170.034	
137.00	-58.911	-153.904	
138.00	-58.668	-141.400	
139.00	-59.035	-122.355	
140.00	-59.153	-107.180	
141.00	-58.296	-92.549	
142.00	-58.549	-75.519	
143.00	-58.274	-56.076	
144.00	-58.903	-42.799	
145.00	-58.225	-23.331	
146.00	-58.269	-10.106	
147.00	-57.526	7.639	
148.00	-57.482	22.140	
149.00	-57.254	39.329	
150.00	-57.065	51.007	
151.00	-56.359	67.085	
152.00	-56.264	80.144	
153.00	-55.949	89.315	
154.00	-55.515	104.965	
155.00	-55.700	112.011	
156.00	-55.589	124.678	
157.00	-55.610	134.783	
158.00	-55.113	145.439	
159.00	-54.971	152.492	
160.00	-54.945	164.313	
161.00	-55.008	169.136	
162.00	-54.854	-179.788	
163.00	-54.471	-173.997	
164.00	-54.707	-169.080	
165.00	-54.990	-163.879	
166.00	-54.752	-160.696	
167.00	-55.193	-156.529	
168.00	-55.069	-153.830	
169.00	-55.771	-147.312	
170.00	-55.812	-151.504	
171.00	-56.226	-149.485	
172.00	-56.853	-150.654	
173.00	-57.616	-148.773	
174.00	-57.859	-151.931	
175.00	-58.080	-152.501	
176.00	-59.319	-152.170	
177.00	-59.678	-160.650	
178.00	-59.890	-164.212	
179.00	-59.555	-167.896	
180.00	-60.446	179.605	
181.00	-60.755	174.415	
182.00	-61.055	167.721	
183.00	-61.435	157.010	
184.00	-61.554	146.471	
185.00	-61.811	139.655	
186.00	-61.460	130.965	
187.00	-62.167	111.704	
188.00	-62.765	109.586	
189.00	-62.512	95.513	
190.00	-62.503	84.479	
191.00	-62.304	73.460	
192.00	-63.315	55.215	
193.00	-63.597	49.567	
194.00	-63.115	35.264	
195.00	-64.016	23.087	
196.00	-64.294	5.959	
197.00	-64.227	-4.257	
198.00	-64.427	-14.111	
199.00	-65.567	-25.439	
200.00	-64.676	-42.985	
201.00	-64.154	-47.560	
202.00	-64.127	-53.107	
203.00	-65.502	-68.815	
204.00	-65.166	-74.282	
205.00	-66.115	-87.113	
206.00	-64.438	-91.141	
207.00	-64.723	-92.418	
208.00	-64.225	-99.433	
209.00	-64.231	-112.167	
210.00	-63.129	-115.861	
211.00	-63.694	-137.053	
212.00	-63.341	-137.140	
213.00	-62.668	-147.873	
214.00	-62.022	-154.479	
215.00	-61.181	-160.700	
216.00	-61.279	-178.560	
217.00	-60.730	169.405	
218.00	-59.594	161.693	
219.00	-59.238	148.684	
220.00	-59.805	140.595	
221.00	-58.925	125.662	
222.00	-58.529	107.734	
223.00	-57.706	95.434	
224.00	-58.242	80.724	
225.00	-57.744	65.856	
226.00	-58.150	48.196	
227.00	-57.597	33.786	
228.00	-57.699	18.292	
229.00	-57.544	-6.148	
230.00	-58.237	-18.914	
231.00	-58.389	-37.387	
232.00	-58.524	-59.048	
233.00	-58.341	-82.030	
234.00	-59.210	-105.832	
235.00	-58.876	-129.456	
236.00	-58.865	-153.798	
237.00	-58.661	-178.513	
238.00	-57.983	156.419	
239.00	-57.870	132.802	
240.00	-57.331	111.538	
241.00	-56.677	88.521	
242.00	-56.563	65.458	
243.00	-55.863	44.730	
244.00	-55.243	21.939	
245.00	-54.997	-0.956	
246.00	-55.088	-18.715	
247.00	-54.816	-41.861	
248.00	-54.494	-64.631	
249.00	-54.270	-88.337	
250.00	-54.564	-109.955	
251.00	-54.856	-133.602	
252.00	-54.083	-156.851	
253.00	-54.148	179.418	
254.00	-53.970	154.236	
255.00	-54.098	131.574	
256.00	-53.738	108.232	
257.00	-53.458	82.881	
258.00	-53.148	60.730	
259.00	-52.972	34.254	
260.00	-52.869	14.645	
261.00	-52.331	-9.389	
262.00	-52.700	-31.071	
263.00	-52.121	-53.730	
264.00	-52.213	-74.886	
265.00	-51.995	-97.917	
266.00	-52.183	-119.665	
267.00	-52.428	-143.288	
268.00	-52.739	-168.815	
269.00	-52.682	168.024	
270.00	-53.287	144.360	
271.00	-53.292	121.601	
272.00	-53.398	93.960	
273.00	-53.345	71.007	
274.00	-53.862	48.093	
275.00	-53.903	23.660	
276.00	-53.962	-2.103	
277.00	-54.032	-24.798	
278.00	-54.178	-48.293	
279.00	-54.280	-73.200	
280.00	-54.804	-95.884	
281.00	-54.608	-117.902	
282.00	-55.204	-143.328	
283.00	-55.547	-168.214	
284.00	-55.810	168.506	
285.00	-55.769	141.454	
286.00	-56.473	116.841	
287.00	-56.979	96.194	
288.00	-56.845	70.118	
289.00	-57.055	45.640	
290.00	-57.640	23.606	
291.00	-57.983	-1.080	
292.00	-58.806	-27.261	
293.00	-59.304	-52.243	
294.00	-59.392	-78.264	
295.00	-59.482	-102.792	
296.00	-59.809	-127.016	
297.00	-60.153	-154.733	
298.00	-60.320	-173.954	
299.00	-61.054	158.918	
300.00	-60.986	132.588	
301.00	-61.463	105.306	
302.00	-62.965	86.156	
303.00	-63.575	59.866	
304.00	-64.375	32.246	
305.00	-63.728	9.736	
306.00	-64.678	-20.011	
307.00	-64.227	-47.157	
308.00	-64.116	-76.115	
309.00	-64.957	-101.239	
310.00	-63.163	-122.730	
311.00	-63.167	-148.700	
312.00	-63.404	-172.125	
313.00	-62.883	170.386	
314.00	-64.183	148.655	
315.00	-64.477	133.886	
316.00	-63.360	99.613	
317.00	-64.312	79.403	
318.00	-63.934	58.361	
319.00	-63.488	29.718	
320.00	-64.082	15.584	
321.00	-65.011	1.207	
322.00	-65.924	-23.263	
323.00	-64.794	-31.644	
324.00	-67.109	-51.109	
325.00	-67.403	-73.596	
326.00	-68.247	-98.886	
327.00	-70.692	-117.981	
328.00	-71.809	-126.250	
329.00	-76.746	173.822	
330.00	-74.687	147.950	
331.00	-71.052	101.515	
332.00	-71.487	88.901	
333.00	-70.768	58.856	
334.00	-69.068	49.355	
335.00	-68.417	23.932	
336.00	-67.070	29.118	
337.00	-68.243	9.165	
338.00	-67.560	-11.847	
339.00	-68.747	-29.059	
340.00	-69.238	-46.607	
341.00	-70.429	-69.124	
342.00	-69.597	-90.036	
343.00	-70.257	-108.810	
344.00	-69.037	-125.925	
345.00	-68.216	-138.134	
346.00	-68.408	-157.373	
347.00	-66.062	-176.550	
348.00	-66.509	176.229	
349.00	-65.571	170.688	
350.00	-65.557	157.185	
351.00	-65.469	154.650	
352.00	-65.635	145.368	
353.00	-65.487	135.544	
354.00	-65.590	136.404	
355.00	-65.745	126.261	
356.00	-65.697	118.151	
357.00	-67.510	107.432	
358.00	-68.463	87.450	
359.00	-69.884	104.641	
Frequency	3550.00	MHz	
Channel	test		
Scan Axis name	Azimuth  [deg]		
Scan Axis	Amplitude	Phase	
			
0.00	-69.824	-158.361	
1.00	-71.294	-172.821	
2.00	-78.491	175.748	
3.00	-74.990	137.534	
4.00	-74.664	95.553	
5.00	-75.723	96.298	
6.00	-70.064	75.726	
7.00	-70.107	71.444	
8.00	-70.352	79.007	
9.00	-71.248	85.582	
10.00	-67.961	79.866	
11.00	-68.698	78.905	
12.00	-70.354	90.681	
13.00	-71.062	84.331	
14.00	-70.069	102.021	
15.00	-73.653	97.372	
16.00	-76.872	126.457	
17.00	-84.730	167.385	
18.00	-89.036	-50.501	
19.00	-78.958	-80.598	
20.00	-78.698	-42.705	
21.00	-71.039	-47.871	
22.00	-70.967	-38.544	
23.00	-71.060	-33.166	
24.00	-72.470	-19.867	
25.00	-71.621	1.032	
26.00	-74.823	8.960	
27.00	-74.881	40.162	
28.00	-78.182	53.375	
29.00	-79.057	98.262	
30.00	-79.561	154.522	
31.00	-74.965	-171.304	
32.00	-74.328	-132.457	
33.00	-70.557	-99.226	
34.00	-68.238	-82.556	
35.00	-67.485	-79.718	
36.00	-65.895	-50.043	
37.00	-65.968	-36.539	
38.00	-64.324	-14.126	
39.00	-63.497	8.766	
40.00	-62.562	21.636	
41.00	-62.192	45.869	
42.00	-61.815	63.664	
43.00	-61.776	76.441	
44.00	-60.733	101.151	
45.00	-61.747	124.165	
46.00	-61.163	141.973	
47.00	-60.422	170.949	
48.00	-60.372	-157.238	
49.00	-60.052	-142.852	
50.00	-59.323	-116.273	
51.00	-58.741	-92.341	
52.00	-57.877	-67.628	
53.00	-58.053	-51.951	
54.00	-57.671	-32.729	
55.00	-57.622	-7.153	
56.00	-57.046	14.774	
57.00	-56.491	41.544	
58.00	-56.417	61.022	
59.00	-56.346	84.658	
60.00	-55.932	109.137	
61.00	-55.694	133.907	
62.00	-55.509	156.403	
63.00	-55.612	-179.901	
64.00	-55.279	-156.651	
65.00	-55.179	-133.126	
66.00	-54.954	-109.943	
67.00	-54.679	-84.506	
68.00	-54.783	-61.580	
69.00	-55.073	-38.006	
70.00	-55.179	-17.692	
71.00	-54.718	10.507	
72.00	-54.815	28.918	
73.00	-54.954	55.341	
74.00	-55.067	76.005	
75.00	-55.072	104.512	
76.00	-54.934	127.291	
77.00	-54.827	153.551	
78.00	-55.281	176.682	
79.00	-55.306	-159.428	
80.00	-55.794	-136.513	
81.00	-56.039	-110.536	
82.00	-56.208	-90.755	
83.00	-56.015	-61.881	
84.00	-56.261	-37.875	
85.00	-56.842	-12.037	
86.00	-57.092	12.444	
87.00	-57.286	41.476	
88.00	-57.420	65.602	
89.00	-57.380	93.133	
90.00	-57.575	114.136	
91.00	-57.176	143.718	
92.00	-57.378	167.285	
93.00	-57.330	-168.002	
94.00	-57.974	-142.252	
95.00	-57.605	-119.346	
96.00	-57.263	-99.415	
97.00	-57.330	-74.650	
98.00	-57.678	-54.208	
99.00	-57.410	-37.319	
100.00	-57.874	-13.566	
101.00	-57.969	3.137	
102.00	-58.198	27.721	
103.00	-58.327	40.182	
104.00	-59.066	60.310	
105.00	-59.014	80.630	
106.00	-60.232	102.843	
107.00	-60.763	123.865	
108.00	-61.274	139.578	
109.00	-61.808	167.534	
110.00	-61.518	-175.244	
111.00	-61.564	-159.354	
112.00	-61.713	-135.596	
113.00	-61.833	-118.807	
114.00	-61.778	-97.984	
115.00	-60.660	-80.692	
116.00	-60.573	-63.220	
117.00	-60.902	-42.221	
118.00	-60.413	-23.201	
119.00	-59.698	-4.262	
120.00	-58.981	18.935	
121.00	-58.204	29.211	
122.00	-57.716	50.230	
123.00	-57.044	64.024	
124.00	-56.238	82.676	
125.00	-56.271	98.914	
126.00	-56.688	115.803	
127.00	-56.412	132.342	
128.00	-56.206	149.763	
129.00	-55.989	167.328	
130.00	-56.221	-174.983	
131.00	-55.781	-155.802	
132.00	-55.996	-140.730	
133.00	-55.757	-122.040	
134.00	-55.147	-106.498	
135.00	-55.448	-91.003	
136.00	-54.964	-74.019	
137.00	-55.722	-57.091	
138.00	-55.943	-41.362	
139.00	-56.074	-24.990	
140.00	-56.805	-7.769	
141.00	-56.936	11.013	
142.00	-57.265	25.184	
143.00	-57.604	44.417	
144.00	-58.062	60.189	
145.00	-58.290	78.720	
146.00	-57.369	92.190	
147.00	-58.887	106.196	
148.00	-59.232	122.156	
149.00	-59.849	138.624	
150.00	-60.443	151.070	
151.00	-61.784	169.439	
152.00	-62.124	-170.011	
153.00	-62.296	-154.802	
154.00	-62.349	-122.727	
155.00	-62.777	-108.522	
156.00	-62.069	-92.584	
157.00	-61.726	-76.692	
158.00	-62.192	-55.456	
159.00	-61.070	-47.012	
160.00	-60.913	-30.933	
161.00	-60.750	-22.803	
162.00	-60.506	-9.708	
163.00	-59.762	1.695	
164.00	-60.038	11.369	
165.00	-59.658	21.043	
166.00	-59.644	20.959	
167.00	-59.880	31.120	
168.00	-59.678	36.995	
169.00	-59.318	44.531	
170.00	-60.104	49.564	
171.00	-59.857	53.158	
172.00	-60.113	57.492	
173.00	-60.056	60.409	
174.00	-60.504	63.148	
175.00	-60.593	63.787	
176.00	-60.709	59.885	
177.00	-61.494	60.850	
178.00	-61.607	62.303	
179.00	-61.597	61.795	
180.00	-61.779	55.238	
181.00	-62.956	47.278	
182.00	-63.369	40.067	
183.00	-62.843	36.933	
184.00	-63.108	29.090	
185.00	-63.115	24.319	
186.00	-62.364	21.103	
187.00	-62.037	9.499	
188.00	-62.685	3.992	
189.00	-62.566	-5.059	
190.00	-61.184	-13.825	
191.00	-60.786	-20.498	
192.00	-60.060	-28.818	
193.00	-60.033	-40.274	
194.00	-59.958	-47.770	
195.00	-59.692	-58.087	
196.00	-59.212	-65.143	
197.00	-58.826	-78.176	
198.00	-58.821	-88.548	
199.00	-58.564	-103.111	
200.00	-58.601	-112.706	
201.00	-58.875	-124.279	
202.00	-58.219	-136.359	
203.00	-58.649	-146.683	
204.00	-58.168	-166.455	
205.00	-58.379	179.844	
206.00	-57.554	165.428	
207.00	-58.218	147.883	
208.00	-57.980	132.101	
209.00	-58.129	116.934	
210.00	-57.640	97.990	
211.00	-57.941	83.804	
212.00	-57.162	65.794	
213.00	-57.618	47.984	
214.00	-56.944	30.088	
215.00	-56.963	15.226	
216.00	-56.609	-0.707	
217.00	-56.539	-17.926	
218.00	-56.530	-33.976	
219.00	-56.656	-54.387	
220.00	-56.418	-71.369	
221.00	-56.473	-90.498	
222.00	-55.984	-111.182	
223.00	-55.970	-131.799	
224.00	-55.465	-149.340	
225.00	-55.281	-171.026	
226.00	-54.919	170.334	
227.00	-54.663	151.695	
228.00	-53.958	132.698	
229.00	-53.747	110.935	
230.00	-53.455	91.125	
231.00	-53.447	72.760	
232.00	-52.691	52.204	
233.00	-52.306	30.516	
234.00	-52.329	10.934	
235.00	-51.904	-8.545	
236.00	-51.770	-31.501	
237.00	-51.670	-49.547	
238.00	-51.367	-69.956	
239.00	-51.435	-91.218	
240.00	-50.994	-113.568	
241.00	-50.989	-133.559	
242.00	-50.626	-155.814	
243.00	-50.569	-175.933	
244.00	-50.500	160.572	
245.00	-50.400	139.913	
246.00	-50.076	118.631	
247.00	-50.047	96.866	
248.00	-50.181	74.232	
249.00	-50.169	51.958	
250.00	-49.962	29.013	
251.00	-50.304	5.093	
252.00	-50.165	-14.230	
253.00	-50.203	-38.447	
254.00	-50.471	-60.753	
255.00	-50.855	-84.689	
256.00	-50.729	-108.901	
257.00	-51.007	-132.904	
258.00	-51.042	-156.823	
259.00	-51.043	176.949	
260.00	-51.145	153.286	
261.00	-51.247	125.544	
262.00	-51.082	103.894	
263.00	-51.075	78.285	
264.00	-51.000	53.492	
265.00	-51.110	30.224	
266.00	-51.143	6.000	
267.00	-51.161	-19.837	
268.00	-51.139	-44.283	
269.00	-51.353	-68.650	
270.00	-51.650	-94.544	
271.00	-51.805	-117.853	
272.00	-52.029	-145.145	
273.00	-51.865	-169.400	
274.00	-52.018	165.108	
275.00	-52.296	138.918	
276.00	-52.525	114.371	
277.00	-52.357	86.255	
278.00	-52.425	60.858	
279.00	-52.354	35.598	
280.00	-52.050	10.584	
281.00	-52.185	-13.191	
282.00	-52.323	-35.956	
283.00	-52.098	-58.857	
284.00	-52.512	-81.437	
285.00	-52.726	-108.463	
286.00	-53.117	-132.441	
287.00	-53.324	-154.516	
288.00	-53.778	-178.265	
289.00	-54.180	156.223	
290.00	-54.810	132.753	
291.00	-54.818	105.825	
292.00	-55.240	81.643	
293.00	-55.698	55.338	
294.00	-55.546	29.562	
295.00	-55.978	5.325	
296.00	-56.049	-19.677	
297.00	-55.919	-43.534	
298.00	-56.802	-66.041	
299.00	-56.838	-89.483	
300.00	-56.921	-116.999	
301.00	-57.463	-141.222	
302.00	-58.416	-162.242	
303.00	-58.394	176.185	
304.00	-59.420	153.165	
305.00	-60.507	124.684	
306.00	-60.820	98.685	
307.00	-62.129	80.516	
308.00	-62.583	48.028	
309.00	-62.815	19.615	
310.00	-62.913	-9.200	
311.00	-62.779	-31.230	
312.00	-61.972	-62.927	
313.00	-61.987	-82.171	
314.00	-62.073	-109.417	
315.00	-60.887	-122.544	
316.00	-61.321	-147.607	
317.00	-61.399	-171.252	
318.00	-61.546	172.310	
319.00	-62.506	158.808	
320.00	-61.950	138.251	
321.00	-62.990	122.085	
322.00	-64.140	102.340	
323.00	-64.142	86.711	
324.00	-66.558	68.512	
325.00	-67.115	52.728	
326.00	-68.179	35.724	
327.00	-69.248	17.672	
328.00	-71.060	-5.692	
329.00	-79.065	-54.730	
330.00	-81.597	-98.969	
331.00	-78.598	-135.227	
332.00	-75.492	-170.452	
333.00	-78.166	175.433	
334.00	-74.927	156.032	
335.00	-70.277	141.495	
336.00	-70.497	123.891	
337.00	-70.474	96.854	
338.00	-70.808	83.983	
339.00	-70.784	73.980	
340.00	-70.727	61.243	
341.00	-72.625	51.133	
342.00	-74.724	15.310	
343.00	-75.860	-0.154	
344.00	-75.871	-33.725	
345.00	-74.615	-65.139	
346.00	-69.024	-80.877	
347.00	-69.740	-103.647	
348.00	-67.738	-108.199	
349.00	-67.655	-119.206	
350.00	-65.541	-122.666	
351.00	-65.167	-129.357	
352.00	-65.610	-129.544	
353.00	-65.024	-129.194	
354.00	-65.384	-140.651	
355.00	-65.703	-142.640	
356.00	-65.813	-151.371	
357.00	-66.430	-151.070	
358.00	-67.489	-153.644	
359.00	-68.497	-159.617	
Frequency	3575.00	MHz	
Channel	test		
Scan Axis name	Azimuth  [deg]		
Scan Axis	Amplitude	Phase	
			
0.00	-71.777	60.420	
1.00	-74.037	81.599	
2.00	-91.792	-76.856	
3.00	-76.222	3.492	
4.00	-75.785	29.569	
5.00	-72.682	14.497	
6.00	-72.882	-55.225	
7.00	-71.449	-52.046	
8.00	-69.439	-71.339	
9.00	-72.738	-64.299	
10.00	-71.339	-47.388	
11.00	-77.814	-62.774	
12.00	-66.844	37.442	
13.00	-74.793	-51.894	
14.00	-71.909	41.156	
15.00	-78.710	84.878	
16.00	-71.601	35.191	
17.00	-75.496	46.382	
18.00	-84.733	176.044	
19.00	-85.174	-38.498	
20.00	-78.597	139.476	
21.00	-79.520	-173.137	
22.00	-74.225	-123.932	
23.00	-70.130	-138.271	
24.00	-81.185	-148.188	
25.00	-76.626	-115.696	
26.00	-67.999	-67.112	
27.00	-86.291	-62.868	
28.00	-67.828	-4.765	
29.00	-76.177	-23.366	
30.00	-79.042	143.184	
31.00	-77.532	74.512	
32.00	-69.822	40.497	
33.00	-70.307	82.547	
34.00	-77.104	141.123	
35.00	-64.790	137.877	
36.00	-66.089	-169.701	
37.00	-70.457	-124.190	
38.00	-63.727	-146.711	
39.00	-67.444	-131.633	
40.00	-65.868	-112.241	
41.00	-66.837	-93.679	
42.00	-71.060	-61.354	
43.00	-63.300	-48.455	
44.00	-64.785	-14.377	
45.00	-61.237	11.536	
46.00	-64.635	37.576	
47.00	-60.304	44.584	
48.00	-63.360	94.533	
49.00	-62.085	114.766	
50.00	-61.043	125.846	
51.00	-61.530	153.543	
52.00	-59.747	170.742	
53.00	-59.108	-155.841	
54.00	-57.794	-151.062	
55.00	-58.770	-126.472	
56.00	-58.337	-106.614	
57.00	-58.500	-85.401	
58.00	-58.414	-47.159	
59.00	-58.776	-31.625	
60.00	-58.254	-9.958	
61.00	-57.473	22.120	
62.00	-58.514	40.647	
63.00	-56.650	70.824	
64.00	-58.306	92.409	
65.00	-56.207	112.885	
66.00	-56.460	136.911	
67.00	-56.986	162.814	
68.00	-55.513	-175.513	
69.00	-56.394	-154.275	
70.00	-56.273	-131.923	
71.00	-55.748	-106.334	
72.00	-56.416	-77.516	
73.00	-56.280	-58.623	
74.00	-56.599	-30.617	
75.00	-57.922	-6.747	
76.00	-56.959	9.410	
77.00	-57.030	33.751	
78.00	-57.012	60.659	
79.00	-57.630	82.908	
80.00	-58.122	110.356	
81.00	-58.742	143.801	
82.00	-60.636	171.808	
83.00	-60.998	-169.468	
84.00	-59.230	-152.399	
85.00	-59.334	-104.126	
86.00	-58.875	-71.493	
87.00	-59.105	-61.788	
88.00	-59.261	-35.033	
89.00	-60.358	-16.057	
90.00	-60.728	4.457	
91.00	-60.059	53.101	
92.00	-59.563	78.392	
93.00	-61.058	93.478	
94.00	-59.066	126.468	
95.00	-59.112	135.541	
96.00	-60.441	152.104	
97.00	-61.181	174.141	
98.00	-59.144	-167.828	
99.00	-59.507	-127.073	
100.00	-61.823	-123.866	
101.00	-59.538	-83.164	
102.00	-63.213	-65.726	
103.00	-63.864	-51.658	
104.00	-62.817	-43.567	
105.00	-64.230	-4.704	
106.00	-65.958	12.162	
107.00	-63.239	46.310	
108.00	-69.679	50.744	
109.00	-69.161	85.357	
110.00	-66.254	126.488	
111.00	-63.899	122.239	
112.00	-65.314	147.089	
113.00	-65.498	154.499	
114.00	-65.303	165.521	
115.00	-68.184	175.883	
116.00	-66.487	-162.109	
117.00	-64.319	-149.605	
118.00	-69.658	-107.869	
119.00	-61.732	-89.216	
120.00	-61.693	-101.570	
121.00	-66.370	-78.504	
122.00	-63.468	-68.373	
123.00	-61.284	-44.106	
124.00	-60.817	-27.704	
125.00	-59.946	-6.742	
126.00	-59.706	8.252	
127.00	-59.930	24.102	
128.00	-58.374	37.471	
129.00	-61.080	75.267	
130.00	-61.420	77.362	
131.00	-58.944	92.941	
132.00	-59.356	121.192	
133.00	-59.729	137.862	
134.00	-58.067	156.486	
135.00	-59.013	164.436	
136.00	-59.210	-178.353	
137.00	-59.841	-149.557	
138.00	-57.850	-130.336	
139.00	-57.094	-109.237	
140.00	-58.273	-96.229	
141.00	-57.888	-67.611	
142.00	-58.795	-66.728	
143.00	-58.906	-45.015	
144.00	-57.408	-29.445	
145.00	-58.935	-5.801	
146.00	-60.240	8.605	
147.00	-58.496	19.054	
148.00	-57.171	39.561	
149.00	-58.605	65.684	
150.00	-59.413	81.772	
151.00	-60.080	86.634	
152.00	-59.568	105.214	
153.00	-59.195	120.855	
154.00	-60.109	153.704	
155.00	-59.625	150.290	
156.00	-57.640	166.035	
157.00	-59.928	-178.655	
158.00	-59.776	-167.987	
159.00	-61.127	-163.037	
160.00	-60.696	-139.786	
161.00	-61.191	-134.421	
162.00	-61.698	-117.908	
163.00	-59.301	-96.331	
164.00	-61.405	-98.632	
165.00	-60.623	-75.070	
166.00	-62.236	-71.503	
167.00	-59.710	-50.492	
168.00	-61.703	-68.654	
169.00	-65.472	-50.365	
170.00	-62.595	-37.461	
171.00	-67.521	-20.940	
172.00	-69.560	-28.943	
173.00	-68.667	-12.334	
174.00	-67.010	0.720	
175.00	-82.530	45.204	
176.00	-75.265	31.602	
177.00	-69.532	40.489	
178.00	-72.360	107.381	
179.00	-69.816	118.981	
180.00	-75.007	110.075	
181.00	-70.166	114.701	
182.00	-69.544	108.309	
183.00	-68.297	102.563	
184.00	-67.072	120.650	
185.00	-64.965	148.933	
186.00	-66.198	140.959	
187.00	-66.056	140.304	
188.00	-63.808	121.969	
189.00	-65.453	152.355	
190.00	-63.275	159.549	
191.00	-61.063	136.473	
192.00	-61.490	140.586	
193.00	-60.456	127.715	
194.00	-60.793	128.311	
195.00	-61.444	117.206	
196.00	-62.664	119.786	
197.00	-59.645	117.468	
198.00	-59.158	110.465	
199.00	-59.049	116.436	
200.00	-57.676	103.104	
201.00	-59.236	102.641	
202.00	-59.544	85.975	
203.00	-57.684	84.070	
204.00	-58.561	71.652	
205.00	-58.385	67.472	
206.00	-57.717	59.272	
207.00	-59.174	44.950	
208.00	-57.471	30.661	
209.00	-60.052	24.085	
210.00	-59.568	12.948	
211.00	-60.987	-9.964	
212.00	-61.658	-14.220	
213.00	-60.922	-42.530	
214.00	-62.785	-56.842	
215.00	-60.591	-72.474	
216.00	-63.129	-83.311	
217.00	-62.515	-111.786	
218.00	-62.594	-133.297	
219.00	-63.914	-156.610	
220.00	-62.979	170.236	
221.00	-63.586	152.339	
222.00	-62.628	136.757	
223.00	-62.720	111.288	
224.00	-63.950	82.702	
225.00	-61.452	70.728	
226.00	-59.815	42.064	
227.00	-60.369	30.830	
228.00	-58.161	6.349	
229.00	-58.136	-16.260	
230.00	-56.895	-34.585	
231.00	-57.507	-47.266	
232.00	-55.810	-72.196	
233.00	-54.324	-94.706	
234.00	-55.082	-111.030	
235.00	-53.211	-130.073	
236.00	-53.569	-156.456	
237.00	-52.345	-171.031	
238.00	-53.198	171.961	
239.00	-52.128	153.220	
240.00	-51.368	132.439	
241.00	-51.945	111.559	
242.00	-51.989	92.684	
243.00	-51.303	71.302	
244.00	-51.670	48.022	
245.00	-51.070	23.384	
246.00	-51.254	7.971	
247.00	-51.349	-16.616	
248.00	-51.128	-33.558	
249.00	-51.494	-53.625	
250.00	-51.153	-85.031	
251.00	-50.290	-107.823	
252.00	-50.947	-126.524	
253.00	-50.969	-149.150	
254.00	-51.893	-169.116	
255.00	-51.176	159.944	
256.00	-51.062	141.451	
257.00	-51.899	117.057	
258.00	-51.269	90.007	
259.00	-51.544	66.893	
260.00	-51.106	41.584	
261.00	-51.809	24.254	
262.00	-51.954	-1.396	
263.00	-52.053	-26.467	
264.00	-51.950	-52.278	
265.00	-52.179	-73.851	
266.00	-52.032	-97.984	
267.00	-52.752	-126.751	
268.00	-52.816	-151.685	
269.00	-53.283	-178.695	
270.00	-52.660	160.493	
271.00	-52.708	133.283	
272.00	-53.901	105.560	
273.00	-53.887	79.953	
274.00	-54.358	50.619	
275.00	-54.468	22.317	
276.00	-53.386	-1.981	
277.00	-53.670	-23.804	
278.00	-54.434	-53.649	
279.00	-53.881	-78.458	
280.00	-53.736	-103.344	
281.00	-54.932	-126.038	
282.00	-54.519	-152.733	
283.00	-54.317	179.269	
284.00	-53.644	158.241	
285.00	-54.556	129.314	
286.00	-53.718	114.352	
287.00	-54.345	89.776	
288.00	-54.724	69.436	
289.00	-55.530	37.374	
290.00	-56.566	20.456	
291.00	-56.016	-5.730	
292.00	-57.295	-28.236	
293.00	-56.255	-57.418	
294.00	-57.726	-82.506	
295.00	-58.396	-113.708	
296.00	-58.395	-123.763	
297.00	-60.231	-163.030	
298.00	-59.571	171.921	
299.00	-59.686	148.493	
300.00	-58.771	112.330	
301.00	-60.814	92.289	
302.00	-60.669	68.777	
303.00	-61.952	58.060	
304.00	-63.193	16.753	
305.00	-63.085	11.782	
306.00	-62.985	-23.198	
307.00	-63.356	-46.473	
308.00	-63.041	-76.573	
309.00	-64.921	-91.788	
310.00	-62.465	-131.455	
311.00	-64.950	-165.589	
312.00	-62.880	169.241	
313.00	-62.095	144.024	
314.00	-63.538	101.622	
315.00	-62.358	87.880	
316.00	-62.867	72.578	
317.00	-62.620	57.598	
318.00	-60.966	35.574	
319.00	-61.499	20.504	
320.00	-60.828	-7.801	
321.00	-61.031	-13.123	
322.00	-62.800	-36.784	
323.00	-64.453	-42.760	
324.00	-63.668	-59.219	
325.00	-61.782	-74.413	
326.00	-62.989	-74.703	
327.00	-73.116	-105.289	
328.00	-71.095	-92.196	
329.00	-72.470	168.210	
330.00	-70.335	-140.682	
331.00	-72.420	-151.490	
332.00	-79.407	119.343	
333.00	-73.102	122.025	
334.00	-71.954	36.000	
335.00	-69.881	4.863	
336.00	-68.251	2.162	
337.00	-76.659	-44.556	
338.00	-70.263	-0.782	
339.00	-69.487	-2.760	
340.00	-76.773	-49.539	
341.00	-69.273	-84.474	
342.00	-72.691	-79.769	
343.00	-86.639	-80.156	
344.00	-72.233	-115.300	
345.00	-76.022	-120.184	
346.00	-72.931	176.778	
347.00	-81.181	-139.043	
348.00	-69.141	134.294	
349.00	-74.780	160.556	
350.00	-67.877	133.406	
351.00	-69.609	105.068	
352.00	-69.382	137.533	
353.00	-66.301	121.342	
354.00	-72.964	110.869	
355.00	-70.344	120.714	
356.00	-70.654	114.155	
357.00	-70.248	82.223	
358.00	-69.351	83.862	
359.00	-76.682	128.971	
Frequency	3600.00	MHz	
Channel	test		
Scan Axis name	Azimuth  [deg]		
Scan Axis	Amplitude	Phase	
			
0.00	-77.636	19.167	
1.00	-78.185	-11.936	
2.00	-81.353	-0.307	
3.00	-96.311	155.813	
4.00	-89.624	-153.247	
5.00	-77.519	-122.612	
6.00	-71.983	-160.900	
7.00	-72.710	-136.324	
8.00	-69.417	-144.525	
9.00	-71.934	-129.199	
10.00	-72.206	-143.861	
11.00	-70.836	-129.313	
12.00	-75.065	-103.125	
13.00	-71.736	-99.136	
14.00	-74.067	-89.237	
15.00	-75.702	-91.148	
16.00	-76.020	-50.815	
17.00	-75.401	-29.162	
18.00	-75.344	-1.311	
19.00	-71.563	40.452	
20.00	-72.020	63.878	
21.00	-71.591	66.460	
22.00	-73.917	94.603	
23.00	-70.642	110.270	
24.00	-71.281	113.219	
25.00	-69.604	141.886	
26.00	-68.792	160.657	
27.00	-66.762	163.823	
28.00	-69.448	-170.709	
29.00	-68.057	-154.375	
30.00	-67.453	-152.826	
31.00	-69.250	-106.802	
32.00	-69.958	-114.182	
33.00	-72.493	-91.803	
34.00	-76.627	-55.024	
35.00	-76.395	-27.420	
36.00	-80.030	50.782	
37.00	-85.612	101.755	
38.00	-75.129	158.189	
39.00	-70.638	175.532	
40.00	-70.176	-171.700	
41.00	-69.421	-159.087	
42.00	-66.010	-131.882	
43.00	-64.083	-119.619	
44.00	-63.730	-96.988	
45.00	-63.570	-76.812	
46.00	-63.019	-61.507	
47.00	-62.523	-37.841	
48.00	-61.206	-17.760	
49.00	-61.340	2.084	
50.00	-61.699	19.626	
51.00	-60.130	43.418	
52.00	-60.483	66.197	
53.00	-59.531	85.832	
54.00	-60.074	113.774	
55.00	-59.399	135.210	
56.00	-59.303	155.688	
57.00	-58.349	-176.267	
58.00	-58.338	-158.251	
59.00	-58.638	-132.638	
60.00	-58.806	-107.808	
61.00	-58.048	-86.558	
62.00	-57.940	-63.075	
63.00	-57.539	-32.957	
64.00	-57.806	-15.200	
65.00	-57.368	9.687	
66.00	-57.430	36.098	
67.00	-57.305	57.814	
68.00	-57.599	82.153	
69.00	-57.490	109.725	
70.00	-57.364	130.220	
71.00	-57.635	154.995	
72.00	-57.711	170.438	
73.00	-57.656	-161.319	
74.00	-57.867	-135.076	
75.00	-58.649	-114.107	
76.00	-59.112	-90.185	
77.00	-58.212	-59.834	
78.00	-59.165	-35.847	
79.00	-60.685	-8.411	
80.00	-61.271	20.701	
81.00	-60.747	49.856	
82.00	-60.979	74.408	
83.00	-60.933	99.319	
84.00	-61.356	129.752	
85.00	-60.444	162.525	
86.00	-60.970	179.152	
87.00	-60.248	-150.298	
88.00	-59.494	-128.615	
89.00	-60.128	-98.796	
90.00	-60.063	-75.537	
91.00	-59.936	-52.963	
92.00	-60.094	-28.112	
93.00	-60.611	-7.256	
94.00	-60.230	18.666	
95.00	-61.037	44.918	
96.00	-60.990	76.802	
97.00	-61.785	97.052	
98.00	-61.792	119.639	
99.00	-61.188	136.112	
100.00	-61.367	167.682	
101.00	-61.399	-169.772	
102.00	-61.657	-139.441	
103.00	-61.610	-125.329	
104.00	-61.313	-91.955	
105.00	-61.533	-81.812	
106.00	-61.957	-54.626	
107.00	-62.270	-34.607	
108.00	-61.568	-21.821	
109.00	-62.453	7.965	
110.00	-62.394	25.228	
111.00	-62.673	45.506	
112.00	-62.618	59.931	
113.00	-61.059	73.425	
114.00	-62.169	87.277	
115.00	-60.888	103.216	
116.00	-62.191	122.146	
117.00	-61.805	130.809	
118.00	-61.234	156.556	
119.00	-61.673	170.604	
120.00	-61.254	-172.446	
121.00	-60.350	-156.725	
122.00	-60.366	-141.308	
123.00	-60.104	-119.404	
124.00	-59.317	-103.886	
125.00	-58.367	-86.168	
126.00	-58.246	-73.140	
127.00	-58.171	-58.323	
128.00	-57.356	-41.564	
129.00	-56.679	-25.180	
130.00	-56.518	-13.834	
131.00	-56.690	6.154	
132.00	-56.575	22.672	
133.00	-56.414	38.023	
134.00	-56.256	54.515	
135.00	-55.960	71.005	
136.00	-55.579	84.378	
137.00	-55.830	104.824	
138.00	-55.110	118.598	
139.00	-55.554	132.485	
140.00	-55.687	152.138	
141.00	-55.647	164.574	
142.00	-55.580	176.236	
143.00	-55.726	-167.178	
144.00	-56.201	-156.876	
145.00	-56.064	-142.139	
146.00	-56.947	-134.584	
147.00	-57.389	-117.560	
148.00	-57.753	-110.572	
149.00	-58.304	-97.568	
150.00	-60.368	-82.967	
151.00	-61.298	-75.940	
152.00	-63.113	-64.680	
153.00	-65.376	-52.114	
154.00	-68.063	-40.949	
155.00	-72.509	-31.620	
156.00	-80.711	14.630	
157.00	-87.618	97.459	
158.00	-78.329	177.534	
159.00	-70.450	178.291	
160.00	-65.105	-166.623	
161.00	-64.493	-156.562	
162.00	-62.384	-158.905	
163.00	-61.034	-152.418	
164.00	-60.052	-149.987	
165.00	-58.203	-145.183	
166.00	-57.456	-139.675	
167.00	-56.587	-138.618	
168.00	-56.644	-133.132	
169.00	-55.913	-130.450	
170.00	-55.787	-124.778	
171.00	-55.694	-124.482	
172.00	-55.323	-123.931	
173.00	-54.938	-121.269	
174.00	-54.952	-120.587	
175.00	-54.536	-120.574	
176.00	-54.409	-117.974	
177.00	-54.405	-118.771	
178.00	-54.422	-121.434	
179.00	-54.205	-123.591	
180.00	-54.518	-125.182	
181.00	-54.300	-128.775	
182.00	-54.271	-130.184	
183.00	-54.805	-132.605	
184.00	-54.971	-138.806	
185.00	-55.035	-141.911	
186.00	-55.892	-148.107	
187.00	-56.368	-155.605	
188.00	-56.741	-162.906	
189.00	-57.065	-170.959	
190.00	-57.552	179.245	
191.00	-57.709	166.532	
192.00	-58.509	153.481	
193.00	-59.300	146.477	
194.00	-59.718	127.038	
195.00	-59.370	112.126	
196.00	-60.483	97.459	
197.00	-59.125	84.064	
198.00	-59.118	69.734	
199.00	-58.110	57.396	
200.00	-58.140	41.981	
201.00	-57.884	30.592	
202.00	-57.347	18.487	
203.00	-56.551	5.551	
204.00	-56.810	-7.358	
205.00	-56.852	-21.473	
206.00	-56.533	-34.157	
207.00	-56.801	-51.487	
208.00	-56.714	-60.486	
209.00	-56.557	-76.646	
210.00	-56.610	-92.021	
211.00	-56.527	-110.433	
212.00	-56.802	-129.630	
213.00	-56.912	-145.609	
214.00	-56.873	-165.469	
215.00	-57.773	-178.496	
216.00	-56.873	159.309	
217.00	-56.527	145.310	
218.00	-56.418	125.739	
219.00	-55.968	107.455	
220.00	-55.648	86.982	
221.00	-55.731	68.110	
222.00	-55.320	48.510	
223.00	-54.941	28.732	
224.00	-54.704	10.391	
225.00	-54.362	-7.462	
226.00	-54.562	-26.696	
227.00	-54.423	-46.753	
228.00	-54.227	-65.686	
229.00	-54.260	-85.912	
230.00	-53.776	-107.662	
231.00	-53.551	-126.454	
232.00	-53.063	-148.093	
233.00	-53.054	-167.413	
234.00	-52.496	170.864	
235.00	-52.593	152.787	
236.00	-52.179	128.491	
237.00	-51.846	111.571	
238.00	-51.629	87.782	
239.00	-51.738	67.374	
240.00	-51.561	46.243	
241.00	-51.493	25.822	
242.00	-51.359	4.035	
243.00	-51.372	-17.366	
244.00	-51.327	-39.842	
245.00	-51.047	-60.849	
246.00	-51.141	-82.168	
247.00	-50.993	-107.942	
248.00	-50.907	-126.710	
249.00	-50.996	-151.147	
250.00	-50.928	-172.666	
251.00	-50.920	162.565	
252.00	-51.087	141.280	
253.00	-51.194	116.565	
254.00	-51.531	96.374	
255.00	-51.348	71.052	
256.00	-51.525	46.855	
257.00	-51.799	21.558	
258.00	-51.807	-3.736	
259.00	-51.902	-30.314	
260.00	-52.232	-51.674	
261.00	-52.178	-78.864	
262.00	-51.950	-103.251	
263.00	-52.115	-125.278	
264.00	-52.343	-149.866	
265.00	-52.332	-172.615	
266.00	-52.558	162.236	
267.00	-52.805	137.528	
268.00	-52.852	110.636	
269.00	-53.065	85.449	
270.00	-53.350	61.402	
271.00	-53.735	38.100	
272.00	-53.979	12.804	
273.00	-54.299	-16.534	
274.00	-54.273	-42.779	
275.00	-54.816	-68.605	
276.00	-54.848	-92.106	
277.00	-54.657	-120.978	
278.00	-55.073	-147.566	
279.00	-55.137	-176.388	
280.00	-55.106	159.392	
281.00	-55.148	135.301	
282.00	-54.954	106.192	
283.00	-55.637	81.784	
284.00	-55.829	60.703	
285.00	-55.834	32.491	
286.00	-55.431	9.148	
287.00	-55.730	-17.732	
288.00	-56.036	-42.199	
289.00	-56.002	-65.378	
290.00	-56.344	-87.657	
291.00	-57.207	-111.291	
292.00	-57.085	-139.092	
293.00	-57.527	-163.357	
294.00	-58.058	178.268	
295.00	-58.657	150.268	
296.00	-59.413	122.141	
297.00	-59.819	102.559	
298.00	-60.695	69.317	
299.00	-60.357	52.298	
300.00	-61.761	13.032	
301.00	-60.842	-5.049	
302.00	-63.629	-34.845	
303.00	-63.044	-52.056	
304.00	-65.119	-84.292	
305.00	-65.353	-108.110	
306.00	-65.086	-134.514	
307.00	-65.046	-155.434	
308.00	-66.104	161.956	
309.00	-66.156	144.579	
310.00	-67.401	117.188	
311.00	-66.912	87.198	
312.00	-66.627	54.227	
313.00	-65.599	39.976	
314.00	-64.825	-0.363	
315.00	-65.304	-23.978	
316.00	-64.538	-50.416	
317.00	-63.663	-73.000	
318.00	-63.009	-83.187	
319.00	-63.004	-113.893	
320.00	-62.800	-122.985	
321.00	-63.122	-138.989	
322.00	-63.404	-164.441	
323.00	-63.257	-175.232	
324.00	-62.973	163.753	
325.00	-64.942	147.360	
326.00	-65.234	111.294	
327.00	-66.941	116.945	
328.00	-67.264	93.103	
329.00	-69.488	67.789	
330.00	-71.431	50.060	
331.00	-72.422	20.628	
332.00	-69.699	-31.128	
333.00	-72.668	-14.764	
334.00	-71.546	-41.085	
335.00	-71.096	-84.112	
336.00	-69.135	-86.368	
337.00	-70.293	-98.970	
338.00	-72.644	-119.377	
339.00	-71.242	-136.634	
340.00	-70.492	-156.966	
341.00	-71.750	168.072	
342.00	-71.345	167.282	
343.00	-71.069	144.693	
344.00	-71.310	92.842	
345.00	-72.276	91.091	
346.00	-72.010	72.479	
347.00	-68.486	74.163	
348.00	-67.689	41.785	
349.00	-67.484	46.708	
350.00	-65.814	31.672	
351.00	-67.037	27.262	
352.00	-66.056	19.745	
353.00	-64.757	22.969	
354.00	-67.437	12.151	
355.00	-66.235	12.684	
356.00	-66.644	15.272	
357.00	-69.097	25.471	
358.00	-72.440	19.698	
359.00	-70.885	37.451	
Frequency	3625.00	MHz	
Channel	test		
Scan Axis name	Azimuth  [deg]		
Scan Axis	Amplitude	Phase	
			
0.00	-65.511	-139.465	
1.00	-66.680	-137.069	
2.00	-70.438	-126.266	
3.00	-73.056	-132.495	
4.00	-83.834	-111.238	
5.00	-82.633	-15.321	
6.00	-76.868	53.973	
7.00	-73.233	65.501	
8.00	-71.975	69.925	
9.00	-70.370	76.797	
10.00	-67.942	77.071	
11.00	-68.116	83.505	
12.00	-67.610	93.886	
13.00	-68.393	107.742	
14.00	-68.831	122.552	
15.00	-70.641	136.945	
16.00	-70.564	132.811	
17.00	-74.391	165.752	
18.00	-71.333	-162.255	
19.00	-73.573	-138.033	
20.00	-71.669	-107.727	
21.00	-68.782	-90.366	
22.00	-66.904	-74.590	
23.00	-65.729	-60.354	
24.00	-64.470	-43.776	
25.00	-64.690	-30.209	
26.00	-63.946	-17.874	
27.00	-63.675	-2.610	
28.00	-63.982	5.404	
29.00	-63.460	16.233	
30.00	-63.767	17.962	
31.00	-64.565	30.719	
32.00	-64.193	37.698	
33.00	-65.592	38.213	
34.00	-65.260	49.587	
35.00	-64.923	42.464	
36.00	-63.540	49.009	
37.00	-63.135	59.608	
38.00	-61.561	66.270	
39.00	-61.059	82.253	
40.00	-60.058	88.776	
41.00	-59.541	108.681	
42.00	-58.792	116.325	
43.00	-58.384	133.833	
44.00	-58.110	150.929	
45.00	-57.567	164.687	
46.00	-57.548	-178.189	
47.00	-57.470	-154.217	
48.00	-58.033	-135.753	
49.00	-57.376	-113.693	
50.00	-57.568	-88.663	
51.00	-57.435	-67.171	
52.00	-56.945	-46.634	
53.00	-56.322	-22.094	
54.00	-56.035	2.051	
55.00	-55.545	23.970	
56.00	-54.984	43.914	
57.00	-54.798	69.903	
58.00	-54.202	89.947	
59.00	-54.102	110.924	
60.00	-53.907	134.381	
61.00	-54.112	156.771	
62.00	-53.918	179.485	
63.00	-53.518	-155.418	
64.00	-53.553	-134.323	
65.00	-53.779	-112.836	
66.00	-53.972	-88.642	
67.00	-54.245	-61.088	
68.00	-54.397	-38.282	
69.00	-54.745	-10.844	
70.00	-54.935	10.908	
71.00	-54.814	37.660	
72.00	-54.882	59.124	
73.00	-55.324	89.195	
74.00	-55.070	113.455	
75.00	-54.938	137.546	
76.00	-55.488	165.063	
77.00	-55.313	-168.844	
78.00	-55.320	-145.645	
79.00	-56.032	-118.253	
80.00	-56.663	-92.114	
81.00	-56.408	-61.925	
82.00	-56.676	-36.290	
83.00	-56.542	-10.585	
84.00	-56.627	15.871	
85.00	-56.386	46.254	
86.00	-56.030	72.828	
87.00	-56.036	101.762	
88.00	-55.924	124.519	
89.00	-55.613	151.973	
90.00	-55.353	176.354	
91.00	-55.081	-157.826	
92.00	-55.356	-132.150	
93.00	-54.969	-110.725	
94.00	-55.175	-85.485	
95.00	-55.110	-64.225	
96.00	-55.058	-38.421	
97.00	-55.128	-12.040	
98.00	-55.164	11.878	
99.00	-54.967	31.553	
100.00	-54.657	57.040	
101.00	-54.656	78.222	
102.00	-54.576	102.499	
103.00	-54.346	123.839	
104.00	-54.280	141.826	
105.00	-54.284	159.678	
106.00	-54.236	-178.364	
107.00	-54.354	-157.470	
108.00	-54.566	-142.345	
109.00	-54.710	-118.336	
110.00	-54.952	-99.517	
111.00	-55.077	-81.145	
112.00	-55.442	-63.647	
113.00	-55.500	-47.812	
114.00	-55.579	-31.962	
115.00	-55.874	-9.537	
116.00	-55.882	5.271	
117.00	-55.683	23.661	
118.00	-55.380	43.495	
119.00	-55.878	60.430	
120.00	-55.154	76.705	
121.00	-54.741	94.561	
122.00	-54.345	112.049	
123.00	-53.993	129.068	
124.00	-53.499	145.977	
125.00	-53.018	160.338	
126.00	-52.658	173.462	
127.00	-52.321	-171.470	
128.00	-52.253	-153.520	
129.00	-52.045	-140.767	
130.00	-51.940	-123.978	
131.00	-51.833	-108.630	
132.00	-52.205	-92.727	
133.00	-51.860	-74.193	
134.00	-52.086	-58.044	
135.00	-51.931	-40.968	
136.00	-51.775	-25.371	
137.00	-51.980	-5.845	
138.00	-51.673	6.930	
139.00	-51.281	23.474	
140.00	-51.324	35.315	
141.00	-51.633	50.368	
142.00	-52.149	62.930	
143.00	-52.423	76.404	
144.00	-52.581	86.608	
145.00	-53.404	101.063	
146.00	-54.049	112.023	
147.00	-54.838	122.883	
148.00	-55.856	135.207	
149.00	-56.924	147.606	
150.00	-58.430	162.658	
151.00	-59.096	169.355	
152.00	-61.938	-174.421	
153.00	-64.513	-163.906	
154.00	-66.863	-159.473	
155.00	-76.357	-150.878	
156.00	-77.143	84.693	
157.00	-68.767	74.955	
158.00	-64.872	75.737	
159.00	-61.744	83.150	
160.00	-59.218	89.460	
161.00	-58.090	91.730	
162.00	-56.332	98.446	
163.00	-55.545	103.216	
164.00	-55.309	105.095	
165.00	-54.080	112.896	
166.00	-53.689	115.400	
167.00	-53.440	116.935	
168.00	-52.999	121.166	
169.00	-53.043	126.527	
170.00	-53.134	127.863	
171.00	-52.923	131.322	
172.00	-52.811	132.424	
173.00	-52.755	133.339	
174.00	-52.993	133.756	
175.00	-52.561	134.315	
176.00	-52.709	131.052	
177.00	-53.162	127.444	
178.00	-53.266	126.077	
179.00	-53.028	121.509	
180.00	-53.473	116.153	
181.00	-53.555	111.475	
182.00	-53.574	101.222	
183.00	-53.750	97.821	
184.00	-53.891	89.131	
185.00	-53.970	81.864	
186.00	-54.084	74.264	
187.00	-53.844	65.997	
188.00	-53.950	55.139	
189.00	-53.905	47.481	
190.00	-53.658	38.945	
191.00	-53.424	28.966	
192.00	-53.504	17.241	
193.00	-53.349	8.190	
194.00	-53.013	-2.338	
195.00	-52.956	-14.368	
196.00	-52.425	-25.481	
197.00	-52.619	-35.711	
198.00	-51.936	-46.395	
199.00	-51.978	-59.967	
200.00	-51.811	-72.341	
201.00	-51.501	-81.816	
202.00	-51.274	-96.338	
203.00	-51.289	-106.151	
204.00	-51.202	-119.011	
205.00	-51.109	-131.672	
206.00	-51.291	-143.282	
207.00	-51.156	-157.862	
208.00	-51.412	-170.044	
209.00	-51.507	173.466	
210.00	-51.984	160.600	
211.00	-52.236	142.577	
212.00	-52.504	126.185	
213.00	-52.938	109.317	
214.00	-53.481	90.445	
215.00	-53.618	73.258	
216.00	-53.727	54.646	
217.00	-53.907	35.361	
218.00	-54.025	14.586	
219.00	-53.993	-3.731	
220.00	-54.041	-24.000	
221.00	-54.082	-44.010	
222.00	-53.771	-67.251	
223.00	-53.657	-84.374	
224.00	-53.496	-103.787	
225.00	-53.453	-127.258	
226.00	-52.720	-144.917	
227.00	-52.725	-167.604	
228.00	-52.514	172.603	
229.00	-51.994	151.113	
230.00	-51.719	131.239	
231.00	-51.402	110.775	
232.00	-50.870	88.379	
233.00	-50.633	67.348	
234.00	-50.105	45.657	
235.00	-49.554	25.129	
236.00	-49.410	2.632	
237.00	-48.806	-16.408	
238.00	-48.515	-37.454	
239.00	-48.367	-57.159	
240.00	-48.094	-78.344	
241.00	-47.914	-98.628	
242.00	-47.780	-120.672	
243.00	-47.545	-141.438	
244.00	-47.447	-163.192	
245.00	-47.334	175.776	
246.00	-47.094	155.706	
247.00	-47.084	131.996	
248.00	-47.147	112.187	
249.00	-46.979	88.496	
250.00	-46.919	67.585	
251.00	-47.152	44.157	
252.00	-47.294	22.572	
253.00	-47.420	0.565	
254.00	-47.431	-24.613	
255.00	-47.928	-48.795	
256.00	-47.886	-71.676	
257.00	-48.222	-96.977	
258.00	-48.139	-121.211	
259.00	-48.189	-148.393	
260.00	-48.420	-171.055	
261.00	-48.281	162.698	
262.00	-48.318	137.747	
263.00	-48.474	115.285	
264.00	-48.524	91.531	
265.00	-48.445	66.255	
266.00	-48.716	42.410	
267.00	-49.019	17.937	
268.00	-49.323	-6.938	
269.00	-49.332	-30.901	
270.00	-49.581	-56.679	
271.00	-49.944	-82.519	
272.00	-50.308	-109.939	
273.00	-50.294	-133.970	
274.00	-50.321	-160.250	
275.00	-50.716	174.032	
276.00	-50.988	148.153	
277.00	-51.229	120.641	
278.00	-51.176	94.417	
279.00	-51.493	68.125	
280.00	-51.569	44.069	
281.00	-51.751	14.484	
282.00	-51.525	-9.489	
283.00	-51.655	-36.522	
284.00	-51.660	-58.469	
285.00	-51.808	-85.506	
286.00	-52.000	-109.267	
287.00	-52.159	-133.284	
288.00	-52.311	-156.430	
289.00	-52.723	178.082	
290.00	-53.160	155.453	
291.00	-53.537	130.371	
292.00	-53.868	104.083	
293.00	-54.066	80.229	
294.00	-54.412	55.049	
295.00	-54.886	33.008	
296.00	-55.139	4.740	
297.00	-55.892	-20.235	
298.00	-56.376	-40.882	
299.00	-57.073	-63.561	
300.00	-57.598	-90.267	
301.00	-57.931	-109.887	
302.00	-58.612	-137.017	
303.00	-58.967	-157.944	
304.00	-60.975	171.444	
305.00	-62.406	155.737	
306.00	-63.724	126.949	
307.00	-66.126	102.248	
308.00	-68.227	77.074	
309.00	-67.854	25.278	
310.00	-67.981	-12.541	
311.00	-67.446	-42.576	
312.00	-65.666	-71.926	
313.00	-64.591	-101.068	
314.00	-65.155	-125.497	
315.00	-65.243	-145.759	
316.00	-63.571	-176.812	
317.00	-63.280	159.539	
318.00	-62.751	134.523	
319.00	-62.755	113.993	
320.00	-61.126	93.934	
321.00	-61.811	79.834	
322.00	-61.255	57.540	
323.00	-61.025	42.070	
324.00	-61.649	24.666	
325.00	-61.999	10.081	
326.00	-62.198	-7.805	
327.00	-63.250	-25.989	
328.00	-64.678	-46.626	
329.00	-65.789	-67.941	
330.00	-68.602	-80.661	
331.00	-69.323	-102.853	
332.00	-70.977	-130.704	
333.00	-69.235	-176.931	
334.00	-68.644	149.826	
335.00	-68.523	131.154	
336.00	-66.936	115.812	
337.00	-65.691	100.391	
338.00	-65.524	101.837	
339.00	-67.273	79.041	
340.00	-67.136	73.799	
341.00	-67.898	49.829	
342.00	-68.409	36.045	
343.00	-70.208	33.921	
344.00	-76.021	-1.755	
345.00	-73.073	-38.622	
346.00	-72.361	-82.234	
347.00	-70.240	-101.628	
348.00	-66.347	-114.950	
349.00	-64.106	-119.489	
350.00	-62.585	-125.967	
351.00	-61.125	-120.287	
352.00	-60.982	-133.437	
353.00	-60.178	-133.613	
354.00	-60.001	-136.278	
355.00	-60.506	-136.990	
356.00	-60.673	-139.158	
357.00	-61.117	-134.140	
358.00	-62.188	-138.642	
359.00	-62.912	-127.290	
Frequency	3650.00	MHz	
Channel	test		
Scan Axis name	Azimuth  [deg]		
Scan Axis	Amplitude	Phase	
			
0.00	-67.473	64.466	
1.00	-69.484	62.775	
2.00	-71.613	50.161	
3.00	-70.960	41.888	
4.00	-68.043	45.181	
5.00	-76.207	-111.333	
6.00	-68.470	61.660	
7.00	-72.726	-70.015	
8.00	-81.691	29.554	
9.00	-72.747	-74.349	
10.00	-67.463	0.391	
11.00	-71.064	-0.937	
12.00	-65.843	11.432	
13.00	-69.923	0.567	
14.00	-71.095	7.336	
15.00	-69.082	70.181	
16.00	-72.359	68.706	
17.00	-70.166	91.855	
18.00	-71.756	46.837	
19.00	-70.019	103.742	
20.00	-71.251	146.602	
21.00	-68.378	108.382	
22.00	-71.083	90.685	
23.00	-66.084	143.848	
24.00	-65.210	146.732	
25.00	-74.331	83.503	
26.00	-71.876	165.854	
27.00	-67.712	153.022	
28.00	-67.770	-156.674	
29.00	-67.147	178.270	
30.00	-66.128	-153.936	
31.00	-65.687	-134.607	
32.00	-65.633	169.536	
33.00	-66.370	-128.498	
34.00	-64.388	-135.412	
35.00	-63.196	-125.074	
36.00	-69.132	-113.966	
37.00	-59.914	-105.564	
38.00	-62.673	-72.668	
39.00	-60.210	-68.024	
40.00	-58.997	-50.979	
41.00	-58.011	-38.726	
42.00	-59.437	-25.128	
43.00	-59.687	6.248	
44.00	-59.188	11.326	
45.00	-58.447	44.596	
46.00	-57.231	48.334	
47.00	-56.876	70.516	
48.00	-59.896	93.870	
49.00	-57.072	122.889	
50.00	-58.579	134.213	
51.00	-57.777	152.586	
52.00	-57.299	-178.851	
53.00	-57.879	-157.108	
54.00	-56.661	-135.212	
55.00	-57.874	-110.035	
56.00	-57.271	-92.750	
57.00	-57.331	-59.706	
58.00	-57.054	-45.439	
59.00	-55.699	-26.353	
60.00	-56.815	0.625	
61.00	-56.500	22.445	
62.00	-57.436	42.756	
63.00	-58.339	80.327	
64.00	-58.421	97.682	
65.00	-57.319	127.553	
66.00	-58.780	154.482	
67.00	-56.340	176.219	
68.00	-56.771	-152.125	
69.00	-57.015	-123.626	
70.00	-57.579	-117.561	
71.00	-58.324	-71.984	
72.00	-59.660	-52.197	
73.00	-58.632	-33.995	
74.00	-57.110	1.344	
75.00	-58.698	16.146	
76.00	-59.513	46.455	
77.00	-58.068	68.164	
78.00	-58.857	87.820	
79.00	-58.471	123.404	
80.00	-59.922	149.020	
81.00	-59.597	175.526	
82.00	-58.919	-161.383	
83.00	-59.195	-137.199	
84.00	-59.704	-102.243	
85.00	-59.681	-55.527	
86.00	-57.989	-40.059	
87.00	-58.322	-12.696	
88.00	-59.135	-0.779	
89.00	-57.226	26.233	
90.00	-58.071	52.633	
91.00	-57.719	77.257	
92.00	-57.774	110.823	
93.00	-57.931	126.651	
94.00	-59.472	141.308	
95.00	-58.773	-177.286	
96.00	-58.834	-170.959	
97.00	-58.498	-133.773	
98.00	-59.566	-114.079	
99.00	-58.910	-87.158	
100.00	-57.856	-63.378	
101.00	-59.879	-51.487	
102.00	-58.181	-26.156	
103.00	-58.035	-10.543	
104.00	-56.954	4.391	
105.00	-59.139	35.788	
106.00	-58.740	44.793	
107.00	-60.741	62.866	
108.00	-58.467	66.000	
109.00	-58.376	87.560	
110.00	-60.265	121.706	
111.00	-60.374	132.029	
112.00	-58.940	132.058	
113.00	-63.312	172.985	
114.00	-60.976	178.253	
115.00	-64.297	-163.500	
116.00	-61.650	-143.816	
117.00	-63.104	-99.129	
118.00	-61.180	-85.908	
119.00	-60.714	-90.641	
120.00	-59.805	-54.699	
121.00	-58.600	-38.048	
122.00	-57.796	-18.820	
123.00	-56.847	-11.996	
124.00	-55.292	9.377	
125.00	-55.534	26.750	
126.00	-56.458	36.019	
127.00	-55.506	53.150	
128.00	-54.351	72.240	
129.00	-55.118	86.825	
130.00	-54.732	105.840	
131.00	-54.652	129.997	
132.00	-55.155	148.879	
133.00	-54.300	155.060	
134.00	-54.030	179.529	
135.00	-54.909	-168.206	
136.00	-53.254	-148.009	
137.00	-53.940	-137.417	
138.00	-53.416	-120.291	
139.00	-54.052	-106.111	
140.00	-52.860	-90.829	
141.00	-53.536	-75.950	
142.00	-54.236	-64.154	
143.00	-54.327	-58.705	
144.00	-54.264	-43.934	
145.00	-56.245	-24.445	
146.00	-56.009	-17.917	
147.00	-55.896	-5.083	
148.00	-59.740	1.608	
149.00	-58.434	14.770	
150.00	-60.486	14.945	
151.00	-62.762	30.117	
152.00	-61.946	29.537	
153.00	-66.425	14.450	
154.00	-64.051	21.913	
155.00	-64.529	-5.334	
156.00	-64.115	-22.611	
157.00	-64.745	-21.063	
158.00	-62.522	-19.831	
159.00	-59.862	-24.263	
160.00	-57.783	-21.473	
161.00	-55.565	-13.706	
162.00	-55.536	-20.545	
163.00	-54.055	-13.123	
164.00	-55.120	-22.642	
165.00	-53.241	-8.462	
166.00	-54.016	-8.076	
167.00	-52.164	-0.507	
168.00	-52.832	5.662	
169.00	-53.393	5.265	
170.00	-52.104	3.045	
171.00	-52.573	3.508	
172.00	-51.862	7.590	
173.00	-51.901	10.569	
174.00	-51.921	9.324	
175.00	-52.364	0.380	
176.00	-51.719	1.785	
177.00	-52.001	-4.667	
178.00	-52.496	-6.419	
179.00	-52.253	-12.149	
180.00	-52.245	-17.668	
181.00	-53.198	-14.477	
182.00	-52.009	-29.894	
183.00	-52.272	-31.549	
184.00	-52.577	-42.030	
185.00	-51.943	-43.638	
186.00	-52.158	-46.001	
187.00	-52.296	-57.515	
188.00	-52.298	-61.159	
189.00	-52.912	-65.545	
190.00	-52.768	-84.120	
191.00	-53.339	-91.088	
192.00	-53.718	-99.555	
193.00	-54.311	-96.824	
194.00	-53.395	-114.401	
195.00	-54.289	-122.748	
196.00	-54.764	-135.686	
197.00	-54.937	-147.875	
198.00	-55.285	-160.471	
199.00	-54.780	-167.207	
200.00	-56.504	176.284	
201.00	-55.038	154.182	
202.00	-56.272	146.026	
203.00	-57.755	137.647	
204.00	-56.499	116.744	
205.00	-57.703	99.901	
206.00	-58.274	78.237	
207.00	-56.369	76.098	
208.00	-55.715	58.505	
209.00	-59.086	32.623	
210.00	-57.628	6.972	
211.00	-57.349	-0.113	
212.00	-57.906	-10.233	
213.00	-59.841	-33.143	
214.00	-57.959	-50.382	
215.00	-58.759	-64.149	
216.00	-56.522	-84.314	
217.00	-58.531	-119.702	
218.00	-59.065	-134.792	
219.00	-57.905	-145.952	
220.00	-57.327	-160.248	
221.00	-58.091	175.332	
222.00	-56.853	161.658	
223.00	-56.814	154.975	
224.00	-56.344	132.560	
225.00	-57.036	110.519	
226.00	-55.564	92.530	
227.00	-55.924	73.269	
228.00	-55.233	51.506	
229.00	-53.871	34.479	
230.00	-54.201	12.057	
231.00	-54.810	0.714	
232.00	-53.524	-18.836	
233.00	-54.177	-43.657	
234.00	-52.068	-67.860	
235.00	-53.188	-82.880	
236.00	-52.610	-117.782	
237.00	-51.430	-127.942	
238.00	-50.589	-148.406	
239.00	-51.265	-168.173	
240.00	-51.634	168.275	
241.00	-50.743	152.300	
242.00	-50.818	123.609	
243.00	-50.204	110.739	
244.00	-50.371	87.181	
245.00	-50.793	63.994	
246.00	-50.798	40.687	
247.00	-49.918	21.499	
248.00	-50.979	-1.248	
249.00	-49.595	-21.952	
250.00	-50.305	-42.563	
251.00	-50.298	-68.162	
252.00	-50.193	-89.231	
253.00	-50.518	-113.799	
254.00	-50.706	-137.738	
255.00	-50.484	-159.018	
256.00	-50.996	175.038	
257.00	-50.962	151.726	
258.00	-50.846	125.053	
259.00	-51.682	102.936	
260.00	-52.249	74.805	
261.00	-51.842	48.667	
262.00	-51.218	26.142	
263.00	-52.372	-1.135	
264.00	-52.178	-22.115	
265.00	-52.529	-54.407	
266.00	-53.362	-70.260	
267.00	-53.379	-102.526	
268.00	-52.266	-118.121	
269.00	-52.502	-149.013	
270.00	-54.209	-177.667	
271.00	-53.370	156.840	
272.00	-52.933	133.540	
273.00	-53.853	106.586	
274.00	-52.621	80.333	
275.00	-54.050	53.627	
276.00	-55.309	31.537	
277.00	-54.073	12.913	
278.00	-55.328	-24.517	
279.00	-54.545	-41.565	
280.00	-54.489	-66.447	
281.00	-55.267	-104.174	
282.00	-55.580	-127.890	
283.00	-55.319	-155.483	
284.00	-55.965	-175.781	
285.00	-55.845	149.075	
286.00	-57.553	125.528	
287.00	-56.491	104.557	
288.00	-56.628	73.619	
289.00	-56.282	49.075	
290.00	-56.344	35.036	
291.00	-57.238	-1.175	
292.00	-56.080	-24.674	
293.00	-58.510	-52.507	
294.00	-58.414	-66.503	
295.00	-58.628	-97.787	
296.00	-60.152	-116.616	
297.00	-59.026	-153.623	
298.00	-59.438	-161.245	
299.00	-59.484	160.057	
300.00	-60.220	150.747	
301.00	-59.560	122.803	
302.00	-62.712	101.411	
303.00	-62.032	61.121	
304.00	-64.418	45.365	
305.00	-62.581	23.445	
306.00	-64.924	-10.469	
307.00	-69.944	-14.894	
308.00	-64.534	-38.361	
309.00	-74.340	-36.846	
310.00	-74.126	-109.283	
311.00	-68.469	-146.253	
312.00	-69.929	-150.089	
313.00	-72.907	-157.669	
314.00	-73.604	149.297	
315.00	-66.543	137.600	
316.00	-76.799	75.106	
317.00	-82.996	-16.559	
318.00	-69.753	21.241	
319.00	-71.410	7.113	
320.00	-70.732	-39.202	
321.00	-69.518	-106.428	
322.00	-69.346	-115.933	
323.00	-68.606	-93.767	
324.00	-74.038	-157.463	
325.00	-66.830	174.763	
326.00	-76.795	169.044	
327.00	-72.031	124.362	
328.00	-69.210	126.510	
329.00	-66.002	111.889	
330.00	-63.665	121.430	
331.00	-63.747	111.179	
332.00	-68.753	42.380	
333.00	-74.082	33.037	
334.00	-67.958	-12.822	
335.00	-80.937	47.292	
336.00	-78.842	62.229	
337.00	-66.034	-20.401	
338.00	-73.444	-21.198	
339.00	-69.733	-88.652	
340.00	-70.268	-165.739	
341.00	-67.780	-89.657	
342.00	-84.819	157.365	
343.00	-75.271	-108.045	
344.00	-69.299	-116.616	
345.00	-68.949	126.804	
346.00	-76.277	136.123	
347.00	-72.002	132.945	
348.00	-67.254	154.060	
349.00	-69.524	130.541	
350.00	-66.777	92.150	
351.00	-65.734	82.864	
352.00	-67.431	102.917	
353.00	-66.190	92.418	
354.00	-68.727	60.471	
355.00	-67.280	90.442	
356.00	-64.402	78.382	
357.00	-63.957	56.541	
358.00	-70.666	76.142	
359.00	-66.436	64.996	
Frequency	3675.00	MHz	
Channel	test		
Scan Axis name	Azimuth  [deg]		
Scan Axis	Amplitude	Phase	
			
0.00	-72.227	-42.962	
1.00	-74.693	-49.124	
2.00	-77.153	-34.547	
3.00	-84.580	-85.039	
4.00	-80.354	179.260	
5.00	-79.680	178.576	
6.00	-76.421	166.062	
7.00	-71.502	-171.485	
8.00	-71.308	-169.614	
9.00	-67.839	-169.217	
10.00	-67.507	-157.460	
11.00	-68.048	-151.413	
12.00	-68.496	-144.580	
13.00	-67.217	-139.200	
14.00	-67.076	-130.485	
15.00	-67.128	-117.643	
16.00	-68.272	-117.712	
17.00	-70.459	-105.305	
18.00	-69.971	-88.046	
19.00	-68.747	-55.395	
20.00	-70.991	-42.161	
21.00	-69.204	-24.622	
22.00	-70.730	-17.595	
23.00	-69.480	0.610	
24.00	-68.815	16.379	
25.00	-68.724	11.999	
26.00	-69.171	30.278	
27.00	-68.657	27.377	
28.00	-68.167	37.673	
29.00	-69.402	41.776	
30.00	-67.450	52.210	
31.00	-65.978	64.668	
32.00	-64.853	60.788	
33.00	-62.984	76.688	
34.00	-62.232	87.504	
35.00	-62.252	93.000	
36.00	-61.928	106.878	
37.00	-60.519	121.681	
38.00	-59.366	138.102	
39.00	-59.263	151.418	
40.00	-59.526	168.413	
41.00	-58.577	-171.545	
42.00	-58.230	-157.929	
43.00	-58.714	-140.657	
44.00	-58.559	-118.370	
45.00	-58.233	-102.530	
46.00	-57.686	-78.305	
47.00	-58.041	-56.778	
48.00	-58.048	-32.009	
49.00	-58.082	-14.473	
50.00	-57.356	13.178	
51.00	-57.470	34.753	
52.00	-57.002	56.727	
53.00	-57.306	74.203	
54.00	-57.127	102.714	
55.00	-56.760	125.101	
56.00	-56.691	147.283	
57.00	-56.375	175.037	
58.00	-56.651	-161.237	
59.00	-56.207	-139.126	
60.00	-56.819	-117.091	
61.00	-55.920	-91.149	
62.00	-56.283	-67.903	
63.00	-56.390	-42.654	
64.00	-56.168	-16.053	
65.00	-56.406	7.625	
66.00	-56.800	32.463	
67.00	-56.428	57.258	
68.00	-56.315	84.084	
69.00	-56.753	113.102	
70.00	-56.581	130.697	
71.00	-56.889	162.568	
72.00	-56.928	-176.747	
73.00	-57.169	-148.671	
74.00	-57.087	-119.119	
75.00	-57.196	-93.960	
76.00	-57.325	-69.794	
77.00	-57.643	-44.017	
78.00	-57.705	-15.537	
79.00	-57.772	11.021	
80.00	-57.673	33.274	
81.00	-58.306	65.049	
82.00	-57.553	91.840	
83.00	-57.386	119.171	
84.00	-57.077	142.387	
85.00	-56.879	171.220	
86.00	-57.020	-162.138	
87.00	-56.556	-137.203	
88.00	-56.866	-114.417	
89.00	-56.608	-86.008	
90.00	-56.656	-64.615	
91.00	-56.324	-35.976	
92.00	-56.748	-10.214	
93.00	-56.760	14.032	
94.00	-56.740	39.809	
95.00	-57.067	62.337	
96.00	-56.637	87.755	
97.00	-56.879	114.651	
98.00	-56.464	133.005	
99.00	-56.382	157.492	
100.00	-56.206	178.689	
101.00	-56.506	-162.831	
102.00	-56.973	-138.426	
103.00	-56.714	-119.072	
104.00	-56.922	-100.275	
105.00	-57.756	-79.470	
106.00	-57.661	-61.397	
107.00	-58.540	-40.505	
108.00	-59.227	-21.490	
109.00	-60.163	5.965	
110.00	-59.510	25.985	
111.00	-60.375	43.646	
112.00	-60.394	63.967	
113.00	-60.317	78.467	
114.00	-61.225	97.033	
115.00	-61.071	118.044	
116.00	-61.374	132.670	
117.00	-60.996	150.314	
118.00	-60.584	172.789	
119.00	-60.128	-174.846	
120.00	-59.429	-160.490	
121.00	-58.435	-142.288	
122.00	-58.587	-124.783	
123.00	-57.860	-110.014	
124.00	-57.406	-96.145	
125.00	-56.851	-79.369	
126.00	-56.870	-59.883	
127.00	-56.195	-45.363	
128.00	-56.440	-30.896	
129.00	-55.583	-11.651	
130.00	-54.976	3.231	
131.00	-54.878	24.544	
132.00	-54.516	41.071	
133.00	-54.569	56.140	
134.00	-54.129	74.096	
135.00	-53.822	87.846	
136.00	-52.988	99.806	
137.00	-52.827	117.594	
138.00	-52.879	129.627	
139.00	-52.867	141.977	
140.00	-53.042	158.082	
141.00	-53.535	171.064	
142.00	-53.913	-178.471	
143.00	-54.197	-161.935	
144.00	-54.738	-150.891	
145.00	-54.796	-136.475	
146.00	-56.000	-124.413	
147.00	-56.593	-113.346	
148.00	-57.001	-101.307	
149.00	-57.496	-90.259	
150.00	-58.427	-80.716	
151.00	-59.355	-79.035	
152.00	-61.190	-71.577	
153.00	-62.542	-71.847	
154.00	-64.365	-78.195	
155.00	-65.311	-85.097	
156.00	-65.010	-103.400	
157.00	-64.301	-123.720	
158.00	-61.743	-132.829	
159.00	-60.400	-134.928	
160.00	-58.926	-134.616	
161.00	-57.958	-128.388	
162.00	-56.669	-124.174	
163.00	-55.632	-122.057	
164.00	-55.145	-121.040	
165.00	-54.714	-111.983	
166.00	-54.489	-113.315	
167.00	-53.473	-110.331	
168.00	-53.547	-108.507	
169.00	-53.418	-102.531	
170.00	-53.397	-105.617	
171.00	-52.917	-103.421	
172.00	-52.904	-102.992	
173.00	-52.990	-103.396	
174.00	-53.160	-105.539	
175.00	-53.258	-105.064	
176.00	-53.349	-105.656	
177.00	-53.497	-110.753	
178.00	-53.497	-111.712	
179.00	-53.664	-116.792	
180.00	-54.017	-121.832	
181.00	-54.223	-127.420	
182.00	-54.507	-131.140	
183.00	-54.288	-135.976	
184.00	-54.846	-143.596	
185.00	-54.666	-149.964	
186.00	-54.748	-158.039	
187.00	-54.707	-165.389	
188.00	-54.648	-175.939	
189.00	-54.994	176.024	
190.00	-54.582	168.356	
191.00	-54.870	159.293	
192.00	-54.358	149.714	
193.00	-54.416	139.707	
194.00	-54.383	130.581	
195.00	-54.004	120.718	
196.00	-54.314	110.593	
197.00	-53.903	100.767	
198.00	-53.983	90.591	
199.00	-53.864	79.271	
200.00	-54.020	69.259	
201.00	-53.914	56.547	
202.00	-54.158	44.383	
203.00	-53.803	31.516	
204.00	-53.922	21.129	
205.00	-54.246	9.666	
206.00	-54.543	-2.027	
207.00	-54.590	-17.624	
208.00	-54.628	-26.068	
209.00	-54.647	-37.822	
210.00	-55.335	-54.250	
211.00	-55.171	-71.324	
212.00	-55.228	-82.852	
213.00	-56.303	-98.249	
214.00	-56.328	-115.733	
215.00	-57.065	-133.284	
216.00	-57.586	-148.712	
217.00	-58.318	-170.397	
218.00	-58.074	170.898	
219.00	-58.666	153.798	
220.00	-58.969	126.192	
221.00	-58.676	107.019	
222.00	-58.162	78.252	
223.00	-57.827	59.993	
224.00	-57.360	39.931	
225.00	-56.929	17.476	
226.00	-56.680	-5.464	
227.00	-56.041	-23.462	
228.00	-55.567	-47.297	
229.00	-55.392	-67.608	
230.00	-54.666	-90.115	
231.00	-54.385	-107.332	
232.00	-53.940	-131.645	
233.00	-53.212	-150.912	
234.00	-52.880	-173.762	
235.00	-52.058	164.955	
236.00	-51.864	141.975	
237.00	-51.536	121.794	
238.00	-51.077	100.598	
239.00	-50.802	78.312	
240.00	-50.492	58.536	
241.00	-50.168	38.752	
242.00	-49.918	16.466	
243.00	-49.762	-3.495	
244.00	-49.689	-25.061	
245.00	-49.424	-46.512	
246.00	-49.319	-68.374	
247.00	-49.495	-92.148	
248.00	-49.467	-114.258	
249.00	-49.308	-136.619	
250.00	-49.502	-158.315	
251.00	-49.463	177.644	
252.00	-49.495	156.044	
253.00	-49.518	130.053	
254.00	-49.885	106.334	
255.00	-49.760	82.550	
256.00	-50.069	59.784	
257.00	-50.070	35.103	
258.00	-50.026	10.695	
259.00	-50.424	-17.774	
260.00	-50.512	-40.750	
261.00	-50.877	-64.422	
262.00	-50.749	-88.919	
263.00	-50.995	-114.656	
264.00	-50.788	-140.121	
265.00	-50.954	-166.326	
266.00	-51.046	169.812	
267.00	-51.379	142.683	
268.00	-51.414	118.033	
269.00	-51.513	94.287	
270.00	-51.856	66.883	
271.00	-52.151	40.817	
272.00	-52.285	14.462	
273.00	-52.374	-10.846	
274.00	-52.590	-38.031	
275.00	-52.827	-64.607	
276.00	-53.055	-88.560	
277.00	-53.133	-115.907	
278.00	-53.202	-140.030	
279.00	-53.592	-167.353	
280.00	-53.695	166.367	
281.00	-54.033	139.455	
282.00	-53.984	114.985	
283.00	-54.266	89.252	
284.00	-54.364	65.327	
285.00	-54.745	36.659	
286.00	-54.925	10.716	
287.00	-54.976	-14.017	
288.00	-55.687	-39.941	
289.00	-55.323	-66.819	
290.00	-55.969	-89.824	
291.00	-56.308	-114.723	
292.00	-56.497	-139.097	
293.00	-56.251	-166.533	
294.00	-56.934	167.628	
295.00	-57.372	143.935	
296.00	-57.500	118.298	
297.00	-57.814	96.247	
298.00	-58.209	69.488	
299.00	-59.256	47.286	
300.00	-58.969	23.083	
301.00	-60.240	-2.961	
302.00	-60.860	-25.589	
303.00	-60.986	-47.703	
304.00	-61.997	-71.195	
305.00	-62.645	-99.117	
306.00	-63.191	-123.106	
307.00	-63.592	-138.434	
308.00	-64.627	-168.349	
309.00	-65.697	171.090	
310.00	-65.972	144.211	
311.00	-67.310	117.369	
312.00	-67.752	81.814	
313.00	-68.804	63.309	
314.00	-68.474	32.679	
315.00	-69.921	20.149	
316.00	-68.414	-29.271	
317.00	-69.078	-50.929	
318.00	-68.666	-70.582	
319.00	-69.574	-102.806	
320.00	-71.796	-123.356	
321.00	-73.589	-141.546	
322.00	-80.359	-151.138	
323.00	-71.746	164.547	
324.00	-75.041	107.967	
325.00	-82.694	92.282	
326.00	-72.732	56.977	
327.00	-73.118	25.956	
328.00	-72.084	-3.743	
329.00	-73.227	3.251	
330.00	-69.324	-20.027	
331.00	-72.154	-46.514	
332.00	-72.247	-59.577	
333.00	-67.730	-72.525	
334.00	-74.925	-88.310	
335.00	-69.641	-87.559	
336.00	-70.735	-137.602	
337.00	-75.043	-154.327	
338.00	-72.475	-161.269	
339.00	-80.279	152.826	
340.00	-76.460	178.622	
341.00	-75.835	127.382	
342.00	-77.000	94.307	
343.00	-79.242	55.506	
344.00	-71.768	29.835	
345.00	-74.914	18.187	
346.00	-69.918	13.318	
347.00	-68.934	2.711	
348.00	-69.122	-4.123	
349.00	-66.109	-20.489	
350.00	-64.916	-14.068	
351.00	-66.034	-11.212	
352.00	-65.045	-28.761	
353.00	-65.573	-25.101	
354.00	-67.100	-24.462	
355.00	-67.657	-29.275	
356.00	-64.761	-36.604	
357.00	-66.842	-28.347	
358.00	-67.859	-37.132	
359.00	-68.496	-31.697	
Frequency	3700.00	MHz	
Channel	test		
Scan Axis name	Azimuth  [deg]		
Scan Axis	Amplitude	Phase	
			
0.00	-73.718	-171.565	
1.00	-79.776	-134.406	
2.00	-82.273	-152.006	
3.00	-83.024	129.867	
4.00	-82.759	6.671	
5.00	-83.154	64.817	
6.00	-76.581	68.851	
7.00	-72.648	63.815	
8.00	-72.787	73.096	
9.00	-72.379	84.328	
10.00	-68.485	70.935	
11.00	-69.876	86.170	
12.00	-70.688	82.152	
13.00	-70.186	87.600	
14.00	-70.615	119.943	
15.00	-70.560	119.459	
16.00	-71.760	118.011	
17.00	-72.127	131.185	
18.00	-72.914	162.415	
19.00	-75.038	178.213	
20.00	-78.517	-140.869	
21.00	-74.092	-177.569	
22.00	-75.610	-126.389	
23.00	-74.499	-127.067	
24.00	-76.915	-114.872	
25.00	-80.144	-115.893	
26.00	-78.500	-112.462	
27.00	-75.798	-96.708	
28.00	-74.699	-90.577	
29.00	-75.839	-89.117	
30.00	-73.070	-84.610	
31.00	-68.678	-69.167	
32.00	-69.202	-76.261	
33.00	-66.110	-49.197	
34.00	-65.373	-37.915	
35.00	-64.400	-27.407	
36.00	-63.607	-11.492	
37.00	-62.361	5.294	
38.00	-61.698	19.869	
39.00	-61.071	35.581	
40.00	-61.493	59.435	
41.00	-60.358	69.262	
42.00	-60.927	91.680	
43.00	-60.433	109.909	
44.00	-60.523	131.202	
45.00	-60.470	151.261	
46.00	-59.714	174.735	
47.00	-59.487	-161.542	
48.00	-59.789	-138.781	
49.00	-59.654	-119.821	
50.00	-59.648	-95.123	
51.00	-58.950	-73.683	
52.00	-59.181	-47.768	
53.00	-58.632	-26.011	
54.00	-58.643	-1.405	
55.00	-58.159	24.282	
56.00	-58.076	42.747	
57.00	-58.290	69.257	
58.00	-57.991	90.631	
59.00	-58.484	115.312	
60.00	-58.275	141.741	
61.00	-58.669	165.510	
62.00	-58.463	-169.986	
63.00	-58.338	-142.558	
64.00	-58.383	-118.355	
65.00	-58.568	-90.979	
66.00	-58.684	-66.766	
67.00	-58.822	-35.470	
68.00	-58.170	-7.586	
69.00	-57.738	17.719	
70.00	-58.289	40.217	
71.00	-57.836	65.937	
72.00	-57.773	88.314	
73.00	-57.705	114.756	
74.00	-57.759	142.732	
75.00	-57.303	165.493	
76.00	-58.357	-166.695	
77.00	-58.322	-138.915	
78.00	-58.293	-115.102	
79.00	-58.882	-80.002	
80.00	-58.637	-59.722	
81.00	-58.869	-28.177	
82.00	-59.098	-7.461	
83.00	-58.326	22.468	
84.00	-58.624	46.758	
85.00	-58.648	76.016	
86.00	-58.227	98.837	
87.00	-57.757	125.731	
88.00	-58.301	148.770	
89.00	-58.339	-178.525	
90.00	-58.206	-158.582	
91.00	-58.364	-130.224	
92.00	-58.209	-102.802	
93.00	-58.368	-81.913	
94.00	-58.597	-54.368	
95.00	-58.346	-29.917	
96.00	-58.219	-3.349	
97.00	-58.183	19.102	
98.00	-57.962	43.052	
99.00	-58.092	61.659	
100.00	-58.647	88.439	
101.00	-58.571	106.092	
102.00	-58.728	130.331	
103.00	-59.515	147.603	
104.00	-60.054	170.576	
105.00	-60.247	-168.494	
106.00	-60.929	-144.221	
107.00	-63.326	-126.677	
108.00	-62.218	-105.812	
109.00	-63.724	-78.248	
110.00	-62.985	-61.992	
111.00	-64.396	-30.253	
112.00	-64.257	-11.267	
113.00	-64.873	11.316	
114.00	-65.287	23.699	
115.00	-64.886	37.960	
116.00	-64.544	47.611	
117.00	-64.524	70.900	
118.00	-63.180	81.797	
119.00	-63.295	99.754	
120.00	-63.287	109.475	
121.00	-62.390	123.353	
122.00	-62.778	142.449	
123.00	-61.783	156.359	
124.00	-62.228	170.581	
125.00	-60.160	-171.347	
126.00	-60.818	-156.213	
127.00	-59.810	-138.982	
128.00	-59.879	-121.492	
129.00	-59.160	-104.612	
130.00	-58.647	-91.061	
131.00	-58.168	-71.913	
132.00	-58.363	-53.461	
133.00	-57.349	-39.535	
134.00	-56.616	-23.691	
135.00	-56.855	-10.130	
136.00	-56.240	2.790	
137.00	-56.226	16.661	
138.00	-56.412	30.635	
139.00	-56.308	42.868	
140.00	-56.656	58.815	
141.00	-56.864	72.190	
142.00	-57.520	87.080	
143.00	-57.942	100.860	
144.00	-58.286	116.935	
145.00	-59.027	129.230	
146.00	-59.562	140.992	
147.00	-59.289	152.828	
148.00	-61.070	167.414	
149.00	-61.925	175.225	
150.00	-62.475	-171.507	
151.00	-63.534	-164.606	
152.00	-65.443	-170.087	
153.00	-68.012	179.751	
154.00	-69.873	-176.046	
155.00	-72.340	144.760	
156.00	-71.351	129.722	
157.00	-66.533	103.306	
158.00	-65.022	101.729	
159.00	-64.233	111.053	
160.00	-61.777	112.156	
161.00	-60.543	111.816	
162.00	-59.119	114.604	
163.00	-58.427	126.666	
164.00	-57.664	126.019	
165.00	-56.905	132.734	
166.00	-56.844	134.182	
167.00	-56.299	140.031	
168.00	-55.931	139.015	
169.00	-55.569	144.041	
170.00	-55.549	144.879	
171.00	-55.535	145.151	
172.00	-55.390	145.567	
173.00	-55.784	143.467	
174.00	-55.408	146.250	
175.00	-55.672	143.594	
176.00	-56.094	141.250	
177.00	-56.174	138.776	
178.00	-56.316	138.610	
179.00	-56.571	132.280	
180.00	-56.739	129.664	
181.00	-57.085	122.479	
182.00	-57.139	117.680	
183.00	-57.168	113.905	
184.00	-57.420	106.487	
185.00	-57.634	96.927	
186.00	-57.745	89.344	
187.00	-57.333	82.363	
188.00	-57.340	73.093	
189.00	-57.526	67.594	
190.00	-57.805	58.568	
191.00	-57.454	46.870	
192.00	-56.962	37.989	
193.00	-57.171	28.161	
194.00	-56.614	16.791	
195.00	-56.994	10.801	
196.00	-56.786	-3.524	
197.00	-56.644	-12.683	
198.00	-56.909	-18.462	
199.00	-56.647	-29.871	
200.00	-56.387	-40.953	
201.00	-56.850	-53.254	
202.00	-56.409	-63.831	
203.00	-56.670	-70.529	
204.00	-56.962	-84.861	
205.00	-57.125	-95.195	
206.00	-57.436	-107.604	
207.00	-57.494	-120.578	
208.00	-57.609	-132.465	
209.00	-57.779	-145.737	
210.00	-58.584	-155.708	
211.00	-57.928	-173.546	
212.00	-58.762	170.363	
213.00	-59.102	152.811	
214.00	-59.673	140.216	
215.00	-59.951	118.407	
216.00	-59.843	102.770	
217.00	-60.429	79.533	
218.00	-60.485	61.149	
219.00	-60.048	39.550	
220.00	-60.417	22.331	
221.00	-59.228	-0.991	
222.00	-59.068	-20.871	
223.00	-58.979	-39.409	
224.00	-58.398	-60.973	
225.00	-57.726	-78.677	
226.00	-56.902	-98.925	
227.00	-57.296	-120.299	
228.00	-56.524	-135.028	
229.00	-55.793	-156.404	
230.00	-55.932	-175.711	
231.00	-55.907	162.926	
232.00	-55.419	141.174	
233.00	-54.988	120.268	
234.00	-54.964	97.110	
235.00	-54.777	75.248	
236.00	-54.451	52.775	
237.00	-54.155	30.911	
238.00	-53.667	8.568	
239.00	-53.259	-12.864	
240.00	-53.027	-36.015	
241.00	-52.550	-55.862	
242.00	-52.208	-78.223	
243.00	-52.293	-100.341	
244.00	-51.871	-120.957	
245.00	-51.914	-142.094	
246.00	-51.507	-163.206	
247.00	-51.476	173.671	
248.00	-51.377	151.901	
249.00	-51.148	127.782	
250.00	-51.304	106.037	
251.00	-51.271	82.594	
252.00	-51.352	59.952	
253.00	-51.936	37.310	
254.00	-51.690	12.861	
255.00	-51.778	-11.001	
256.00	-52.011	-33.418	
257.00	-52.168	-60.176	
258.00	-52.153	-83.488	
259.00	-52.438	-111.016	
260.00	-52.488	-132.200	
261.00	-53.024	-161.714	
262.00	-53.081	173.007	
263.00	-52.968	151.002	
264.00	-53.213	123.184	
265.00	-53.375	99.976	
266.00	-53.384	75.806	
267.00	-53.454	47.861	
268.00	-53.937	21.642	
269.00	-54.297	-1.523	
270.00	-54.571	-29.573	
271.00	-54.852	-55.584	
272.00	-54.840	-82.939	
273.00	-55.085	-109.952	
274.00	-55.345	-136.307	
275.00	-55.585	-161.132	
276.00	-55.813	171.235	
277.00	-55.730	145.300	
278.00	-55.775	117.885	
279.00	-55.954	92.212	
280.00	-56.261	66.162	
281.00	-56.818	39.869	
282.00	-56.798	12.764	
283.00	-56.796	-14.230	
284.00	-57.178	-35.868	
285.00	-58.080	-66.599	
286.00	-57.450	-93.241	
287.00	-58.126	-117.757	
288.00	-58.293	-141.787	
289.00	-58.611	-171.796	
290.00	-58.683	167.296	
291.00	-58.684	137.998	
292.00	-59.360	113.426	
293.00	-59.874	86.952	
294.00	-59.769	63.329	
295.00	-59.752	34.644	
296.00	-60.478	10.355	
297.00	-60.541	-15.109	
298.00	-60.805	-39.481	
299.00	-61.468	-64.611	
300.00	-62.231	-85.901	
301.00	-62.282	-113.983	
302.00	-62.290	-137.913	
303.00	-63.467	-161.427	
304.00	-64.289	172.302	
305.00	-66.033	159.288	
306.00	-65.391	121.616	
307.00	-67.383	101.923	
308.00	-68.048	77.202	
309.00	-68.143	49.372	
310.00	-68.636	10.059	
311.00	-68.759	-4.297	
312.00	-69.551	-50.269	
313.00	-71.455	-60.438	
314.00	-68.914	-88.082	
315.00	-68.534	-118.804	
316.00	-68.762	-133.586	
317.00	-69.494	-162.289	
318.00	-72.822	-168.143	
319.00	-73.489	153.268	
320.00	-71.018	136.000	
321.00	-73.120	122.708	
322.00	-77.637	71.913	
323.00	-77.045	64.621	
324.00	-80.692	47.428	
325.00	-81.524	-5.288	
326.00	-85.101	-31.592	
327.00	-80.509	-109.539	
328.00	-75.485	-127.939	
329.00	-75.208	-107.049	
330.00	-72.937	-135.384	
331.00	-76.532	-159.564	
332.00	-73.527	-148.420	
333.00	-75.292	162.768	
334.00	-74.251	179.969	
335.00	-76.809	165.730	
336.00	-76.587	127.163	
337.00	-76.087	122.884	
338.00	-75.701	108.391	
339.00	-81.034	122.046	
340.00	-77.199	96.526	
341.00	-83.090	122.511	
342.00	-84.630	47.781	
343.00	-88.047	-47.156	
344.00	-83.560	-101.198	
345.00	-78.866	-96.363	
346.00	-78.413	-115.938	
347.00	-73.494	-116.578	
348.00	-70.438	-140.692	
349.00	-68.624	-136.654	
350.00	-68.757	-131.924	
351.00	-69.359	-120.862	
352.00	-68.590	-136.076	
353.00	-68.168	-140.665	
354.00	-67.867	-143.603	
355.00	-68.868	-141.550	
356.00	-67.835	-147.621	
357.00	-71.673	-141.935	
358.00	-71.510	-133.463	
359.00	-71.501	-141.278	
Frequency	3750.00	MHz	
Channel	test		
Scan Axis name	Azimuth  [deg]		
Scan Axis	Amplitude	Phase	
			
0.00	-70.885	9.875	
1.00	-77.673	28.176	
2.00	-81.243	58.779	
3.00	-93.609	34.330	
4.00	-77.256	90.660	
5.00	-73.183	151.579	
6.00	-73.015	177.145	
7.00	-72.682	-177.540	
8.00	-69.191	169.434	
9.00	-68.382	-163.157	
10.00	-69.786	175.118	
11.00	-68.967	-161.025	
12.00	-67.910	-135.185	
13.00	-67.680	-140.874	
14.00	-69.403	-123.310	
15.00	-68.706	-138.018	
16.00	-69.433	-100.330	
17.00	-71.718	-109.270	
18.00	-71.821	-96.128	
19.00	-70.861	-69.671	
20.00	-70.355	-74.815	
21.00	-75.368	-52.970	
22.00	-89.436	-51.146	
23.00	-79.781	-19.481	
24.00	-78.171	-52.403	
25.00	-86.301	-90.613	
26.00	-75.409	-30.833	
27.00	-76.945	-47.823	
28.00	-74.047	-53.170	
29.00	-73.356	-42.305	
30.00	-70.589	-44.121	
31.00	-70.601	-16.081	
32.00	-67.373	-1.964	
33.00	-63.851	9.468	
34.00	-65.721	27.880	
35.00	-63.566	44.321	
36.00	-62.326	62.886	
37.00	-62.630	79.499	
38.00	-61.839	98.711	
39.00	-60.772	121.499	
40.00	-60.917	137.037	
41.00	-60.238	161.214	
42.00	-59.960	-178.246	
43.00	-59.916	-157.504	
44.00	-59.738	-137.502	
45.00	-59.470	-114.444	
46.00	-58.998	-94.915	
47.00	-58.661	-71.298	
48.00	-58.987	-48.090	
49.00	-58.871	-27.449	
50.00	-59.376	1.888	
51.00	-58.474	21.119	
52.00	-58.582	46.719	
53.00	-58.353	69.998	
54.00	-58.106	94.712	
55.00	-58.587	118.447	
56.00	-58.306	143.521	
57.00	-58.747	171.344	
58.00	-57.931	-162.008	
59.00	-57.865	-143.788	
60.00	-58.124	-112.618	
61.00	-57.854	-90.560	
62.00	-57.935	-57.105	
63.00	-57.971	-33.744	
64.00	-57.307	-1.388	
65.00	-56.973	18.394	
66.00	-57.299	44.593	
67.00	-56.829	71.803	
68.00	-56.652	99.888	
69.00	-56.733	123.069	
70.00	-56.587	142.481	
71.00	-56.311	173.273	
72.00	-56.620	-167.217	
73.00	-56.526	-137.980	
74.00	-56.764	-113.084	
75.00	-57.399	-82.440	
76.00	-57.386	-58.150	
77.00	-57.613	-25.943	
78.00	-57.429	-3.136	
79.00	-57.349	31.609	
80.00	-56.848	52.013	
81.00	-57.525	80.393	
82.00	-56.670	103.196	
83.00	-56.750	128.129	
84.00	-57.228	153.893	
85.00	-57.302	-172.405	
86.00	-57.143	-151.592	
87.00	-57.373	-119.673	
88.00	-57.335	-96.065	
89.00	-56.910	-67.804	
90.00	-56.969	-42.410	
91.00	-56.623	-13.889	
92.00	-56.938	11.060	
93.00	-56.654	36.255	
94.00	-56.371	56.611	
95.00	-56.405	82.804	
96.00	-56.844	106.651	
97.00	-56.410	133.209	
98.00	-56.469	155.599	
99.00	-57.002	177.947	
100.00	-56.772	-157.624	
101.00	-57.181	-133.214	
102.00	-56.921	-108.208	
103.00	-57.232	-89.158	
104.00	-57.769	-61.109	
105.00	-57.071	-44.312	
106.00	-57.341	-20.771	
107.00	-57.601	0.912	
108.00	-58.208	20.753	
109.00	-57.539	45.200	
110.00	-58.267	65.582	
111.00	-58.548	80.883	
112.00	-58.421	101.591	
113.00	-58.758	118.935	
114.00	-58.833	141.028	
115.00	-59.357	158.457	
116.00	-59.546	176.932	
117.00	-59.895	-162.585	
118.00	-59.595	-146.914	
119.00	-59.661	-128.705	
120.00	-59.341	-111.761	
121.00	-59.334	-89.336	
122.00	-58.911	-72.117	
123.00	-58.325	-52.069	
124.00	-58.072	-34.107	
125.00	-57.067	-21.027	
126.00	-56.952	-3.541	
127.00	-56.287	12.722	
128.00	-56.140	29.993	
129.00	-55.542	45.412	
130.00	-55.578	59.162	
131.00	-54.369	76.896	
132.00	-54.851	89.150	
133.00	-54.311	104.598	
134.00	-54.357	119.963	
135.00	-54.436	132.245	
136.00	-54.395	147.923	
137.00	-54.444	164.017	
138.00	-54.270	173.911	
139.00	-54.145	-168.645	
140.00	-54.740	-155.397	
141.00	-54.713	-142.045	
142.00	-54.958	-128.281	
143.00	-54.868	-117.250	
144.00	-55.033	-101.010	
145.00	-55.892	-87.931	
146.00	-55.819	-78.812	
147.00	-55.943	-69.314	
148.00	-56.273	-60.346	
149.00	-56.915	-52.288	
150.00	-57.633	-43.856	
151.00	-58.250	-42.559	
152.00	-58.526	-34.393	
153.00	-59.535	-28.856	
154.00	-60.884	-26.685	
155.00	-61.429	-31.054	
156.00	-62.212	-32.573	
157.00	-63.132	-31.937	
158.00	-61.636	-41.096	
159.00	-62.653	-43.238	
160.00	-61.457	-49.942	
161.00	-62.008	-54.712	
162.00	-60.673	-49.917	
163.00	-60.254	-53.568	
164.00	-59.375	-51.760	
165.00	-59.407	-46.809	
166.00	-58.364	-48.541	
167.00	-58.773	-48.947	
168.00	-58.405	-47.740	
169.00	-57.865	-42.058	
170.00	-57.692	-48.451	
171.00	-57.441	-46.878	
172.00	-57.414	-47.802	
173.00	-57.255	-47.975	
174.00	-57.272	-46.653	
175.00	-57.470	-45.586	
176.00	-57.215	-50.705	
177.00	-57.148	-50.713	
178.00	-57.352	-53.261	
179.00	-57.621	-56.419	
180.00	-57.307	-60.379	
181.00	-56.861	-60.806	
182.00	-56.912	-64.369	
183.00	-57.460	-69.911	
184.00	-57.270	-75.046	
185.00	-57.204	-79.274	
186.00	-57.214	-85.132	
187.00	-57.996	-93.695	
188.00	-57.129	-96.821	
189.00	-57.851	-102.144	
190.00	-57.769	-116.520	
191.00	-58.715	-117.601	
192.00	-59.142	-126.593	
193.00	-58.923	-137.909	
194.00	-59.150	-145.929	
195.00	-60.214	-157.785	
196.00	-60.215	-171.292	
197.00	-60.435	-179.641	
198.00	-61.080	162.947	
199.00	-61.075	149.965	
200.00	-61.548	137.188	
201.00	-61.548	113.430	
202.00	-60.995	97.833	
203.00	-60.928	94.737	
204.00	-60.534	73.826	
205.00	-60.003	59.172	
206.00	-60.137	40.576	
207.00	-58.962	22.183	
208.00	-59.348	12.262	
209.00	-59.001	-6.544	
210.00	-58.312	-24.248	
211.00	-57.990	-35.036	
212.00	-58.198	-52.768	
213.00	-57.593	-68.971	
214.00	-57.574	-82.731	
215.00	-57.996	-98.999	
216.00	-57.395	-120.860	
217.00	-57.640	-139.788	
218.00	-57.509	-158.997	
219.00	-57.273	-175.519	
220.00	-58.066	163.879	
221.00	-58.328	142.039	
222.00	-58.156	120.610	
223.00	-57.598	98.810	
224.00	-57.463	76.369	
225.00	-56.995	50.968	
226.00	-56.664	29.104	
227.00	-55.989	12.794	
228.00	-55.196	-8.493	
229.00	-55.100	-28.426	
230.00	-54.706	-50.510	
231.00	-54.377	-70.640	
232.00	-53.905	-95.800	
233.00	-53.752	-112.288	
234.00	-53.134	-137.849	
235.00	-52.817	-158.800	
236.00	-52.529	177.982	
237.00	-52.776	156.882	
238.00	-52.260	136.052	
239.00	-51.985	112.469	
240.00	-51.692	91.155	
241.00	-51.243	68.701	
242.00	-50.954	45.341	
243.00	-50.718	24.406	
244.00	-50.690	2.849	
245.00	-50.700	-17.096	
246.00	-50.699	-39.960	
247.00	-50.600	-64.800	
248.00	-50.683	-85.579	
249.00	-50.595	-110.544	
250.00	-50.582	-131.663	
251.00	-50.809	-155.403	
252.00	-50.513	-179.310	
253.00	-50.742	158.962	
254.00	-51.125	133.642	
255.00	-50.955	108.838	
256.00	-51.214	84.971	
257.00	-51.088	58.486	
258.00	-51.453	34.497	
259.00	-51.543	7.422	
260.00	-51.550	-14.534	
261.00	-51.991	-41.741	
262.00	-52.024	-67.101	
263.00	-52.286	-89.840	
264.00	-52.496	-117.698	
265.00	-52.656	-144.236	
266.00	-52.859	-168.712	
267.00	-52.854	165.024	
268.00	-53.414	140.550	
269.00	-53.777	113.458	
270.00	-53.715	90.232	
271.00	-53.925	61.530	
272.00	-54.665	33.649	
273.00	-54.533	9.256	
274.00	-54.693	-16.771	
275.00	-54.908	-44.680	
276.00	-55.148	-71.201	
277.00	-55.490	-99.479	
278.00	-55.441	-125.221	
279.00	-55.436	-151.613	
280.00	-55.868	-178.000	
281.00	-56.003	154.817	
282.00	-56.206	128.465	
283.00	-56.876	102.727	
284.00	-56.936	79.279	
285.00	-57.346	52.004	
286.00	-57.698	25.308	
287.00	-57.758	2.700	
288.00	-58.486	-24.206	
289.00	-59.552	-49.622	
290.00	-60.554	-74.453	
291.00	-60.766	-107.982	
292.00	-60.662	-128.727	
293.00	-60.832	-160.289	
294.00	-61.263	178.602	
295.00	-61.402	148.532	
296.00	-62.399	119.463	
297.00	-61.964	87.332	
298.00	-61.713	72.536	
299.00	-62.847	44.583	
300.00	-63.231	20.807	
301.00	-63.618	1.254	
302.00	-65.314	-24.692	
303.00	-66.509	-42.369	
304.00	-67.506	-71.033	
305.00	-70.679	-108.714	
306.00	-68.929	-116.710	
307.00	-73.112	-153.445	
308.00	-72.801	159.318	
309.00	-72.972	132.526	
310.00	-74.105	100.933	
311.00	-72.423	76.401	
312.00	-72.100	39.844	
313.00	-74.040	31.256	
314.00	-68.570	-12.675	
315.00	-71.171	-15.145	
316.00	-67.804	-40.165	
317.00	-72.961	-75.635	
318.00	-72.023	-89.145	
319.00	-72.737	-114.844	
320.00	-71.286	-121.008	
321.00	-74.140	-167.890	
322.00	-74.060	-167.885	
323.00	-81.868	163.072	
324.00	-83.747	147.683	
325.00	-83.169	67.015	
326.00	-73.074	-9.010	
327.00	-72.711	-8.393	
328.00	-72.777	-23.037	
329.00	-68.659	-32.903	
330.00	-68.317	-59.858	
331.00	-66.865	-64.285	
332.00	-67.650	-61.492	
333.00	-69.432	-84.732	
334.00	-66.603	-88.192	
335.00	-67.072	-100.316	
336.00	-67.975	-99.799	
337.00	-66.941	-116.297	
338.00	-71.513	-114.691	
339.00	-69.598	-141.039	
340.00	-77.676	-134.496	
341.00	-79.037	-141.411	
342.00	-75.808	-146.831	
343.00	-78.985	154.405	
344.00	-93.032	144.356	
345.00	-77.347	41.486	
346.00	-83.257	43.963	
347.00	-72.345	11.385	
348.00	-75.309	-5.024	
349.00	-72.815	9.853	
350.00	-71.064	-6.269	
351.00	-70.362	0.242	
352.00	-69.844	-4.917	
353.00	-69.113	6.445	
354.00	-68.103	2.836	
355.00	-66.557	-2.431	
356.00	-69.270	-14.576	
357.00	-68.435	4.254	
358.00	-69.637	0.867	
359.00	-73.095	4.709	
Frequency	3800.00	MHz	
Channel	test		
Scan Axis name	Azimuth  [deg]		
Scan Axis	Amplitude	Phase	
			
0.00	-69.828	134.264	
1.00	-69.169	157.015	
2.00	-71.328	144.489	
3.00	-71.257	175.471	
4.00	-74.774	-138.500	
5.00	-72.649	-133.448	
6.00	-71.329	-106.541	
7.00	-70.979	-101.265	
8.00	-67.969	-84.950	
9.00	-67.510	-65.781	
10.00	-66.193	-66.590	
11.00	-65.851	-58.850	
12.00	-65.553	-48.437	
13.00	-65.852	-38.234	
14.00	-65.897	-40.417	
15.00	-66.145	-29.735	
16.00	-66.544	-24.610	
17.00	-68.380	-16.227	
18.00	-68.864	-25.247	
19.00	-70.524	-14.554	
20.00	-70.929	-14.651	
21.00	-73.154	-23.007	
22.00	-75.393	-10.635	
23.00	-77.693	-11.067	
24.00	-74.644	-20.861	
25.00	-78.807	-27.497	
26.00	-73.400	-25.029	
27.00	-75.899	-12.849	
28.00	-71.780	-23.991	
29.00	-71.253	12.467	
30.00	-73.099	22.238	
31.00	-73.620	61.325	
32.00	-74.467	93.391	
33.00	-70.068	119.032	
34.00	-70.141	135.720	
35.00	-68.070	152.310	
36.00	-66.398	-179.197	
37.00	-64.678	-143.347	
38.00	-66.072	-135.228	
39.00	-63.891	-107.007	
40.00	-63.364	-88.093	
41.00	-62.672	-69.008	
42.00	-62.950	-51.335	
43.00	-61.277	-27.970	
44.00	-61.306	-2.807	
45.00	-60.648	15.380	
46.00	-60.632	43.977	
47.00	-60.031	61.954	
48.00	-60.062	87.681	
49.00	-59.493	109.685	
50.00	-59.119	126.958	
51.00	-59.490	149.129	
52.00	-59.920	177.380	
53.00	-59.266	-160.906	
54.00	-59.860	-135.223	
55.00	-60.491	-105.910	
56.00	-60.102	-80.667	
57.00	-59.955	-48.304	
58.00	-59.360	-18.402	
59.00	-58.836	6.519	
60.00	-57.957	36.843	
61.00	-57.904	63.855	
62.00	-57.021	90.637	
63.00	-56.759	114.078	
64.00	-56.239	139.883	
65.00	-56.020	163.438	
66.00	-56.050	-174.383	
67.00	-55.780	-146.247	
68.00	-55.775	-120.897	
69.00	-55.655	-94.843	
70.00	-55.905	-72.277	
71.00	-55.418	-44.216	
72.00	-55.556	-19.045	
73.00	-55.809	11.003	
74.00	-55.002	37.336	
75.00	-55.026	63.866	
76.00	-55.029	89.075	
77.00	-54.387	117.642	
78.00	-54.463	142.428	
79.00	-54.704	169.858	
80.00	-54.202	-168.940	
81.00	-54.807	-143.019	
82.00	-54.911	-119.021	
83.00	-54.980	-94.123	
84.00	-55.525	-66.232	
85.00	-55.062	-33.548	
86.00	-55.147	-8.828	
87.00	-55.078	22.564	
88.00	-55.032	46.434	
89.00	-54.894	76.056	
90.00	-54.772	102.521	
91.00	-54.752	127.004	
92.00	-54.292	152.909	
93.00	-54.224	177.509	
94.00	-54.165	-158.522	
95.00	-54.510	-133.045	
96.00	-54.363	-107.522	
97.00	-54.463	-87.400	
98.00	-54.444	-57.088	
99.00	-54.254	-34.673	
100.00	-54.888	-10.055	
101.00	-54.592	13.132	
102.00	-54.407	39.255	
103.00	-54.414	61.265	
104.00	-54.808	84.276	
105.00	-54.612	102.673	
106.00	-54.871	127.835	
107.00	-55.081	146.041	
108.00	-55.274	166.452	
109.00	-55.800	-167.946	
110.00	-55.961	-150.826	
111.00	-56.773	-127.686	
112.00	-57.101	-108.630	
113.00	-57.500	-82.624	
114.00	-57.911	-66.085	
115.00	-57.805	-39.933	
116.00	-58.134	-23.033	
117.00	-57.790	-1.173	
118.00	-57.245	20.449	
119.00	-56.758	35.471	
120.00	-56.331	54.728	
121.00	-55.673	68.237	
122.00	-55.109	84.761	
123.00	-55.021	101.598	
124.00	-54.378	116.013	
125.00	-54.051	130.833	
126.00	-53.578	144.820	
127.00	-53.399	159.429	
128.00	-52.801	174.805	
129.00	-53.036	-169.915	
130.00	-52.821	-154.494	
131.00	-52.660	-139.030	
132.00	-52.183	-125.665	
133.00	-52.401	-110.419	
134.00	-52.144	-93.222	
135.00	-51.947	-79.421	
136.00	-52.032	-65.570	
137.00	-51.898	-51.877	
138.00	-51.773	-39.304	
139.00	-51.762	-23.467	
140.00	-51.763	-11.109	
141.00	-51.923	2.407	
142.00	-52.443	14.371	
143.00	-52.386	27.559	
144.00	-52.462	34.782	
145.00	-53.193	48.505	
146.00	-53.243	58.194	
147.00	-53.793	68.557	
148.00	-53.718	78.104	
149.00	-53.983	82.269	
150.00	-54.725	90.755	
151.00	-54.471	95.414	
152.00	-54.699	102.703	
153.00	-55.312	100.636	
154.00	-55.385	105.014	
155.00	-55.194	109.555	
156.00	-55.557	110.883	
157.00	-55.232	108.884	
158.00	-55.265	110.445	
159.00	-55.067	109.835	
160.00	-54.944	109.861	
161.00	-54.723	111.575	
162.00	-54.695	111.099	
163.00	-54.228	113.899	
164.00	-54.278	114.208	
165.00	-54.070	118.672	
166.00	-53.611	115.486	
167.00	-53.646	120.025	
168.00	-53.713	119.158	
169.00	-53.183	120.756	
170.00	-53.065	121.222	
171.00	-52.845	121.442	
172.00	-52.600	123.806	
173.00	-52.411	122.062	
174.00	-52.562	120.121	
175.00	-52.503	121.813	
176.00	-52.225	119.182	
177.00	-52.460	117.448	
178.00	-52.486	114.438	
179.00	-52.355	110.566	
180.00	-52.599	107.084	
181.00	-52.434	106.123	
182.00	-52.748	98.178	
183.00	-52.525	94.421	
184.00	-52.806	87.153	
185.00	-53.109	81.729	
186.00	-52.874	73.201	
187.00	-53.094	65.010	
188.00	-53.254	55.149	
189.00	-53.201	47.743	
190.00	-53.371	37.835	
191.00	-53.097	28.320	
192.00	-52.943	16.074	
193.00	-52.765	4.879	
194.00	-52.695	-4.577	
195.00	-52.829	-14.468	
196.00	-52.410	-26.093	
197.00	-52.353	-38.165	
198.00	-52.181	-47.431	
199.00	-52.304	-60.184	
200.00	-51.866	-70.425	
201.00	-52.314	-81.354	
202.00	-51.840	-93.360	
203.00	-52.115	-106.305	
204.00	-52.247	-117.117	
205.00	-52.566	-131.256	
206.00	-52.655	-144.641	
207.00	-52.965	-159.810	
208.00	-53.290	-172.531	
209.00	-53.473	171.659	
210.00	-54.402	157.132	
211.00	-54.712	138.320	
212.00	-55.192	120.065	
213.00	-55.325	101.322	
214.00	-55.596	82.242	
215.00	-56.465	63.145	
216.00	-56.949	39.468	
217.00	-57.520	17.484	
218.00	-57.232	-2.742	
219.00	-57.508	-26.813	
220.00	-57.443	-50.606	
221.00	-57.309	-69.319	
222.00	-56.782	-97.086	
223.00	-56.562	-114.180	
224.00	-56.408	-137.529	
225.00	-55.656	-159.815	
226.00	-55.203	179.261	
227.00	-54.775	157.975	
228.00	-54.296	137.555	
229.00	-53.973	117.523	
230.00	-53.495	97.590	
231.00	-53.198	77.055	
232.00	-52.801	57.305	
233.00	-52.875	36.783	
234.00	-52.403	13.486	
235.00	-52.164	-4.755	
236.00	-52.270	-26.924	
237.00	-51.920	-47.451	
238.00	-51.809	-69.691	
239.00	-51.801	-92.728	
240.00	-51.718	-113.642	
241.00	-51.647	-135.391	
242.00	-51.520	-156.298	
243.00	-51.421	-179.631	
244.00	-51.353	157.397	
245.00	-51.205	134.835	
246.00	-50.982	113.927	
247.00	-51.418	90.592	
248.00	-51.299	67.658	
249.00	-51.361	43.823	
250.00	-51.506	22.749	
251.00	-51.436	-2.472	
252.00	-51.599	-24.965	
253.00	-51.787	-50.343	
254.00	-52.030	-74.487	
255.00	-52.115	-98.947	
256.00	-52.524	-121.604	
257.00	-52.766	-146.868	
258.00	-53.082	-170.939	
259.00	-53.392	161.220	
260.00	-53.744	137.344	
261.00	-53.908	109.143	
262.00	-54.352	84.691	
263.00	-54.726	57.398	
264.00	-54.484	31.922	
265.00	-55.108	2.692	
266.00	-54.772	-24.404	
267.00	-55.087	-53.587	
268.00	-55.147	-78.728	
269.00	-55.210	-104.364	
270.00	-55.044	-129.111	
271.00	-55.292	-158.584	
272.00	-55.438	176.856	
273.00	-56.032	151.329	
274.00	-56.314	125.523	
275.00	-56.421	98.406	
276.00	-56.839	72.466	
277.00	-57.166	44.530	
278.00	-57.013	16.893	
279.00	-57.481	-13.822	
280.00	-57.352	-37.034	
281.00	-57.568	-65.778	
282.00	-57.812	-90.069	
283.00	-57.475	-116.580	
284.00	-57.950	-140.629	
285.00	-58.261	-167.603	
286.00	-58.318	167.615	
287.00	-59.792	145.897	
288.00	-58.969	119.098	
289.00	-60.180	97.733	
290.00	-60.084	72.759	
291.00	-61.483	43.186	
292.00	-62.453	17.613	
293.00	-63.125	-15.209	
294.00	-64.127	-45.423	
295.00	-64.365	-69.911	
296.00	-63.610	-105.610	
297.00	-64.305	-125.353	
298.00	-63.297	-149.808	
299.00	-63.395	-172.958	
300.00	-63.319	160.168	
301.00	-63.856	141.435	
302.00	-64.883	125.631	
303.00	-63.884	104.166	
304.00	-65.044	90.479	
305.00	-67.256	66.835	
306.00	-67.403	62.271	
307.00	-69.756	33.879	
308.00	-70.452	27.392	
309.00	-71.580	-0.567	
310.00	-74.136	-19.428	
311.00	-77.056	-35.491	
312.00	-81.873	-73.330	
313.00	-81.078	-108.984	
314.00	-78.284	-142.307	
315.00	-82.339	-150.229	
316.00	-78.215	-178.672	
317.00	-74.730	138.781	
318.00	-71.740	150.962	
319.00	-72.309	136.022	
320.00	-73.043	114.070	
321.00	-70.124	94.186	
322.00	-69.670	86.999	
323.00	-68.658	71.614	
324.00	-67.872	53.469	
325.00	-66.033	50.088	
326.00	-66.887	35.448	
327.00	-66.861	33.476	
328.00	-66.034	11.393	
329.00	-67.124	7.556	
330.00	-66.419	-7.544	
331.00	-66.801	-6.211	
332.00	-67.371	-6.742	
333.00	-69.583	-7.806	
334.00	-67.864	-6.402	
335.00	-69.019	-20.833	
336.00	-71.446	-12.748	
337.00	-74.850	-15.893	
338.00	-79.826	-20.506	
339.00	-77.103	14.402	
340.00	-82.997	2.783	
341.00	-79.369	46.871	
342.00	-74.786	73.519	
343.00	-75.267	97.013	
344.00	-75.837	94.580	
345.00	-73.033	96.572	
346.00	-71.955	89.719	
347.00	-71.677	84.621	
348.00	-69.688	95.908	
349.00	-71.912	93.154	
350.00	-67.202	99.866	
351.00	-66.807	98.360	
352.00	-66.463	93.736	
353.00	-65.664	104.439	
354.00	-67.026	104.843	
355.00	-66.212	108.171	
356.00	-66.493	110.391	
357.00	-66.585	115.054	
358.00	-67.602	115.952	
359.00	-67.246	123.129	
