Test Title:	Alpha Wireless Indoor Range						
Date:	06/01/2017						
Time:	12:37						
Operator Name:	FL						
Comment:	TAB ON ELEMENT 10 TOP PATCH
PARTITION AT ELEMENT 9						
Caib. File Name:	C:\Program Files\Midas 2.01d\Calibration Files\test sigma 180900.cal						
							
[Scan Axis] Name: 	Azimuth  [deg]Start: 	0.000000	Stop	359.000000	Increment	1.000000[Step Axis] Name: 	Start: 	0.000000	Stop	0.000000	Increment	0.000000[Tert] Name: 	None [Forth] Name: 	None  [ Freq.]  (List) 	MHz.	3300.000000	3350.000000	3400.000000	3450.000000	3500.000000	3550.000000	3575.000000	3600.000000	3625.000000	3650.000000	3675.000000	3700.000000	3750.000000	3800.000000
 [Switch]  	None [Channel]  	test			 [ Beam] 	None			
Database:			
First Question			
2nd			
3rd			
4th			
			
Frequency	3300.00	MHz	
Channel	test		
Scan Axis name	Azimuth  [deg]		
Scan Axis	Amplitude	Phase	
			
0.00	-66.206	-72.623	
1.00	-65.179	-56.561	
2.00	-65.033	-54.376	
3.00	-64.573	-56.186	
4.00	-62.803	-54.607	
5.00	-62.437	-44.592	
6.00	-63.001	-48.532	
7.00	-64.108	-24.586	
8.00	-69.857	-23.004	
9.00	-86.663	23.250	
10.00	-72.948	149.020	
11.00	-67.440	159.521	
12.00	-63.496	-176.164	
13.00	-63.313	-167.913	
14.00	-64.003	-149.343	
15.00	-65.325	-139.134	
16.00	-69.827	-123.003	
17.00	-75.546	-49.129	
18.00	-75.654	18.506	
19.00	-69.127	43.444	
20.00	-66.331	42.144	
21.00	-65.264	39.629	
22.00	-65.765	60.295	
23.00	-64.415	54.938	
24.00	-66.210	69.958	
25.00	-68.354	91.005	
26.00	-74.420	130.900	
27.00	-72.446	-167.880	
28.00	-69.563	-120.460	
29.00	-66.164	-88.563	
30.00	-63.744	-62.871	
31.00	-64.625	-51.814	
32.00	-66.122	-35.308	
33.00	-72.673	7.399	
34.00	-78.976	73.646	
35.00	-70.812	161.450	
36.00	-65.857	-160.293	
37.00	-63.682	-138.469	
38.00	-62.557	-118.420	
39.00	-62.642	-91.287	
40.00	-62.929	-61.593	
41.00	-63.869	-27.719	
42.00	-64.430	10.344	
43.00	-64.692	47.546	
44.00	-64.470	81.972	
45.00	-64.640	111.383	
46.00	-65.179	139.894	
47.00	-68.054	169.027	
48.00	-67.001	-152.905	
49.00	-68.684	-110.165	
50.00	-70.188	-61.226	
51.00	-68.624	-25.651	
52.00	-67.532	10.409	
53.00	-68.451	40.023	
54.00	-67.002	69.434	
55.00	-66.681	103.501	
56.00	-66.850	116.948	
57.00	-69.411	141.068	
58.00	-68.750	148.894	
59.00	-76.430	177.424	
60.00	-79.512	-157.150	
61.00	-77.774	48.285	
62.00	-77.580	67.462	
63.00	-74.502	102.649	
64.00	-73.009	126.447	
65.00	-72.480	151.036	
66.00	-69.862	161.026	
67.00	-71.269	-173.509	
68.00	-70.763	-129.909	
69.00	-71.432	-104.077	
70.00	-72.356	-43.514	
71.00	-72.404	-2.700	
72.00	-73.086	27.444	
73.00	-67.955	69.003	
74.00	-67.012	94.875	
75.00	-66.154	109.731	
76.00	-64.597	144.009	
77.00	-63.826	170.093	
78.00	-62.954	-171.220	
79.00	-62.265	-148.225	
80.00	-61.150	-130.166	
81.00	-60.379	-101.714	
82.00	-59.614	-87.831	
83.00	-57.985	-60.347	
84.00	-58.749	-46.209	
85.00	-58.488	-23.310	
86.00	-58.582	-8.111	
87.00	-58.022	11.905	
88.00	-58.057	33.311	
89.00	-57.696	53.348	
90.00	-58.437	64.939	
91.00	-58.719	84.345	
92.00	-59.990	101.790	
93.00	-60.065	114.401	
94.00	-61.585	131.527	
95.00	-63.053	146.527	
96.00	-64.993	155.277	
97.00	-68.251	164.605	
98.00	-69.742	164.338	
99.00	-75.258	168.945	
100.00	-73.394	147.927	
101.00	-73.735	166.840	
102.00	-66.775	165.227	
103.00	-64.555	-171.995	
104.00	-62.441	-155.377	
105.00	-60.446	-138.038	
106.00	-58.796	-122.594	
107.00	-57.675	-106.396	
108.00	-57.110	-87.813	
109.00	-56.029	-78.179	
110.00	-55.969	-56.921	
111.00	-55.570	-38.236	
112.00	-55.354	-11.373	
113.00	-55.591	9.633	
114.00	-56.403	31.710	
115.00	-56.293	54.245	
116.00	-57.170	88.718	
117.00	-58.034	115.229	
118.00	-58.087	153.904	
119.00	-57.760	-168.774	
120.00	-55.598	-132.772	
121.00	-53.854	-102.021	
122.00	-51.513	-78.954	
123.00	-50.056	-57.597	
124.00	-48.671	-36.818	
125.00	-47.965	-20.123	
126.00	-47.679	-2.858	
127.00	-47.687	12.932	
128.00	-48.275	27.089	
129.00	-49.450	41.978	
130.00	-51.483	52.085	
131.00	-53.722	54.018	
132.00	-56.358	46.936	
133.00	-56.157	24.051	
134.00	-54.414	12.813	
135.00	-51.503	11.269	
136.00	-49.686	21.351	
137.00	-48.120	31.102	
138.00	-47.319	43.394	
139.00	-47.544	55.167	
140.00	-47.868	67.287	
141.00	-49.545	78.460	
142.00	-52.406	85.642	
143.00	-57.211	89.879	
144.00	-68.148	47.864	
145.00	-59.381	-31.862	
146.00	-54.150	-28.572	
147.00	-52.677	-23.465	
148.00	-51.844	-7.176	
149.00	-53.032	8.384	
150.00	-55.711	46.708	
151.00	-56.508	95.372	
152.00	-53.113	146.457	
153.00	-49.182	172.905	
154.00	-46.381	-167.808	
155.00	-44.738	-157.567	
156.00	-43.733	-148.133	
157.00	-43.652	-139.821	
158.00	-44.259	-136.593	
159.00	-46.010	-123.660	
160.00	-48.732	-118.535	
161.00	-53.392	-108.070	
162.00	-63.456	-92.762	
163.00	-65.201	47.178	
164.00	-59.669	56.652	
165.00	-61.083	55.952	
166.00	-69.770	-11.493	
167.00	-58.114	-75.822	
168.00	-51.889	-80.126	
169.00	-48.994	-84.060	
170.00	-47.747	-91.850	
171.00	-47.679	-103.379	
172.00	-48.241	-134.228	
173.00	-45.504	-173.470	
174.00	-40.974	168.015	
175.00	-36.925	157.043	
176.00	-33.866	154.213	
177.00	-31.655	151.642	
178.00	-29.911	149.798	
179.00	-28.779	149.143	
180.00	-28.108	148.375	
181.00	-27.886	144.467	
182.00	-28.148	143.599	
183.00	-28.869	142.400	
184.00	-30.163	138.559	
185.00	-31.951	132.676	
186.00	-34.658	124.690	
187.00	-38.576	111.976	
188.00	-43.679	83.102	
189.00	-45.841	22.364	
190.00	-42.412	-16.962	
191.00	-40.080	-31.661	
192.00	-38.959	-42.130	
193.00	-39.110	-49.957	
194.00	-39.990	-57.130	
195.00	-41.751	-63.318	
196.00	-44.701	-70.084	
197.00	-48.879	-74.943	
198.00	-55.680	-77.778	
199.00	-71.436	-24.744	
200.00	-61.164	66.304	
201.00	-58.701	62.589	
202.00	-60.279	57.724	
203.00	-69.762	55.393	
204.00	-63.151	-162.690	
205.00	-55.806	-161.700	
206.00	-51.604	-170.690	
207.00	-49.339	178.627	
208.00	-48.202	166.082	
209.00	-48.000	152.029	
210.00	-47.944	135.881	
211.00	-48.588	116.010	
212.00	-49.917	93.403	
213.00	-51.105	66.897	
214.00	-52.009	34.604	
215.00	-51.867	4.342	
216.00	-51.289	-22.542	
217.00	-50.687	-47.776	
218.00	-50.137	-65.249	
219.00	-50.281	-85.021	
220.00	-50.405	-101.332	
221.00	-51.555	-118.651	
222.00	-52.573	-131.181	
223.00	-54.186	-147.099	
224.00	-56.966	-163.037	
225.00	-58.905	-173.968	
226.00	-62.310	174.117	
227.00	-65.920	156.891	
228.00	-70.643	129.265	
229.00	-74.438	126.309	
230.00	-71.242	97.670	
231.00	-71.011	56.721	
232.00	-67.891	58.798	
233.00	-65.931	34.241	
234.00	-64.033	13.255	
235.00	-61.774	-6.448	
236.00	-60.725	-35.184	
237.00	-60.405	-53.359	
238.00	-59.844	-79.202	
239.00	-58.236	-98.928	
240.00	-56.958	-113.253	
241.00	-56.189	-133.271	
242.00	-56.030	-150.139	
243.00	-55.990	-166.208	
244.00	-56.122	179.423	
245.00	-56.803	168.375	
246.00	-57.382	156.292	
247.00	-58.719	139.942	
248.00	-59.671	134.829	
249.00	-61.179	124.694	
250.00	-62.324	114.995	
251.00	-63.810	96.501	
252.00	-66.565	86.209	
253.00	-68.069	52.629	
254.00	-71.117	23.233	
255.00	-71.696	-23.217	
256.00	-67.752	-56.937	
257.00	-64.428	-63.337	
258.00	-64.146	-91.274	
259.00	-62.792	-108.303	
260.00	-62.290	-121.332	
261.00	-60.742	-132.893	
262.00	-60.934	-151.252	
263.00	-60.169	-164.161	
264.00	-60.199	-175.677	
265.00	-60.540	164.509	
266.00	-60.449	146.915	
267.00	-62.250	131.371	
268.00	-62.703	119.357	
269.00	-62.061	101.459	
270.00	-64.634	81.338	
271.00	-65.254	72.465	
272.00	-68.092	32.292	
273.00	-68.131	5.727	
274.00	-68.533	-25.158	
275.00	-67.820	-54.651	
276.00	-67.998	-60.301	
277.00	-67.930	-83.746	
278.00	-67.673	-98.770	
279.00	-67.487	-121.781	
280.00	-68.308	-136.084	
281.00	-67.802	-160.747	
282.00	-69.268	170.207	
283.00	-68.711	157.230	
284.00	-69.546	136.963	
285.00	-72.902	119.106	
286.00	-73.249	106.388	
287.00	-73.793	97.294	
288.00	-82.563	46.139	
289.00	-88.993	116.798	
290.00	-86.389	-96.351	
291.00	-78.634	-159.882	
292.00	-78.335	-124.695	
293.00	-75.020	-145.272	
294.00	-76.507	-166.324	
295.00	-80.704	-168.366	
296.00	-78.922	-175.009	
297.00	-85.151	141.471	
298.00	-77.993	155.284	
299.00	-84.368	110.815	
300.00	-84.697	141.287	
301.00	-81.817	-155.682	
302.00	-77.941	121.939	
303.00	-77.346	83.391	
304.00	-71.678	62.118	
305.00	-72.954	36.809	
306.00	-71.188	29.730	
307.00	-75.161	19.844	
308.00	-74.074	-17.287	
309.00	-77.408	-62.323	
310.00	-76.905	-101.581	
311.00	-72.097	-173.123	
312.00	-68.662	149.341	
313.00	-67.766	143.789	
314.00	-66.889	118.685	
315.00	-69.523	111.749	
316.00	-71.887	97.293	
317.00	-76.346	47.246	
318.00	-84.830	64.409	
319.00	-78.380	-173.895	
320.00	-73.170	-176.338	
321.00	-70.075	154.221	
322.00	-70.315	137.759	
323.00	-69.034	98.664	
324.00	-73.462	86.716	
325.00	-76.259	26.913	
326.00	-74.362	-56.312	
327.00	-69.373	-63.519	
328.00	-69.919	-85.083	
329.00	-69.149	-103.064	
330.00	-73.983	-122.678	
331.00	-80.823	-95.056	
332.00	-82.356	82.402	
333.00	-79.096	62.692	
334.00	-70.788	42.928	
335.00	-72.248	55.975	
336.00	-72.782	44.840	
337.00	-71.631	91.518	
338.00	-69.100	87.258	
339.00	-66.443	83.832	
340.00	-68.024	80.603	
341.00	-66.417	71.722	
342.00	-66.653	69.637	
343.00	-67.842	69.706	
344.00	-71.226	108.715	
345.00	-74.345	136.003	
346.00	-69.537	177.250	
347.00	-67.054	-170.693	
348.00	-67.064	-170.291	
349.00	-67.760	-166.804	
350.00	-68.847	-154.518	
351.00	-71.358	-147.918	
352.00	-75.887	-113.749	
353.00	-73.776	-158.253	
354.00	-72.054	-150.944	
355.00	-72.015	-145.099	
356.00	-69.703	-139.856	
357.00	-70.246	-130.212	
358.00	-68.771	-94.902	
359.00	-66.869	-103.438	
Frequency	3350.00	MHz	
Channel	test		
Scan Axis name	Azimuth  [deg]		
Scan Axis	Amplitude	Phase	
			
0.00	-77.298	0.128	
1.00	-87.916	59.873	
2.00	-87.022	-151.273	
3.00	-79.401	-1.052	
4.00	-74.885	-21.495	
5.00	-73.058	-15.435	
6.00	-72.376	-19.487	
7.00	-74.165	17.400	
8.00	-85.986	-72.457	
9.00	-72.859	-121.616	
10.00	-68.290	-102.588	
11.00	-64.834	-95.176	
12.00	-64.403	-80.594	
13.00	-63.730	-71.173	
14.00	-64.939	-59.244	
15.00	-66.021	-49.601	
16.00	-69.001	-44.883	
17.00	-78.903	-67.141	
18.00	-79.838	-118.324	
19.00	-77.352	-134.727	
20.00	-76.656	-178.911	
21.00	-75.904	137.259	
22.00	-71.331	115.802	
23.00	-66.207	128.290	
24.00	-64.951	127.023	
25.00	-68.350	147.822	
26.00	-69.492	153.534	
27.00	-84.922	152.308	
28.00	-75.478	-11.475	
29.00	-66.469	7.515	
30.00	-65.428	19.673	
31.00	-64.559	39.389	
32.00	-66.501	55.119	
33.00	-71.029	63.561	
34.00	-77.028	31.405	
35.00	-72.299	-36.051	
36.00	-68.337	-26.735	
37.00	-64.338	-5.102	
38.00	-62.693	13.533	
39.00	-62.143	42.756	
40.00	-62.606	69.060	
41.00	-62.894	95.558	
42.00	-64.544	126.798	
43.00	-66.006	163.341	
44.00	-65.910	-149.498	
45.00	-66.851	-94.450	
46.00	-65.375	-61.604	
47.00	-65.808	-12.331	
48.00	-65.586	18.458	
49.00	-64.586	47.056	
50.00	-62.684	75.142	
51.00	-63.623	111.435	
52.00	-65.300	140.382	
53.00	-65.056	174.451	
54.00	-66.232	-150.929	
55.00	-66.247	-112.997	
56.00	-66.661	-76.648	
57.00	-65.735	-42.606	
58.00	-67.553	-15.620	
59.00	-66.992	12.249	
60.00	-70.682	46.499	
61.00	-70.854	91.093	
62.00	-71.778	131.134	
63.00	-70.564	-164.078	
64.00	-68.954	-137.057	
65.00	-69.425	-110.038	
66.00	-70.649	-81.232	
67.00	-70.480	-60.887	
68.00	-72.213	-7.177	
69.00	-74.829	33.180	
70.00	-72.394	87.880	
71.00	-71.040	130.992	
72.00	-67.196	156.675	
73.00	-65.358	-178.329	
74.00	-63.824	-153.025	
75.00	-62.294	-127.416	
76.00	-61.304	-102.866	
77.00	-60.581	-76.448	
78.00	-60.393	-59.214	
79.00	-59.815	-34.995	
80.00	-59.067	-16.989	
81.00	-58.655	8.218	
82.00	-58.141	36.626	
83.00	-57.844	54.985	
84.00	-57.302	71.668	
85.00	-57.239	96.570	
86.00	-56.919	108.991	
87.00	-57.421	129.228	
88.00	-57.197	149.264	
89.00	-57.538	170.113	
90.00	-58.056	-174.004	
91.00	-57.592	-153.129	
92.00	-58.668	-133.237	
93.00	-58.622	-114.283	
94.00	-59.402	-95.732	
95.00	-60.568	-76.295	
96.00	-61.882	-58.235	
97.00	-61.666	-33.050	
98.00	-63.691	-19.467	
99.00	-64.755	-6.580	
100.00	-67.456	16.012	
101.00	-70.130	9.002	
102.00	-73.213	3.821	
103.00	-71.596	-15.614	
104.00	-69.982	-30.232	
105.00	-67.057	-13.670	
106.00	-63.905	2.555	
107.00	-61.704	14.769	
108.00	-59.806	32.016	
109.00	-58.673	44.610	
110.00	-56.336	66.732	
111.00	-55.305	85.237	
112.00	-54.276	103.602	
113.00	-53.256	126.368	
114.00	-53.455	146.780	
115.00	-53.140	164.681	
116.00	-53.231	-173.570	
117.00	-54.218	-153.371	
118.00	-54.792	-126.628	
119.00	-56.745	-97.253	
120.00	-58.345	-57.083	
121.00	-58.091	-11.976	
122.00	-56.007	32.258	
123.00	-53.196	63.242	
124.00	-51.131	91.183	
125.00	-49.324	114.634	
126.00	-48.226	134.375	
127.00	-47.451	154.016	
128.00	-47.134	172.462	
129.00	-47.181	-169.306	
130.00	-47.998	-152.850	
131.00	-49.126	-139.497	
132.00	-51.091	-127.379	
133.00	-54.365	-120.128	
134.00	-59.136	-137.064	
135.00	-58.130	179.279	
136.00	-53.199	166.492	
137.00	-50.050	171.220	
138.00	-47.810	-179.104	
139.00	-46.641	-165.619	
140.00	-46.231	-153.435	
141.00	-46.715	-139.487	
142.00	-48.143	-125.352	
143.00	-50.790	-110.973	
144.00	-55.700	-92.991	
145.00	-67.973	-31.528	
146.00	-59.819	78.955	
147.00	-53.622	105.906	
148.00	-51.089	121.765	
149.00	-50.631	138.230	
150.00	-51.256	167.005	
151.00	-52.388	-160.499	
152.00	-51.943	-114.233	
153.00	-49.370	-76.769	
154.00	-46.519	-50.755	
155.00	-44.509	-35.848	
156.00	-43.098	-25.401	
157.00	-42.780	-16.936	
158.00	-43.121	-14.162	
159.00	-44.382	-4.945	
160.00	-46.314	-5.329	
161.00	-49.255	-6.101	
162.00	-53.005	-20.940	
163.00	-55.883	-38.959	
164.00	-57.442	-58.579	
165.00	-59.962	-42.259	
166.00	-59.322	5.285	
167.00	-53.448	43.239	
168.00	-49.235	57.694	
169.00	-46.634	61.826	
170.00	-45.872	60.644	
171.00	-46.927	56.511	
172.00	-49.674	30.807	
173.00	-48.859	-30.757	
174.00	-42.118	-57.628	
175.00	-37.253	-66.992	
176.00	-33.654	-68.105	
177.00	-31.162	-69.590	
178.00	-29.308	-70.388	
179.00	-28.067	-70.410	
180.00	-27.291	-70.742	
181.00	-27.105	-73.421	
182.00	-27.355	-73.460	
183.00	-28.109	-74.050	
184.00	-29.403	-77.073	
185.00	-31.241	-81.638	
186.00	-33.781	-88.323	
187.00	-37.800	-97.418	
188.00	-43.491	-116.668	
189.00	-49.516	179.832	
190.00	-45.562	120.435	
191.00	-42.293	102.075	
192.00	-41.123	90.034	
193.00	-41.482	79.517	
194.00	-42.762	68.332	
195.00	-45.117	52.902	
196.00	-48.222	29.579	
197.00	-50.834	-8.666	
198.00	-51.793	-48.534	
199.00	-50.602	-78.376	
200.00	-50.076	-97.750	
201.00	-50.997	-107.377	
202.00	-53.595	-111.869	
203.00	-56.871	-98.410	
204.00	-57.396	-51.452	
205.00	-53.034	-28.517	
206.00	-49.575	-28.096	
207.00	-47.446	-35.494	
208.00	-46.685	-45.778	
209.00	-46.238	-55.274	
210.00	-46.735	-68.567	
211.00	-47.907	-84.140	
212.00	-49.564	-105.101	
213.00	-51.608	-134.566	
214.00	-53.842	-167.542	
215.00	-53.781	151.751	
216.00	-52.613	121.257	
217.00	-51.857	95.019	
218.00	-50.992	77.827	
219.00	-50.996	57.316	
220.00	-51.639	40.663	
221.00	-52.309	23.692	
222.00	-54.240	8.587	
223.00	-56.239	-8.195	
224.00	-58.453	-33.104	
225.00	-60.869	-66.306	
226.00	-61.918	-98.662	
227.00	-62.154	-130.541	
228.00	-62.007	-156.286	
229.00	-61.763	-174.607	
230.00	-60.976	170.095	
231.00	-60.783	157.250	
232.00	-60.696	141.558	
233.00	-61.203	132.070	
234.00	-60.746	106.692	
235.00	-61.489	89.428	
236.00	-60.539	67.729	
237.00	-60.596	45.411	
238.00	-59.999	25.725	
239.00	-59.347	17.324	
240.00	-58.545	-8.546	
241.00	-57.652	-28.984	
242.00	-58.480	-43.654	
243.00	-58.083	-57.414	
244.00	-57.918	-72.795	
245.00	-57.676	-85.713	
246.00	-57.863	-98.491	
247.00	-58.331	-109.085	
248.00	-58.150	-122.704	
249.00	-58.733	-134.080	
250.00	-58.827	-143.016	
251.00	-59.396	-155.913	
252.00	-59.266	-168.483	
253.00	-60.265	-175.397	
254.00	-62.168	168.931	
255.00	-61.702	152.366	
256.00	-65.120	136.330	
257.00	-66.869	104.617	
258.00	-71.554	80.309	
259.00	-72.840	28.228	
260.00	-69.498	-23.363	
261.00	-68.342	-55.434	
262.00	-66.284	-84.479	
263.00	-63.405	-91.886	
264.00	-62.484	-106.383	
265.00	-61.814	-120.538	
266.00	-61.812	-137.745	
267.00	-63.408	-153.617	
268.00	-63.935	-164.638	
269.00	-65.081	-177.471	
270.00	-66.427	173.184	
271.00	-69.181	156.051	
272.00	-70.562	136.546	
273.00	-72.608	102.972	
274.00	-75.519	40.718	
275.00	-76.887	1.712	
276.00	-74.330	-8.962	
277.00	-71.308	-34.131	
278.00	-69.054	-45.979	
279.00	-68.289	-69.445	
280.00	-66.421	-75.284	
281.00	-66.584	-75.529	
282.00	-66.663	-88.694	
283.00	-66.208	-90.970	
284.00	-66.989	-112.276	
285.00	-67.144	-123.360	
286.00	-66.884	-129.234	
287.00	-67.690	-136.927	
288.00	-69.624	-161.808	
289.00	-70.565	176.364	
290.00	-73.814	169.372	
291.00	-77.905	133.121	
292.00	-76.233	66.654	
293.00	-76.539	18.903	
294.00	-79.507	-3.548	
295.00	-73.371	-55.610	
296.00	-74.376	-64.214	
297.00	-75.103	-120.925	
298.00	-74.009	-112.453	
299.00	-77.002	-144.201	
300.00	-80.406	-166.786	
301.00	-82.131	164.928	
302.00	-77.727	94.641	
303.00	-77.937	73.921	
304.00	-74.664	54.990	
305.00	-78.334	35.529	
306.00	-81.486	-5.962	
307.00	-79.758	-20.274	
308.00	-85.650	63.774	
309.00	-80.620	-152.906	
310.00	-80.900	-149.751	
311.00	-74.296	-128.153	
312.00	-71.108	-172.145	
313.00	-71.866	-145.019	
314.00	-71.096	-164.140	
315.00	-72.629	-177.573	
316.00	-72.241	168.403	
317.00	-75.627	-167.972	
318.00	-78.756	-143.777	
319.00	-72.840	-153.212	
320.00	-72.711	-168.291	
321.00	-69.168	-163.855	
322.00	-68.806	-171.072	
323.00	-67.527	167.841	
324.00	-70.779	160.053	
325.00	-76.119	125.809	
326.00	-85.245	78.630	
327.00	-75.182	-13.691	
328.00	-75.667	-61.661	
329.00	-74.416	-41.751	
330.00	-75.412	-41.673	
331.00	-89.030	145.290	
332.00	-75.023	95.854	
333.00	-73.164	78.092	
334.00	-74.559	74.349	
335.00	-76.321	90.391	
336.00	-79.064	63.702	
337.00	-76.604	-123.091	
338.00	-73.332	-136.437	
339.00	-73.595	-152.690	
340.00	-70.348	-177.059	
341.00	-69.917	144.748	
342.00	-68.281	127.488	
343.00	-71.418	136.794	
344.00	-73.037	144.851	
345.00	-80.184	-67.687	
346.00	-69.124	-85.267	
347.00	-65.352	-88.640	
348.00	-64.219	-91.407	
349.00	-64.529	-85.341	
350.00	-65.891	-97.463	
351.00	-69.211	-110.044	
352.00	-70.702	-114.847	
353.00	-69.955	-98.025	
354.00	-72.505	-91.484	
355.00	-71.208	-68.484	
356.00	-73.015	-67.527	
357.00	-72.064	-38.773	
358.00	-73.066	-32.040	
359.00	-76.586	-18.782	
Frequency	3400.00	MHz	
Channel	test		
Scan Axis name	Azimuth  [deg]		
Scan Axis	Amplitude	Phase	
			
0.00	-83.551	-147.937	
1.00	-74.672	-108.988	
2.00	-70.300	-83.266	
3.00	-70.403	-74.514	
4.00	-69.130	-67.023	
5.00	-70.122	-50.678	
6.00	-72.776	-21.379	
7.00	-76.872	-4.304	
8.00	-73.203	-15.046	
9.00	-72.329	12.142	
10.00	-68.800	28.393	
11.00	-66.574	42.076	
12.00	-65.511	46.776	
13.00	-65.770	62.019	
14.00	-67.523	80.274	
15.00	-74.186	98.625	
16.00	-81.500	148.632	
17.00	-76.268	-82.974	
18.00	-69.692	-48.114	
19.00	-71.079	-38.732	
20.00	-70.322	-1.844	
21.00	-80.331	95.601	
22.00	-73.291	125.851	
23.00	-68.723	147.671	
24.00	-66.424	174.932	
25.00	-66.196	-171.585	
26.00	-68.360	-179.674	
27.00	-74.202	178.914	
28.00	-74.358	101.604	
29.00	-71.316	95.332	
30.00	-69.847	112.168	
31.00	-69.564	105.257	
32.00	-67.302	102.804	
33.00	-70.507	98.524	
34.00	-67.016	84.288	
35.00	-66.032	88.591	
36.00	-63.723	102.256	
37.00	-63.993	117.791	
38.00	-63.459	131.356	
39.00	-63.773	166.801	
40.00	-67.610	-165.556	
41.00	-66.714	-120.359	
42.00	-66.119	-83.958	
43.00	-64.585	-22.569	
44.00	-65.138	8.822	
45.00	-63.518	47.405	
46.00	-61.549	80.991	
47.00	-61.743	103.232	
48.00	-62.297	134.890	
49.00	-62.430	164.152	
50.00	-63.047	-159.463	
51.00	-63.705	-114.309	
52.00	-62.449	-74.491	
53.00	-61.489	-36.499	
54.00	-61.173	-9.301	
55.00	-62.372	24.597	
56.00	-61.724	50.381	
57.00	-62.920	76.812	
58.00	-63.802	107.852	
59.00	-66.165	135.945	
60.00	-67.704	-176.125	
61.00	-66.221	-128.650	
62.00	-65.295	-98.948	
63.00	-65.858	-74.643	
64.00	-66.293	-32.305	
65.00	-66.761	-4.822	
66.00	-66.692	30.454	
67.00	-66.317	63.105	
68.00	-66.925	98.797	
69.00	-65.009	139.482	
70.00	-66.933	179.378	
71.00	-66.068	-146.426	
72.00	-65.103	-111.454	
73.00	-64.142	-76.902	
74.00	-64.123	-49.700	
75.00	-62.375	-23.082	
76.00	-61.230	6.023	
77.00	-60.229	32.941	
78.00	-58.693	57.677	
79.00	-57.983	83.673	
80.00	-57.612	107.752	
81.00	-57.002	126.363	
82.00	-56.442	148.347	
83.00	-56.325	170.569	
84.00	-55.972	-171.246	
85.00	-55.838	-147.097	
86.00	-56.185	-125.641	
87.00	-55.868	-104.382	
88.00	-56.248	-84.431	
89.00	-56.464	-58.368	
90.00	-56.632	-38.374	
91.00	-56.812	-13.363	
92.00	-56.993	4.694	
93.00	-56.771	26.248	
94.00	-57.990	46.817	
95.00	-58.225	66.898	
96.00	-58.711	90.253	
97.00	-61.326	109.026	
98.00	-63.085	128.646	
99.00	-64.660	154.600	
100.00	-67.778	172.275	
101.00	-86.908	-139.356	
102.00	-75.835	1.345	
103.00	-68.369	33.591	
104.00	-64.342	70.519	
105.00	-61.018	91.797	
106.00	-58.747	112.003	
107.00	-57.313	131.046	
108.00	-55.530	149.971	
109.00	-54.307	163.680	
110.00	-53.458	-172.712	
111.00	-53.139	-153.589	
112.00	-52.420	-127.779	
113.00	-52.142	-107.614	
114.00	-51.867	-83.743	
115.00	-51.931	-63.587	
116.00	-52.053	-39.684	
117.00	-52.550	-19.412	
118.00	-53.369	5.362	
119.00	-54.993	28.505	
120.00	-57.059	62.795	
121.00	-59.494	107.975	
122.00	-59.492	164.913	
123.00	-55.955	-150.963	
124.00	-52.644	-116.496	
125.00	-50.126	-94.203	
126.00	-48.371	-72.312	
127.00	-47.352	-51.940	
128.00	-46.644	-32.900	
129.00	-46.287	-15.382	
130.00	-46.395	2.539	
131.00	-46.913	18.463	
132.00	-48.203	34.157	
133.00	-49.856	47.523	
134.00	-52.805	57.701	
135.00	-57.161	54.267	
136.00	-60.025	12.161	
137.00	-54.898	-17.267	
138.00	-51.042	-12.664	
139.00	-48.884	-0.323	
140.00	-47.494	11.098	
141.00	-47.294	26.016	
142.00	-47.800	40.641	
143.00	-49.023	57.627	
144.00	-51.268	78.404	
145.00	-54.756	103.495	
146.00	-58.555	151.998	
147.00	-58.587	-140.276	
148.00	-55.911	-98.835	
149.00	-54.297	-71.461	
150.00	-53.664	-36.459	
151.00	-52.926	-6.417	
152.00	-51.834	34.297	
153.00	-50.325	62.977	
154.00	-48.233	89.087	
155.00	-46.811	105.484	
156.00	-45.763	119.886	
157.00	-45.590	130.554	
158.00	-45.913	136.366	
159.00	-47.196	148.268	
160.00	-49.557	149.721	
161.00	-53.236	148.709	
162.00	-57.846	131.976	
163.00	-60.668	91.693	
164.00	-60.293	83.238	
165.00	-59.773	107.815	
166.00	-58.313	153.790	
167.00	-53.243	-175.298	
168.00	-49.674	-160.191	
169.00	-47.446	-153.996	
170.00	-46.440	-151.743	
171.00	-47.133	-155.443	
172.00	-49.408	-177.073	
173.00	-49.035	130.809	
174.00	-43.191	103.604	
175.00	-38.391	93.130	
176.00	-34.854	92.551	
177.00	-32.103	90.801	
178.00	-30.223	91.011	
179.00	-28.890	91.530	
180.00	-28.048	92.131	
181.00	-27.714	89.942	
182.00	-27.775	89.751	
183.00	-28.393	89.871	
184.00	-29.356	86.349	
185.00	-30.980	81.840	
186.00	-33.149	74.811	
187.00	-36.103	65.102	
188.00	-39.984	48.734	
189.00	-44.251	17.044	
190.00	-45.655	-28.868	
191.00	-44.481	-59.504	
192.00	-43.806	-78.961	
193.00	-44.837	-91.092	
194.00	-47.335	-102.918	
195.00	-52.881	-120.540	
196.00	-62.219	151.883	
197.00	-52.668	80.429	
198.00	-48.006	63.764	
199.00	-45.956	53.442	
200.00	-45.460	44.721	
201.00	-46.348	36.973	
202.00	-48.687	29.947	
203.00	-53.340	29.881	
204.00	-60.996	77.570	
205.00	-54.195	142.163	
206.00	-48.931	144.576	
207.00	-46.021	135.707	
208.00	-44.730	123.821	
209.00	-44.246	113.893	
210.00	-44.397	99.547	
211.00	-45.425	83.925	
212.00	-46.934	65.410	
213.00	-49.083	39.921	
214.00	-51.233	9.870	
215.00	-52.345	-29.659	
216.00	-52.524	-65.496	
217.00	-51.921	-94.469	
218.00	-51.616	-119.099	
219.00	-51.608	-143.684	
220.00	-52.529	-164.699	
221.00	-53.354	168.186	
222.00	-55.175	145.017	
223.00	-56.593	118.304	
224.00	-57.895	89.228	
225.00	-59.021	57.487	
226.00	-60.880	22.480	
227.00	-61.910	-18.936	
228.00	-61.289	-40.200	
229.00	-63.192	-60.430	
230.00	-63.439	-94.554	
231.00	-65.108	-120.484	
232.00	-67.219	-153.461	
233.00	-69.453	-174.491	
234.00	-73.848	-179.180	
235.00	-73.656	-169.603	
236.00	-73.179	-157.242	
237.00	-69.386	-137.796	
238.00	-66.935	-163.477	
239.00	-64.472	-162.374	
240.00	-63.343	166.006	
241.00	-62.083	150.246	
242.00	-61.662	121.947	
243.00	-60.768	97.999	
244.00	-60.679	80.013	
245.00	-59.690	60.930	
246.00	-60.199	45.515	
247.00	-59.553	22.974	
248.00	-59.744	13.552	
249.00	-60.503	-8.020	
250.00	-61.672	-21.099	
251.00	-62.283	-37.684	
252.00	-64.139	-53.688	
253.00	-66.270	-66.479	
254.00	-66.741	-73.843	
255.00	-70.502	-61.918	
256.00	-73.792	-63.295	
257.00	-76.476	8.248	
258.00	-72.505	19.812	
259.00	-73.325	6.459	
260.00	-70.389	9.496	
261.00	-66.539	-9.693	
262.00	-66.252	-20.024	
263.00	-68.403	-34.486	
264.00	-67.555	-47.740	
265.00	-68.969	-68.435	
266.00	-71.236	-80.977	
267.00	-74.146	-101.324	
268.00	-75.398	-109.401	
269.00	-79.118	-151.556	
270.00	-77.500	157.717	
271.00	-78.998	92.656	
272.00	-76.412	80.352	
273.00	-71.648	54.013	
274.00	-71.791	46.292	
275.00	-76.510	6.751	
276.00	-78.416	25.418	
277.00	-74.685	12.180	
278.00	-80.792	95.750	
279.00	-76.242	93.062	
280.00	-71.494	99.211	
281.00	-72.890	72.950	
282.00	-72.158	77.984	
283.00	-70.474	58.090	
284.00	-72.633	15.408	
285.00	-72.335	16.600	
286.00	-74.432	-1.795	
287.00	-69.583	-29.471	
288.00	-75.607	-68.921	
289.00	-74.879	-101.719	
290.00	-74.784	-140.978	
291.00	-74.094	154.256	
292.00	-70.767	132.693	
293.00	-70.098	97.175	
294.00	-67.391	70.126	
295.00	-67.826	64.509	
296.00	-69.533	46.183	
297.00	-72.219	42.285	
298.00	-72.652	36.243	
299.00	-82.475	70.272	
300.00	-79.198	111.533	
301.00	-73.377	126.573	
302.00	-71.177	118.919	
303.00	-69.686	103.801	
304.00	-70.429	93.386	
305.00	-70.996	72.035	
306.00	-74.709	61.002	
307.00	-75.873	33.410	
308.00	-79.513	-32.655	
309.00	-74.864	-104.350	
310.00	-73.074	-103.256	
311.00	-71.433	-129.092	
312.00	-71.957	-105.387	
313.00	-70.887	-136.349	
314.00	-71.753	-112.337	
315.00	-74.061	-145.132	
316.00	-77.569	-108.058	
317.00	-80.671	-93.267	
318.00	-90.814	-127.322	
319.00	-83.989	-142.731	
320.00	-80.191	-94.473	
321.00	-75.075	-83.967	
322.00	-72.437	-126.779	
323.00	-69.813	-116.012	
324.00	-71.406	-123.022	
325.00	-70.439	-137.881	
326.00	-75.693	-164.535	
327.00	-81.710	126.893	
328.00	-74.524	93.274	
329.00	-74.363	46.161	
330.00	-74.475	22.012	
331.00	-91.071	-115.378	
332.00	-77.502	-169.793	
333.00	-75.660	-140.932	
334.00	-73.716	168.010	
335.00	-75.615	165.916	
336.00	-77.554	119.400	
337.00	-76.436	14.389	
338.00	-73.827	27.193	
339.00	-76.603	-7.816	
340.00	-76.878	-6.283	
341.00	-82.647	165.630	
342.00	-77.887	155.178	
343.00	-79.282	148.552	
344.00	-77.450	123.754	
345.00	-77.458	47.323	
346.00	-70.771	17.668	
347.00	-68.191	-9.425	
348.00	-65.770	-10.079	
349.00	-67.654	-22.636	
350.00	-70.806	-19.049	
351.00	-73.528	-33.401	
352.00	-73.599	-39.171	
353.00	-71.506	-30.582	
354.00	-69.512	-9.210	
355.00	-69.246	13.259	
356.00	-68.300	6.137	
357.00	-69.978	20.912	
358.00	-74.312	34.085	
359.00	-79.224	96.904	
Frequency	3450.00	MHz	
Channel	test		
Scan Axis name	Azimuth  [deg]		
Scan Axis	Amplitude	Phase	
			
0.00	-79.338	-145.320	
1.00	-67.809	-17.737	
2.00	-64.683	-17.061	
3.00	-63.386	-47.597	
4.00	-62.887	-13.429	
5.00	-63.329	-14.974	
6.00	-69.831	-7.310	
7.00	-65.729	23.010	
8.00	-68.947	62.542	
9.00	-67.440	96.116	
10.00	-66.132	112.119	
11.00	-64.415	134.526	
12.00	-62.368	158.466	
13.00	-64.180	171.195	
14.00	-66.803	-173.626	
15.00	-70.329	-177.787	
16.00	-72.820	8.832	
17.00	-80.258	7.792	
18.00	-68.698	7.359	
19.00	-65.244	56.374	
20.00	-64.843	71.191	
21.00	-65.437	135.865	
22.00	-69.851	138.895	
23.00	-63.688	178.935	
24.00	-66.624	-136.948	
25.00	-67.110	-126.259	
26.00	-67.972	-99.604	
27.00	-63.493	-107.090	
28.00	-72.699	-103.516	
29.00	-82.141	29.281	
30.00	-76.020	169.002	
31.00	-74.511	136.115	
32.00	-68.338	114.246	
33.00	-62.500	142.234	
34.00	-62.229	154.387	
35.00	-61.110	171.065	
36.00	-61.271	-167.038	
37.00	-64.572	-164.564	
38.00	-65.576	-109.150	
39.00	-63.170	-67.443	
40.00	-66.082	-51.483	
41.00	-63.704	16.253	
42.00	-65.813	47.690	
43.00	-62.181	100.781	
44.00	-62.498	128.202	
45.00	-60.854	151.512	
46.00	-58.797	176.233	
47.00	-60.670	-143.614	
48.00	-61.975	-123.437	
49.00	-61.781	-91.329	
50.00	-62.576	-49.139	
51.00	-63.530	-6.472	
52.00	-65.955	12.251	
53.00	-63.198	66.650	
54.00	-65.143	71.998	
55.00	-64.274	121.229	
56.00	-63.258	167.635	
57.00	-63.521	-150.348	
58.00	-62.686	-141.346	
59.00	-63.920	-101.503	
60.00	-65.483	-96.437	
61.00	-67.700	-54.791	
62.00	-65.533	-24.735	
63.00	-68.130	18.458	
64.00	-67.588	58.764	
65.00	-70.268	34.865	
66.00	-68.888	105.746	
67.00	-71.726	150.923	
68.00	-72.348	-138.974	
69.00	-64.858	-93.264	
70.00	-67.968	-99.557	
71.00	-72.523	-65.083	
72.00	-69.008	-5.662	
73.00	-68.149	17.548	
74.00	-69.722	77.148	
75.00	-63.705	102.828	
76.00	-63.910	120.693	
77.00	-64.819	130.689	
78.00	-60.920	158.752	
79.00	-61.164	176.792	
80.00	-60.666	-175.841	
81.00	-61.036	-149.983	
82.00	-60.200	-113.045	
83.00	-62.310	-93.252	
84.00	-62.541	-84.207	
85.00	-61.529	-47.296	
86.00	-60.273	-42.898	
87.00	-62.796	-13.220	
88.00	-64.489	19.142	
89.00	-62.332	41.316	
90.00	-65.446	54.666	
91.00	-66.347	87.759	
92.00	-65.683	113.895	
93.00	-63.598	115.639	
94.00	-64.694	138.094	
95.00	-68.351	174.283	
96.00	-66.368	-160.485	
97.00	-68.692	-145.596	
98.00	-75.033	179.458	
99.00	-76.960	143.491	
100.00	-78.559	111.364	
101.00	-65.999	132.888	
102.00	-66.400	131.437	
103.00	-65.578	156.259	
104.00	-60.899	163.711	
105.00	-64.019	-171.639	
106.00	-58.195	-153.663	
107.00	-60.306	-128.924	
108.00	-58.756	-111.425	
109.00	-57.008	-90.157	
110.00	-56.416	-66.817	
111.00	-55.430	-47.851	
112.00	-54.973	-27.586	
113.00	-54.915	-4.123	
114.00	-54.120	26.366	
115.00	-54.150	38.451	
116.00	-53.779	58.646	
117.00	-53.593	87.046	
118.00	-54.334	102.461	
119.00	-55.197	127.604	
120.00	-56.642	138.937	
121.00	-57.625	172.087	
122.00	-65.359	-157.382	
123.00	-72.160	-82.744	
124.00	-62.827	0.040	
125.00	-57.220	26.267	
126.00	-53.333	53.374	
127.00	-51.329	70.775	
128.00	-49.204	93.163	
129.00	-48.310	109.369	
130.00	-47.301	128.074	
131.00	-47.245	142.733	
132.00	-47.502	157.648	
133.00	-48.402	175.005	
134.00	-49.910	-175.999	
135.00	-51.343	-163.357	
136.00	-54.566	-163.117	
137.00	-56.442	174.190	
138.00	-56.240	161.618	
139.00	-53.116	148.699	
140.00	-50.395	155.641	
141.00	-48.901	164.012	
142.00	-48.498	172.760	
143.00	-48.653	-171.235	
144.00	-49.161	-156.761	
145.00	-50.389	-143.815	
146.00	-54.103	-124.934	
147.00	-57.009	-104.075	
148.00	-68.852	-64.215	
149.00	-62.158	58.209	
150.00	-58.119	100.652	
151.00	-55.433	113.800	
152.00	-53.963	138.251	
153.00	-54.787	163.254	
154.00	-54.197	-166.185	
155.00	-53.217	-140.281	
156.00	-52.184	-107.677	
157.00	-51.467	-91.778	
158.00	-51.189	-80.653	
159.00	-52.135	-59.388	
160.00	-53.875	-49.991	
161.00	-56.946	-32.412	
162.00	-58.418	-26.299	
163.00	-63.999	-27.935	
164.00	-65.707	-26.385	
165.00	-62.039	-57.635	
166.00	-57.048	-38.545	
167.00	-53.092	-33.689	
168.00	-50.321	-27.935	
169.00	-48.574	-16.606	
170.00	-48.064	-12.909	
171.00	-48.462	-14.607	
172.00	-51.581	-17.349	
173.00	-54.493	-85.201	
174.00	-47.207	-122.848	
175.00	-41.479	-135.665	
176.00	-37.297	-134.792	
177.00	-34.294	-135.974	
178.00	-32.303	-135.005	
179.00	-30.707	-134.926	
180.00	-29.739	-134.311	
181.00	-29.133	-137.480	
182.00	-29.124	-138.437	
183.00	-29.533	-139.079	
184.00	-30.456	-144.330	
185.00	-31.886	-150.677	
186.00	-33.697	-160.536	
187.00	-36.334	-174.503	
188.00	-39.011	165.082	
189.00	-40.932	138.439	
190.00	-41.738	106.367	
191.00	-41.786	84.549	
192.00	-42.204	70.644	
193.00	-44.025	60.592	
194.00	-46.788	51.576	
195.00	-52.545	49.457	
196.00	-60.896	141.888	
197.00	-52.144	-174.726	
198.00	-47.729	176.256	
199.00	-45.701	167.954	
200.00	-45.814	156.583	
201.00	-46.936	144.839	
202.00	-49.820	128.550	
203.00	-55.121	99.414	
204.00	-57.001	2.153	
205.00	-51.662	-43.935	
206.00	-47.576	-65.344	
207.00	-45.351	-85.135	
208.00	-44.462	-99.723	
209.00	-44.037	-116.592	
210.00	-44.210	-135.726	
211.00	-45.190	-155.007	
212.00	-46.151	179.495	
213.00	-47.444	153.248	
214.00	-48.657	123.315	
215.00	-49.182	91.372	
216.00	-49.122	64.783	
217.00	-49.286	40.819	
218.00	-51.030	18.222	
219.00	-51.231	-13.541	
220.00	-53.735	-37.865	
221.00	-55.898	-63.625	
222.00	-57.357	-95.999	
223.00	-58.356	-118.596	
224.00	-59.802	-178.748	
225.00	-59.191	163.224	
226.00	-60.006	134.472	
227.00	-61.131	99.919	
228.00	-62.946	72.205	
229.00	-65.784	27.339	
230.00	-66.072	-1.666	
231.00	-71.486	-21.912	
232.00	-87.377	113.628	
233.00	-75.262	65.010	
234.00	-72.176	122.459	
235.00	-71.655	99.971	
236.00	-67.386	58.789	
237.00	-64.885	30.078	
238.00	-66.041	5.286	
239.00	-64.043	-31.580	
240.00	-64.835	-43.066	
241.00	-64.492	-105.122	
242.00	-67.715	-123.813	
243.00	-67.673	-176.549	
244.00	-64.094	152.888	
245.00	-64.160	144.122	
246.00	-63.915	113.485	
247.00	-68.852	61.238	
248.00	-64.094	29.633	
249.00	-65.988	52.452	
250.00	-65.068	1.319	
251.00	-64.213	-6.630	
252.00	-69.238	-27.119	
253.00	-69.929	-32.942	
254.00	-68.992	-72.545	
255.00	-68.218	-131.756	
256.00	-73.462	135.265	
257.00	-65.864	121.637	
258.00	-63.765	99.465	
259.00	-64.547	83.377	
260.00	-60.912	48.380	
261.00	-62.510	49.153	
262.00	-60.322	29.432	
263.00	-60.288	-5.314	
264.00	-64.708	11.487	
265.00	-62.122	-13.674	
266.00	-68.532	-37.447	
267.00	-64.872	-39.386	
268.00	-64.912	-84.425	
269.00	-69.409	-78.278	
270.00	-68.378	-91.779	
271.00	-74.758	176.077	
272.00	-70.046	-165.313	
273.00	-70.638	104.388	
274.00	-72.222	135.672	
275.00	-74.746	121.736	
276.00	-70.423	88.032	
277.00	-71.004	67.215	
278.00	-69.181	58.492	
279.00	-70.802	60.274	
280.00	-73.533	99.512	
281.00	-73.556	68.775	
282.00	-72.534	60.699	
283.00	-66.339	89.752	
284.00	-75.446	107.450	
285.00	-72.340	73.559	
286.00	-66.215	74.722	
287.00	-69.141	50.742	
288.00	-65.787	37.634	
289.00	-66.402	39.331	
290.00	-84.507	95.045	
291.00	-75.431	-13.121	
292.00	-73.819	30.552	
293.00	-85.489	-152.291	
294.00	-72.714	-121.959	
295.00	-74.529	-162.636	
296.00	-71.409	168.093	
297.00	-72.312	132.173	
298.00	-75.808	129.498	
299.00	-72.734	162.752	
300.00	-84.217	-16.331	
301.00	-74.586	102.594	
302.00	-81.799	-82.310	
303.00	-73.825	21.256	
304.00	-81.114	77.889	
305.00	-82.977	141.478	
306.00	-79.973	122.097	
307.00	-73.402	-162.247	
308.00	-80.484	-105.533	
309.00	-77.114	-34.562	
310.00	-72.637	9.280	
311.00	-70.321	-54.037	
312.00	-68.856	-54.455	
313.00	-70.100	-77.866	
314.00	-67.476	-105.371	
315.00	-69.637	-101.525	
316.00	-69.542	-102.880	
317.00	-83.890	-174.258	
318.00	-70.746	-139.722	
319.00	-75.877	160.913	
320.00	-63.879	152.468	
321.00	-67.299	-127.763	
322.00	-79.804	-62.436	
323.00	-69.391	-53.933	
324.00	-68.577	-125.791	
325.00	-67.715	-77.516	
326.00	-79.348	-121.326	
327.00	-72.457	-102.308	
328.00	-72.915	-158.259	
329.00	-68.112	72.985	
330.00	-66.131	-134.253	
331.00	-69.204	-71.331	
332.00	-70.381	-117.540	
333.00	-78.436	16.830	
334.00	-75.384	-108.999	
335.00	-71.748	85.054	
336.00	-72.494	-1.148	
337.00	-77.365	36.169	
338.00	-79.662	165.377	
339.00	-72.259	52.781	
340.00	-70.909	115.738	
341.00	-69.765	64.718	
342.00	-64.466	164.634	
343.00	-86.252	-4.912	
344.00	-71.052	-138.457	
345.00	-87.388	178.018	
346.00	-67.743	115.919	
347.00	-75.026	179.490	
348.00	-66.730	-12.187	
349.00	-67.536	-5.036	
350.00	-64.883	-56.818	
351.00	-74.448	-10.789	
352.00	-71.076	-48.845	
353.00	-67.263	-6.567	
354.00	-68.027	76.619	
355.00	-70.615	56.386	
356.00	-67.331	99.801	
357.00	-69.858	60.240	
358.00	-71.174	46.860	
359.00	-73.512	143.698	
Frequency	3500.00	MHz	
Channel	test		
Scan Axis name	Azimuth  [deg]		
Scan Axis	Amplitude	Phase	
			
0.00	-79.330	50.510	
1.00	-71.477	53.803	
2.00	-68.045	61.691	
3.00	-66.104	63.270	
4.00	-66.414	67.321	
5.00	-66.046	84.931	
6.00	-68.919	95.606	
7.00	-69.747	118.949	
8.00	-70.181	160.408	
9.00	-68.981	-179.541	
10.00	-64.918	-140.186	
11.00	-64.163	-120.475	
12.00	-63.211	-89.671	
13.00	-65.358	-73.838	
14.00	-65.091	-46.593	
15.00	-68.248	-21.579	
16.00	-69.492	39.450	
17.00	-68.713	59.142	
18.00	-67.549	116.683	
19.00	-68.104	141.954	
20.00	-67.448	174.077	
21.00	-69.271	-159.519	
22.00	-70.478	-121.320	
23.00	-69.813	-86.822	
24.00	-68.840	-45.571	
25.00	-67.304	-19.356	
26.00	-66.025	-16.021	
27.00	-67.293	15.202	
28.00	-68.487	42.874	
29.00	-67.200	67.797	
30.00	-67.866	99.226	
31.00	-69.255	143.294	
32.00	-67.327	178.106	
33.00	-66.366	-139.499	
34.00	-64.331	-105.952	
35.00	-63.804	-83.397	
36.00	-64.287	-47.141	
37.00	-64.618	-20.034	
38.00	-64.806	23.129	
39.00	-64.845	63.680	
40.00	-65.476	104.127	
41.00	-63.357	144.324	
42.00	-62.759	-179.416	
43.00	-62.189	-152.764	
44.00	-61.863	-117.743	
45.00	-63.005	-82.251	
46.00	-63.514	-55.599	
47.00	-64.372	-15.241	
48.00	-65.315	11.764	
49.00	-66.203	55.636	
50.00	-66.560	91.072	
51.00	-65.204	136.532	
52.00	-66.427	169.266	
53.00	-64.160	-160.240	
54.00	-65.312	-127.397	
55.00	-66.145	-94.043	
56.00	-65.347	-48.054	
57.00	-66.472	-16.842	
58.00	-65.991	13.483	
59.00	-65.311	33.234	
60.00	-65.608	56.179	
61.00	-68.381	95.077	
62.00	-66.583	112.356	
63.00	-68.115	144.520	
64.00	-70.491	154.985	
65.00	-70.987	-162.933	
66.00	-70.293	-149.295	
67.00	-82.070	-82.705	
68.00	-89.331	-29.326	
69.00	-90.179	-38.134	
70.00	-79.180	72.856	
71.00	-76.352	111.763	
72.00	-75.224	162.525	
73.00	-73.686	145.643	
74.00	-75.599	-173.820	
75.00	-73.971	-125.142	
76.00	-76.952	-133.937	
77.00	-74.282	-103.791	
78.00	-75.868	-50.153	
79.00	-74.351	-19.809	
80.00	-72.802	2.592	
81.00	-76.801	22.934	
82.00	-71.545	67.846	
83.00	-71.570	97.340	
84.00	-67.558	113.472	
85.00	-66.926	126.976	
86.00	-66.516	142.449	
87.00	-65.979	160.022	
88.00	-65.066	171.264	
89.00	-65.130	-166.773	
90.00	-66.232	-153.856	
91.00	-68.038	-133.986	
92.00	-67.724	-117.474	
93.00	-70.178	-103.778	
94.00	-74.707	-58.633	
95.00	-72.305	-27.286	
96.00	-75.602	-1.987	
97.00	-72.374	44.407	
98.00	-77.155	78.060	
99.00	-76.231	102.389	
100.00	-72.791	130.244	
101.00	-71.673	165.844	
102.00	-79.443	-169.365	
103.00	-72.375	-135.811	
104.00	-73.783	-84.575	
105.00	-71.181	-43.707	
106.00	-68.490	2.476	
107.00	-66.836	13.247	
108.00	-65.489	49.639	
109.00	-62.559	59.842	
110.00	-61.914	84.235	
111.00	-61.345	104.541	
112.00	-60.144	131.407	
113.00	-59.474	152.894	
114.00	-58.800	174.617	
115.00	-58.146	-164.335	
116.00	-57.262	-141.588	
117.00	-57.325	-126.040	
118.00	-57.354	-101.754	
119.00	-57.871	-83.209	
120.00	-59.272	-62.608	
121.00	-61.351	-45.044	
122.00	-65.048	-25.859	
123.00	-74.068	21.744	
124.00	-68.849	158.854	
125.00	-62.951	-169.557	
126.00	-58.755	-150.370	
127.00	-55.465	-127.509	
128.00	-53.665	-105.928	
129.00	-52.132	-87.672	
130.00	-51.314	-69.527	
131.00	-50.424	-52.593	
132.00	-50.354	-36.065	
133.00	-50.445	-20.385	
134.00	-50.859	-6.966	
135.00	-51.859	1.496	
136.00	-53.235	8.707	
137.00	-54.395	6.426	
138.00	-55.313	-5.892	
139.00	-54.105	-17.349	
140.00	-52.589	-17.751	
141.00	-51.060	-12.638	
142.00	-50.010	-5.896	
143.00	-49.553	1.990	
144.00	-49.918	9.917	
145.00	-51.451	21.123	
146.00	-53.365	27.235	
147.00	-57.363	37.007	
148.00	-65.110	39.426	
149.00	-72.387	-92.542	
150.00	-61.310	-87.772	
151.00	-58.446	-81.421	
152.00	-58.132	-62.042	
153.00	-59.148	-40.079	
154.00	-61.298	-4.899	
155.00	-60.216	45.761	
156.00	-57.203	79.557	
157.00	-54.764	102.809	
158.00	-53.182	112.619	
159.00	-52.488	129.772	
160.00	-52.542	137.674	
161.00	-53.769	145.909	
162.00	-55.396	145.307	
163.00	-57.006	139.667	
164.00	-56.763	125.209	
165.00	-56.291	117.490	
166.00	-54.501	116.958	
167.00	-52.575	124.620	
168.00	-51.411	135.598	
169.00	-50.393	145.143	
170.00	-49.918	150.060	
171.00	-50.473	153.339	
172.00	-52.220	142.653	
173.00	-53.479	107.932	
174.00	-49.678	69.846	
175.00	-44.267	52.278	
176.00	-40.357	49.865	
177.00	-37.260	46.318	
178.00	-35.139	45.773	
179.00	-33.557	44.459	
180.00	-32.558	43.940	
181.00	-32.089	40.400	
182.00	-32.096	38.139	
183.00	-32.730	36.293	
184.00	-33.668	28.817	
185.00	-35.340	20.215	
186.00	-37.634	7.713	
187.00	-40.208	-12.013	
188.00	-42.308	-39.693	
189.00	-43.150	-69.174	
190.00	-43.047	-95.074	
191.00	-42.859	-110.441	
192.00	-43.833	-120.977	
193.00	-45.656	-130.135	
194.00	-49.219	-133.653	
195.00	-56.195	-119.645	
196.00	-58.351	-44.343	
197.00	-52.200	-20.743	
198.00	-49.536	-25.035	
199.00	-48.723	-33.010	
200.00	-49.643	-45.493	
201.00	-51.972	-66.003	
202.00	-56.110	-107.213	
203.00	-56.419	-176.432	
204.00	-51.590	137.517	
205.00	-48.343	116.174	
206.00	-46.855	99.789	
207.00	-46.009	81.122	
208.00	-45.834	62.842	
209.00	-46.199	44.081	
210.00	-47.175	22.750	
211.00	-48.278	-2.871	
212.00	-49.269	-31.976	
213.00	-50.115	-65.633	
214.00	-50.064	-96.467	
215.00	-50.136	-122.525	
216.00	-49.874	-146.069	
217.00	-50.029	-168.481	
218.00	-50.664	175.091	
219.00	-52.084	151.771	
220.00	-53.946	133.161	
221.00	-56.169	113.206	
222.00	-59.469	94.592	
223.00	-64.344	64.780	
224.00	-75.009	28.892	
225.00	-71.232	-70.306	
226.00	-69.783	-117.028	
227.00	-66.872	-142.413	
228.00	-68.851	-163.052	
229.00	-69.682	-170.677	
230.00	-72.302	-177.279	
231.00	-72.473	-151.129	
232.00	-72.304	-140.138	
233.00	-69.802	-143.799	
234.00	-66.961	-152.941	
235.00	-64.483	-175.644	
236.00	-64.269	166.431	
237.00	-63.280	143.489	
238.00	-63.481	125.856	
239.00	-63.618	104.843	
240.00	-65.789	93.847	
241.00	-66.607	58.115	
242.00	-70.203	17.521	
243.00	-72.422	-30.908	
244.00	-70.211	-81.146	
245.00	-68.393	-131.479	
246.00	-67.464	-140.804	
247.00	-65.987	174.354	
248.00	-64.683	155.577	
249.00	-65.834	135.131	
250.00	-63.540	112.621	
251.00	-64.621	100.378	
252.00	-65.930	82.182	
253.00	-70.117	62.199	
254.00	-69.571	49.664	
255.00	-72.293	32.231	
256.00	-77.853	74.302	
257.00	-81.578	29.874	
258.00	-79.301	-165.786	
259.00	-79.757	-152.519	
260.00	-77.420	163.097	
261.00	-74.724	127.444	
262.00	-74.200	133.949	
263.00	-73.474	119.053	
264.00	-72.812	106.316	
265.00	-73.247	99.444	
266.00	-73.317	107.439	
267.00	-72.239	100.804	
268.00	-74.214	91.443	
269.00	-73.615	95.099	
270.00	-75.284	99.655	
271.00	-77.540	62.937	
272.00	-76.543	38.476	
273.00	-77.803	20.217	
274.00	-77.969	-2.616	
275.00	-75.222	-11.750	
276.00	-74.049	-59.980	
277.00	-77.511	-110.049	
278.00	-74.897	-83.318	
279.00	-75.567	-93.652	
280.00	-75.515	-168.621	
281.00	-80.935	-138.914	
282.00	-83.861	139.284	
283.00	-79.996	130.462	
284.00	-83.102	68.778	
285.00	-79.445	12.900	
286.00	-84.617	-48.654	
287.00	-77.311	-57.811	
288.00	-73.237	-42.019	
289.00	-73.826	-109.987	
290.00	-74.521	-121.535	
291.00	-75.498	-135.239	
292.00	-74.784	-176.471	
293.00	-75.109	174.584	
294.00	-75.026	126.840	
295.00	-75.574	125.785	
296.00	-72.679	108.412	
297.00	-74.189	77.311	
298.00	-72.848	88.973	
299.00	-77.477	58.325	
300.00	-75.001	18.878	
301.00	-75.689	27.523	
302.00	-73.471	-23.398	
303.00	-78.204	-35.423	
304.00	-72.347	-66.572	
305.00	-74.208	-77.068	
306.00	-73.505	-119.392	
307.00	-75.726	-140.999	
308.00	-77.321	133.610	
309.00	-77.067	116.024	
310.00	-72.379	87.723	
311.00	-72.146	60.410	
312.00	-73.557	58.213	
313.00	-72.064	18.282	
314.00	-73.245	-10.406	
315.00	-78.646	-41.274	
316.00	-76.703	-72.091	
317.00	-75.899	-106.685	
318.00	-84.741	-159.096	
319.00	-77.609	-143.454	
320.00	-83.501	-30.442	
321.00	-72.360	-47.871	
322.00	-75.463	-39.802	
323.00	-72.332	-48.388	
324.00	-72.784	-35.213	
325.00	-75.526	-48.895	
326.00	-75.338	-47.811	
327.00	-75.467	-63.580	
328.00	-78.969	-61.161	
329.00	-76.130	-24.540	
330.00	-78.369	-13.927	
331.00	-74.396	-27.569	
332.00	-74.825	-12.168	
333.00	-71.960	-13.182	
334.00	-74.679	-9.943	
335.00	-74.995	48.204	
336.00	-76.744	45.880	
337.00	-89.712	117.732	
338.00	-77.260	-152.432	
339.00	-71.392	-166.847	
340.00	-69.797	-159.640	
341.00	-72.792	-154.584	
342.00	-73.349	-167.857	
343.00	-76.018	167.045	
344.00	-94.154	-82.811	
345.00	-81.892	74.495	
346.00	-92.956	-28.824	
347.00	-83.019	48.271	
348.00	-79.610	-12.587	
349.00	-83.424	29.163	
350.00	-82.016	-14.269	
351.00	-85.810	47.821	
352.00	-80.947	127.426	
353.00	-72.481	141.048	
354.00	-68.184	169.286	
355.00	-66.991	-177.498	
356.00	-68.370	-166.640	
357.00	-68.180	-164.646	
358.00	-69.335	-150.936	
359.00	-79.527	-133.199	
Frequency	3550.00	MHz	
Channel	test		
Scan Axis name	Azimuth  [deg]		
Scan Axis	Amplitude	Phase	
			
0.00	-76.793	66.548	
1.00	-82.577	155.569	
2.00	-78.118	-140.504	
3.00	-69.829	-137.873	
4.00	-68.344	-140.846	
5.00	-65.486	-149.627	
6.00	-65.244	-134.642	
7.00	-65.546	-140.360	
8.00	-65.681	-127.223	
9.00	-70.345	-106.672	
10.00	-76.311	-36.919	
11.00	-69.207	12.194	
12.00	-66.208	41.621	
13.00	-63.934	55.516	
14.00	-63.717	64.270	
15.00	-66.757	75.965	
16.00	-72.714	104.315	
17.00	-81.805	-133.184	
18.00	-68.287	-107.745	
19.00	-65.038	-80.249	
20.00	-64.645	-72.166	
21.00	-66.444	-71.016	
22.00	-69.592	-38.941	
23.00	-76.813	-19.545	
24.00	-76.822	53.356	
25.00	-71.827	111.124	
26.00	-73.217	132.075	
27.00	-71.293	155.684	
28.00	-70.596	172.705	
29.00	-71.263	-173.564	
30.00	-74.179	-144.265	
31.00	-76.233	-100.315	
32.00	-70.147	2.035	
33.00	-66.660	24.324	
34.00	-63.761	50.536	
35.00	-62.982	65.419	
36.00	-63.791	92.050	
37.00	-64.720	114.890	
38.00	-65.761	151.331	
39.00	-68.480	-162.266	
40.00	-69.270	-108.364	
41.00	-64.775	-71.735	
42.00	-62.822	-29.560	
43.00	-62.018	-3.268	
44.00	-62.166	22.220	
45.00	-63.151	53.335	
46.00	-64.391	85.011	
47.00	-66.789	129.637	
48.00	-65.741	170.120	
49.00	-65.638	-138.265	
50.00	-64.438	-105.849	
51.00	-63.454	-70.310	
52.00	-62.878	-44.371	
53.00	-62.649	-21.922	
54.00	-63.198	5.088	
55.00	-63.997	29.139	
56.00	-65.150	64.221	
57.00	-66.071	80.486	
58.00	-67.146	97.548	
59.00	-71.438	113.868	
60.00	-81.229	139.461	
61.00	-86.590	-167.820	
62.00	-75.374	-23.314	
63.00	-75.028	4.206	
64.00	-72.137	25.056	
65.00	-72.150	47.198	
66.00	-70.703	48.783	
67.00	-73.783	71.289	
68.00	-71.051	84.923	
69.00	-73.782	81.978	
70.00	-77.296	83.123	
71.00	-73.048	92.236	
72.00	-72.324	76.457	
73.00	-71.653	74.518	
74.00	-71.315	76.294	
75.00	-69.069	88.494	
76.00	-68.265	104.073	
77.00	-68.420	124.991	
78.00	-67.277	128.759	
79.00	-66.365	157.946	
80.00	-67.366	169.936	
81.00	-67.473	175.737	
82.00	-66.856	-170.413	
83.00	-67.963	-142.867	
84.00	-67.394	-133.830	
85.00	-69.066	-97.947	
86.00	-70.302	-70.019	
87.00	-72.064	-51.744	
88.00	-68.468	-12.625	
89.00	-69.179	22.332	
90.00	-67.681	41.368	
91.00	-66.576	92.210	
92.00	-63.886	106.325	
93.00	-63.701	124.430	
94.00	-63.219	144.196	
95.00	-62.523	161.950	
96.00	-61.820	-179.764	
97.00	-62.191	-165.511	
98.00	-62.831	-140.713	
99.00	-63.145	-128.183	
100.00	-64.048	-106.208	
101.00	-65.568	-71.134	
102.00	-67.098	-40.407	
103.00	-66.647	-9.942	
104.00	-66.737	13.873	
105.00	-66.886	44.377	
106.00	-66.087	80.085	
107.00	-67.032	110.310	
108.00	-65.460	131.407	
109.00	-64.993	154.814	
110.00	-62.824	-174.786	
111.00	-61.737	-153.205	
112.00	-61.559	-123.199	
113.00	-61.138	-105.574	
114.00	-61.750	-79.404	
115.00	-61.917	-57.843	
116.00	-61.636	-28.527	
117.00	-61.516	-8.247	
118.00	-60.871	26.292	
119.00	-61.799	41.116	
120.00	-63.150	68.766	
121.00	-63.388	96.592	
122.00	-68.216	138.262	
123.00	-70.998	-161.600	
124.00	-69.774	-70.111	
125.00	-62.959	-38.859	
126.00	-58.535	-13.577	
127.00	-55.137	9.620	
128.00	-53.055	31.781	
129.00	-51.024	48.275	
130.00	-49.468	67.602	
131.00	-48.577	82.853	
132.00	-47.703	100.409	
133.00	-47.237	113.716	
134.00	-47.115	128.436	
135.00	-47.252	135.977	
136.00	-47.877	145.871	
137.00	-48.399	148.401	
138.00	-48.985	147.931	
139.00	-49.075	143.369	
140.00	-48.316	138.771	
141.00	-47.226	137.533	
142.00	-46.331	140.521	
143.00	-45.857	145.139	
144.00	-45.924	152.530	
145.00	-46.462	160.003	
146.00	-48.086	163.289	
147.00	-50.488	169.575	
148.00	-54.636	169.459	
149.00	-61.185	151.018	
150.00	-64.081	97.646	
151.00	-59.935	73.120	
152.00	-58.674	72.004	
153.00	-60.753	88.014	
154.00	-68.244	133.162	
155.00	-61.220	-135.056	
156.00	-54.782	-112.667	
157.00	-51.345	-104.059	
158.00	-49.278	-99.815	
159.00	-48.110	-93.644	
160.00	-48.241	-92.831	
161.00	-48.528	-94.852	
162.00	-48.950	-103.283	
163.00	-48.987	-111.871	
164.00	-48.371	-120.612	
165.00	-47.771	-122.714	
166.00	-47.180	-121.063	
167.00	-46.974	-111.681	
168.00	-46.997	-100.265	
169.00	-47.384	-89.313	
170.00	-48.023	-83.168	
171.00	-49.189	-77.910	
172.00	-50.859	-94.908	
173.00	-50.630	-133.215	
174.00	-45.143	-155.162	
175.00	-40.446	-166.880	
176.00	-36.809	-167.321	
177.00	-34.110	-168.572	
178.00	-32.243	-168.439	
179.00	-30.703	-170.065	
180.00	-29.939	-170.199	
181.00	-29.612	-173.569	
182.00	-29.732	-176.375	
183.00	-30.578	-177.606	
184.00	-31.847	174.825	
185.00	-33.711	165.127	
186.00	-36.326	150.828	
187.00	-39.371	127.978	
188.00	-41.385	94.742	
189.00	-41.418	63.298	
190.00	-40.780	39.044	
191.00	-40.754	26.493	
192.00	-41.802	17.282	
193.00	-43.961	9.659	
194.00	-47.792	10.263	
195.00	-54.317	31.078	
196.00	-54.948	97.274	
197.00	-49.845	115.030	
198.00	-48.115	111.260	
199.00	-48.387	101.379	
200.00	-50.616	87.802	
201.00	-56.197	52.651	
202.00	-56.713	-42.722	
203.00	-49.605	-86.022	
204.00	-45.843	-106.295	
205.00	-43.610	-122.777	
206.00	-42.300	-135.764	
207.00	-41.883	-152.307	
208.00	-41.850	-170.340	
209.00	-42.561	171.586	
210.00	-43.612	150.752	
211.00	-44.948	124.367	
212.00	-46.029	94.660	
213.00	-46.932	60.467	
214.00	-47.010	31.320	
215.00	-46.907	2.991	
216.00	-47.008	-21.227	
217.00	-47.297	-45.083	
218.00	-48.048	-64.021	
219.00	-49.070	-88.673	
220.00	-50.665	-106.472	
221.00	-52.719	-127.922	
222.00	-55.822	-145.574	
223.00	-59.849	-168.004	
224.00	-64.886	164.905	
225.00	-73.537	63.410	
226.00	-73.572	-11.715	
227.00	-69.713	-36.116	
228.00	-67.746	-59.914	
229.00	-70.098	-76.774	
230.00	-73.807	-85.555	
231.00	-79.814	-0.058	
232.00	-73.208	-20.922	
233.00	-68.085	-39.386	
234.00	-64.688	-39.477	
235.00	-63.269	-63.666	
236.00	-61.835	-86.983	
237.00	-60.997	-108.721	
238.00	-60.165	-126.349	
239.00	-59.967	-144.851	
240.00	-60.299	-162.242	
241.00	-60.746	177.021	
242.00	-62.836	155.033	
243.00	-65.352	132.432	
244.00	-67.409	116.179	
245.00	-71.046	71.493	
246.00	-74.524	23.882	
247.00	-72.545	-28.959	
248.00	-73.694	-41.652	
249.00	-70.740	-81.216	
250.00	-68.086	-96.372	
251.00	-68.748	-97.968	
252.00	-68.030	-117.449	
253.00	-67.224	-121.097	
254.00	-67.362	-119.638	
255.00	-68.375	-137.743	
256.00	-68.322	-152.052	
257.00	-68.557	-153.036	
258.00	-66.932	-166.228	
259.00	-71.129	170.808	
260.00	-71.641	173.453	
261.00	-72.177	146.490	
262.00	-75.035	135.462	
263.00	-110.026	113.872	
264.00	-77.253	-101.397	
265.00	-74.733	-83.671	
266.00	-72.439	-99.478	
267.00	-70.344	-119.330	
268.00	-65.668	-126.217	
269.00	-66.992	-132.962	
270.00	-66.383	-156.451	
271.00	-66.272	-176.211	
272.00	-65.910	164.619	
273.00	-66.653	139.354	
274.00	-67.250	118.822	
275.00	-67.902	87.998	
276.00	-68.891	59.495	
277.00	-68.302	19.186	
278.00	-68.919	-2.141	
279.00	-68.659	-27.696	
280.00	-69.139	-38.027	
281.00	-67.159	-57.061	
282.00	-67.914	-87.876	
283.00	-67.497	-105.518	
284.00	-69.107	-126.541	
285.00	-72.717	-141.102	
286.00	-74.380	-120.800	
287.00	-77.527	-110.673	
288.00	-77.629	-118.591	
289.00	-78.479	-53.891	
290.00	-75.100	-81.346	
291.00	-74.645	-94.475	
292.00	-72.929	-75.760	
293.00	-70.436	-115.810	
294.00	-74.048	-135.879	
295.00	-70.848	-155.973	
296.00	-71.431	-165.439	
297.00	-72.848	178.767	
298.00	-74.403	143.191	
299.00	-74.463	133.075	
300.00	-73.290	82.220	
301.00	-73.212	83.267	
302.00	-73.002	52.752	
303.00	-75.507	38.085	
304.00	-71.586	25.356	
305.00	-72.957	-2.278	
306.00	-71.695	-4.168	
307.00	-74.766	-45.362	
308.00	-78.115	-77.246	
309.00	-83.220	-71.216	
310.00	-74.231	-166.566	
311.00	-74.205	163.388	
312.00	-76.728	138.062	
313.00	-71.078	125.435	
314.00	-73.850	105.436	
315.00	-83.803	40.543	
316.00	-81.479	97.711	
317.00	-83.014	-7.215	
318.00	-89.628	-89.518	
319.00	-90.483	178.987	
320.00	-93.373	-147.747	
321.00	-75.321	113.568	
322.00	-72.386	117.139	
323.00	-70.189	98.315	
324.00	-74.146	111.447	
325.00	-74.744	96.274	
326.00	-73.256	73.701	
327.00	-76.010	78.335	
328.00	-75.031	20.806	
329.00	-78.313	49.024	
330.00	-78.855	21.592	
331.00	-72.012	15.223	
332.00	-77.879	9.256	
333.00	-78.532	-15.028	
334.00	-76.478	-9.099	
335.00	-75.786	16.266	
336.00	-74.787	-47.970	
337.00	-70.918	-36.244	
338.00	-71.371	-53.585	
339.00	-69.458	-62.169	
340.00	-73.650	-77.795	
341.00	-75.681	-83.610	
342.00	-87.497	76.879	
343.00	-73.465	135.717	
344.00	-72.065	101.907	
345.00	-68.884	85.584	
346.00	-68.749	77.504	
347.00	-70.641	58.377	
348.00	-74.144	62.079	
349.00	-76.237	29.723	
350.00	-87.723	126.103	
351.00	-72.001	-139.264	
352.00	-70.325	-153.020	
353.00	-69.162	-142.502	
354.00	-68.291	-144.061	
355.00	-68.352	-144.434	
356.00	-72.755	-136.460	
357.00	-82.007	173.781	
358.00	-76.561	84.614	
359.00	-72.510	68.063	
Frequency	3575.00	MHz	
Channel	test		
Scan Axis name	Azimuth  [deg]		
Scan Axis	Amplitude	Phase	
			
0.00	-69.108	-147.038	
1.00	-70.065	155.580	
2.00	-72.043	138.468	
3.00	-65.928	83.125	
4.00	-65.496	114.219	
5.00	-65.431	78.060	
6.00	-62.609	79.969	
7.00	-67.206	80.432	
8.00	-73.526	75.632	
9.00	-79.395	62.198	
10.00	-72.668	-62.867	
11.00	-72.630	-103.422	
12.00	-70.022	-84.453	
13.00	-64.853	-65.850	
14.00	-65.784	-77.491	
15.00	-68.048	-57.120	
16.00	-75.346	118.981	
17.00	-67.544	101.426	
18.00	-69.459	126.908	
19.00	-68.014	125.357	
20.00	-67.345	133.528	
21.00	-76.128	135.510	
22.00	-71.487	122.881	
23.00	-70.884	110.827	
24.00	-72.110	7.657	
25.00	-71.100	49.216	
26.00	-69.617	4.647	
27.00	-65.975	11.508	
28.00	-67.817	1.882	
29.00	-73.348	51.360	
30.00	-79.521	166.728	
31.00	-78.776	-169.753	
32.00	-68.690	-110.341	
33.00	-66.141	-86.570	
34.00	-62.063	-89.143	
35.00	-61.221	-77.077	
36.00	-63.948	-36.496	
37.00	-71.542	-7.964	
38.00	-78.042	41.931	
39.00	-71.881	116.373	
40.00	-64.321	178.787	
41.00	-61.059	-167.743	
42.00	-64.040	-137.566	
43.00	-61.742	-122.054	
44.00	-63.243	-88.675	
45.00	-67.633	-64.364	
46.00	-75.595	-38.383	
47.00	-65.336	-0.123	
48.00	-67.589	100.620	
49.00	-63.301	121.488	
50.00	-62.401	142.189	
51.00	-65.229	155.874	
52.00	-65.334	-149.288	
53.00	-67.577	-158.732	
54.00	-67.104	-142.140	
55.00	-73.840	-54.461	
56.00	-70.308	-94.618	
57.00	-90.490	96.053	
58.00	-76.668	11.118	
59.00	-83.834	68.659	
60.00	-71.272	156.373	
61.00	-66.221	145.127	
62.00	-69.241	-159.563	
63.00	-70.438	160.786	
64.00	-67.195	179.844	
65.00	-67.589	-135.959	
66.00	-66.122	-162.465	
67.00	-69.156	-139.533	
68.00	-69.414	-75.627	
69.00	-67.750	-106.541	
70.00	-65.518	-80.085	
71.00	-70.693	-89.746	
72.00	-70.127	-77.078	
73.00	-79.978	-55.054	
74.00	-70.024	-51.302	
75.00	-75.916	-48.626	
76.00	-68.977	-10.605	
77.00	-71.718	2.712	
78.00	-72.343	26.144	
79.00	-65.826	-4.999	
80.00	-68.079	44.368	
81.00	-67.944	15.158	
82.00	-69.355	56.654	
83.00	-67.480	70.351	
84.00	-67.699	87.459	
85.00	-68.180	99.596	
86.00	-65.362	130.163	
87.00	-71.534	174.794	
88.00	-66.614	-166.372	
89.00	-71.900	-136.026	
90.00	-68.934	-105.211	
91.00	-70.183	-104.487	
92.00	-64.677	-47.806	
93.00	-70.541	-38.760	
94.00	-69.721	-22.331	
95.00	-65.366	13.907	
96.00	-65.824	39.349	
97.00	-64.574	66.090	
98.00	-65.942	86.892	
99.00	-66.655	82.791	
100.00	-70.676	119.997	
101.00	-72.940	175.701	
102.00	-75.511	-104.181	
103.00	-87.960	100.718	
104.00	-75.625	-90.573	
105.00	-65.985	-39.373	
106.00	-65.523	-5.919	
107.00	-63.367	-0.886	
108.00	-65.451	15.771	
109.00	-62.812	36.366	
110.00	-64.157	59.770	
111.00	-64.442	72.340	
112.00	-62.877	100.564	
113.00	-62.383	118.425	
114.00	-66.844	127.076	
115.00	-66.056	177.057	
116.00	-74.623	-140.636	
117.00	-75.721	-104.120	
118.00	-75.103	-122.535	
119.00	-72.147	-23.704	
120.00	-67.384	4.472	
121.00	-68.804	28.130	
122.00	-66.438	98.375	
123.00	-66.319	116.627	
124.00	-64.653	143.577	
125.00	-61.824	-170.554	
126.00	-59.995	-151.401	
127.00	-58.436	-119.429	
128.00	-56.322	-80.185	
129.00	-54.044	-62.582	
130.00	-52.313	-42.105	
131.00	-51.026	-25.892	
132.00	-49.757	-8.339	
133.00	-49.435	5.115	
134.00	-48.296	19.228	
135.00	-48.302	25.721	
136.00	-48.547	37.662	
137.00	-48.843	43.025	
138.00	-49.544	43.720	
139.00	-49.010	40.264	
140.00	-48.927	37.847	
141.00	-48.224	34.023	
142.00	-47.575	36.580	
143.00	-46.943	38.062	
144.00	-46.673	45.602	
145.00	-47.447	50.427	
146.00	-48.264	53.897	
147.00	-50.977	59.190	
148.00	-54.551	58.261	
149.00	-56.781	37.722	
150.00	-62.372	14.234	
151.00	-58.957	-11.513	
152.00	-57.384	-8.696	
153.00	-59.872	-19.355	
154.00	-63.351	44.329	
155.00	-70.271	125.157	
156.00	-57.036	150.878	
157.00	-53.383	149.482	
158.00	-51.300	148.817	
159.00	-50.347	159.688	
160.00	-50.675	156.873	
161.00	-49.898	149.368	
162.00	-49.673	138.700	
163.00	-49.511	129.064	
164.00	-48.324	120.565	
165.00	-47.373	119.150	
166.00	-47.392	120.837	
167.00	-47.141	129.303	
168.00	-47.938	143.848	
169.00	-48.787	159.525	
170.00	-49.590	167.949	
171.00	-51.143	177.738	
172.00	-53.732	169.920	
173.00	-53.094	126.386	
174.00	-48.480	99.623	
175.00	-42.789	86.759	
176.00	-38.790	87.913	
177.00	-35.525	85.766	
178.00	-33.558	86.474	
179.00	-32.033	85.414	
180.00	-31.272	86.609	
181.00	-30.783	82.487	
182.00	-31.071	80.603	
183.00	-31.704	79.034	
184.00	-33.136	71.510	
185.00	-35.241	62.497	
186.00	-37.671	48.889	
187.00	-40.976	24.960	
188.00	-43.425	-8.456	
189.00	-42.606	-42.007	
190.00	-42.248	-66.190	
191.00	-42.302	-77.628	
192.00	-43.388	-85.184	
193.00	-45.389	-95.751	
194.00	-49.505	-91.804	
195.00	-55.956	-64.237	
196.00	-56.165	-1.775	
197.00	-52.009	8.358	
198.00	-50.178	6.738	
199.00	-51.614	-2.191	
200.00	-55.969	-21.382	
201.00	-64.471	-95.336	
202.00	-55.497	175.007	
203.00	-49.729	150.579	
204.00	-46.418	138.238	
205.00	-44.419	125.453	
206.00	-43.500	113.166	
207.00	-43.412	94.253	
208.00	-43.963	77.649	
209.00	-44.430	55.837	
210.00	-45.876	32.554	
211.00	-46.575	5.849	
212.00	-47.337	-25.691	
213.00	-48.183	-59.016	
214.00	-47.940	-88.647	
215.00	-48.046	-113.971	
216.00	-48.562	-136.878	
217.00	-48.781	-160.641	
218.00	-49.629	179.528	
219.00	-50.493	153.212	
220.00	-52.179	133.948	
221.00	-53.803	110.210	
222.00	-55.568	97.112	
223.00	-56.763	74.213	
224.00	-62.020	81.218	
225.00	-64.728	75.855	
226.00	-70.173	42.662	
227.00	-68.212	61.419	
228.00	-75.115	1.837	
229.00	-86.248	-27.350	
230.00	-74.504	-4.383	
231.00	-65.686	-54.475	
232.00	-66.067	-59.793	
233.00	-67.639	-116.768	
234.00	-68.327	-136.036	
235.00	-61.883	-155.759	
236.00	-62.294	167.900	
237.00	-61.773	153.616	
238.00	-63.778	131.841	
239.00	-62.819	111.626	
240.00	-60.984	67.437	
241.00	-62.310	60.282	
242.00	-65.170	33.485	
243.00	-63.088	19.264	
244.00	-65.967	-20.123	
245.00	-70.027	-2.029	
246.00	-101.552	-113.092	
247.00	-72.290	-46.921	
248.00	-81.481	-116.513	
249.00	-72.620	-165.756	
250.00	-73.039	130.235	
251.00	-80.263	29.115	
252.00	-86.303	156.464	
253.00	-81.201	149.947	
254.00	-80.309	143.104	
255.00	-69.117	104.799	
256.00	-69.814	91.324	
257.00	-84.619	121.429	
258.00	-66.002	38.557	
259.00	-67.619	50.988	
260.00	-66.212	38.383	
261.00	-72.651	27.574	
262.00	-78.515	39.914	
263.00	-69.732	-4.638	
264.00	-82.464	-62.475	
265.00	-74.038	47.779	
266.00	-83.906	-114.129	
267.00	-79.370	43.202	
268.00	-70.438	122.234	
269.00	-71.005	111.418	
270.00	-74.841	60.510	
271.00	-70.174	13.997	
272.00	-69.899	7.128	
273.00	-66.100	34.169	
274.00	-69.381	0.075	
275.00	-73.975	-12.097	
276.00	-70.490	-84.418	
277.00	-71.855	-85.473	
278.00	-68.612	-108.977	
279.00	-67.904	-132.550	
280.00	-65.568	159.996	
281.00	-66.743	175.505	
282.00	-67.236	145.045	
283.00	-66.383	125.727	
284.00	-66.236	103.437	
285.00	-67.917	103.023	
286.00	-64.887	73.158	
287.00	-75.023	52.781	
288.00	-69.945	108.493	
289.00	-88.161	-105.331	
290.00	-79.009	38.630	
291.00	-72.358	113.579	
292.00	-82.701	129.596	
293.00	-91.134	145.944	
294.00	-72.887	68.189	
295.00	-79.736	1.570	
296.00	-76.014	60.116	
297.00	-67.564	79.669	
298.00	-77.456	148.861	
299.00	-79.063	-107.313	
300.00	-75.010	58.232	
301.00	-73.069	32.786	
302.00	-101.742	-53.422	
303.00	-82.252	-13.197	
304.00	-80.106	-134.039	
305.00	-76.187	-98.597	
306.00	-73.869	-62.975	
307.00	-80.580	-97.067	
308.00	-74.927	157.975	
309.00	-72.686	84.940	
310.00	-72.791	-8.034	
311.00	-76.660	-4.771	
312.00	-71.731	9.333	
313.00	-70.357	-10.169	
314.00	-78.339	-76.774	
315.00	-88.107	-2.188	
316.00	-77.735	-37.326	
317.00	-74.801	-80.837	
318.00	-78.572	113.447	
319.00	-84.994	175.478	
320.00	-79.648	-127.387	
321.00	-74.152	19.440	
322.00	-72.105	24.127	
323.00	-67.490	-72.529	
324.00	-70.863	-22.341	
325.00	-78.907	-26.060	
326.00	-73.381	-104.108	
327.00	-70.613	-121.384	
328.00	-71.584	-169.986	
329.00	-85.409	177.986	
330.00	-83.651	-104.155	
331.00	-78.567	164.498	
332.00	-75.168	88.627	
333.00	-86.893	45.352	
334.00	-74.719	-21.312	
335.00	-79.322	158.935	
336.00	-77.710	130.924	
337.00	-79.800	150.134	
338.00	-67.591	164.694	
339.00	-74.253	-166.128	
340.00	-73.299	-166.721	
341.00	-91.890	30.486	
342.00	-74.397	-123.531	
343.00	-69.928	-89.114	
344.00	-69.022	-73.961	
345.00	-68.890	-106.035	
346.00	-70.371	-78.653	
347.00	-65.933	-131.960	
348.00	-72.223	-150.386	
349.00	-91.497	96.029	
350.00	-71.267	126.122	
351.00	-70.890	79.605	
352.00	-69.226	67.064	
353.00	-65.662	46.520	
354.00	-72.636	73.639	
355.00	-93.252	3.415	
356.00	-76.330	-45.801	
357.00	-77.820	-151.026	
358.00	-88.431	-162.455	
359.00	-73.837	-135.039	
Frequency	3600.00	MHz	
Channel	test		
Scan Axis name	Azimuth  [deg]		
Scan Axis	Amplitude	Phase	
			
0.00	-69.890	-3.046	
1.00	-66.009	-17.491	
2.00	-64.023	-23.247	
3.00	-64.053	-35.532	
4.00	-62.611	-38.145	
5.00	-63.810	-41.953	
6.00	-65.794	-44.061	
7.00	-67.985	-37.676	
8.00	-80.839	-18.113	
9.00	-78.367	86.833	
10.00	-66.496	139.356	
11.00	-64.145	149.691	
12.00	-63.311	159.416	
13.00	-64.857	174.298	
14.00	-69.894	-165.530	
15.00	-74.313	-131.040	
16.00	-76.316	-4.037	
17.00	-68.947	10.992	
18.00	-67.899	10.570	
19.00	-70.572	15.501	
20.00	-75.097	9.631	
21.00	-83.172	-73.647	
22.00	-71.102	-103.158	
23.00	-70.132	-115.275	
24.00	-66.979	-121.713	
25.00	-67.567	-112.644	
26.00	-67.685	-110.287	
27.00	-66.573	-109.368	
28.00	-73.518	-81.169	
29.00	-79.603	-52.135	
30.00	-73.352	70.790	
31.00	-65.423	102.465	
32.00	-64.025	123.848	
33.00	-61.684	144.427	
34.00	-62.528	162.562	
35.00	-64.005	-173.525	
36.00	-67.638	-142.852	
37.00	-68.505	-67.728	
38.00	-66.302	-20.578	
39.00	-63.747	29.240	
40.00	-61.671	48.528	
41.00	-61.291	76.881	
42.00	-61.128	105.643	
43.00	-62.762	129.631	
44.00	-65.061	162.687	
45.00	-66.314	-152.249	
46.00	-66.657	-112.577	
47.00	-65.864	-51.068	
48.00	-63.833	-11.127	
49.00	-63.330	13.199	
50.00	-62.810	35.700	
51.00	-62.103	57.172	
52.00	-65.654	79.081	
53.00	-65.982	111.356	
54.00	-69.620	128.111	
55.00	-80.228	-177.672	
56.00	-74.835	-114.254	
57.00	-73.397	-63.114	
58.00	-71.638	-39.584	
59.00	-70.322	-23.931	
60.00	-69.985	-16.839	
61.00	-70.918	26.707	
62.00	-73.284	17.932	
63.00	-72.784	58.673	
64.00	-73.175	81.918	
65.00	-73.871	79.957	
66.00	-72.806	103.391	
67.00	-72.043	140.075	
68.00	-71.639	108.376	
69.00	-73.257	132.650	
70.00	-71.260	150.308	
71.00	-70.641	151.815	
72.00	-74.453	-176.036	
73.00	-74.472	178.884	
74.00	-74.432	164.096	
75.00	-72.600	-160.757	
76.00	-70.222	-167.092	
77.00	-69.602	-144.589	
78.00	-69.152	-140.596	
79.00	-69.355	-125.921	
80.00	-67.876	-96.305	
81.00	-67.927	-88.715	
82.00	-68.860	-72.905	
83.00	-67.324	-53.851	
84.00	-67.191	-41.198	
85.00	-68.553	-27.236	
86.00	-70.943	-18.312	
87.00	-69.995	10.243	
88.00	-76.631	1.246	
89.00	-85.600	-34.233	
90.00	-81.200	-73.429	
91.00	-79.031	-76.684	
92.00	-76.412	-61.156	
93.00	-72.839	-45.923	
94.00	-71.075	-24.992	
95.00	-70.103	-5.810	
96.00	-68.666	15.280	
97.00	-67.387	30.726	
98.00	-67.255	63.211	
99.00	-67.706	89.196	
100.00	-67.088	117.456	
101.00	-65.731	139.061	
102.00	-65.062	174.407	
103.00	-62.499	-171.511	
104.00	-62.916	-148.381	
105.00	-62.119	-126.363	
106.00	-60.861	-106.967	
107.00	-61.064	-91.652	
108.00	-62.045	-68.509	
109.00	-62.658	-64.836	
110.00	-63.151	-43.808	
111.00	-64.208	-29.769	
112.00	-67.861	-3.163	
113.00	-68.885	2.775	
114.00	-72.354	9.686	
115.00	-72.952	-36.627	
116.00	-70.815	-51.428	
117.00	-68.627	-74.638	
118.00	-65.126	-60.474	
119.00	-64.201	-41.769	
120.00	-62.351	-39.035	
121.00	-60.848	-24.805	
122.00	-60.190	-5.180	
123.00	-60.436	6.691	
124.00	-60.597	33.690	
125.00	-62.816	61.485	
126.00	-62.916	98.426	
127.00	-61.808	138.924	
128.00	-60.105	-179.022	
129.00	-56.779	-154.820	
130.00	-54.316	-130.327	
131.00	-52.556	-115.005	
132.00	-50.939	-98.743	
133.00	-50.188	-87.074	
134.00	-49.522	-73.952	
135.00	-48.856	-67.608	
136.00	-48.967	-58.036	
137.00	-49.012	-54.345	
138.00	-49.178	-52.137	
139.00	-49.109	-53.886	
140.00	-48.611	-54.908	
141.00	-47.907	-54.952	
142.00	-47.090	-55.890	
143.00	-46.617	-53.110	
144.00	-46.549	-50.253	
145.00	-47.016	-46.907	
146.00	-47.870	-45.270	
147.00	-49.681	-43.653	
148.00	-52.335	-45.829	
149.00	-55.611	-61.608	
150.00	-58.822	-80.519	
151.00	-59.122	-105.588	
152.00	-59.572	-114.494	
153.00	-62.996	-117.680	
154.00	-78.723	-36.867	
155.00	-62.016	55.223	
156.00	-55.884	60.915	
157.00	-52.124	58.116	
158.00	-50.542	58.474	
159.00	-49.901	63.728	
160.00	-50.501	58.255	
161.00	-50.545	51.649	
162.00	-50.621	34.346	
163.00	-49.688	20.931	
164.00	-48.362	11.200	
165.00	-47.248	10.961	
166.00	-46.800	14.505	
167.00	-46.938	24.918	
168.00	-47.727	38.529	
169.00	-48.574	53.217	
170.00	-49.414	68.014	
171.00	-50.438	80.597	
172.00	-51.340	74.001	
173.00	-52.126	47.299	
174.00	-48.158	18.741	
175.00	-43.088	0.791	
176.00	-39.155	-1.041	
177.00	-36.028	-3.662	
178.00	-33.855	-4.230	
179.00	-32.342	-5.043	
180.00	-31.421	-5.213	
181.00	-30.928	-8.581	
182.00	-31.224	-10.633	
183.00	-31.947	-11.334	
184.00	-33.207	-18.784	
185.00	-35.275	-26.880	
186.00	-38.082	-39.780	
187.00	-41.728	-61.725	
188.00	-44.139	-97.615	
189.00	-44.052	-133.407	
190.00	-43.084	-157.673	
191.00	-43.077	-169.420	
192.00	-43.875	-177.079	
193.00	-46.129	178.047	
194.00	-50.004	-177.696	
195.00	-56.040	-150.974	
196.00	-55.507	-93.190	
197.00	-51.870	-76.305	
198.00	-50.678	-74.918	
199.00	-51.435	-76.213	
200.00	-55.316	-70.561	
201.00	-61.135	-27.846	
202.00	-55.067	33.263	
203.00	-49.692	35.873	
204.00	-46.429	28.649	
205.00	-44.867	16.876	
206.00	-43.943	6.514	
207.00	-43.809	-9.271	
208.00	-44.314	-26.341	
209.00	-45.006	-47.454	
210.00	-46.175	-68.542	
211.00	-47.023	-96.070	
212.00	-47.859	-126.247	
213.00	-48.152	-158.289	
214.00	-48.356	176.817	
215.00	-48.633	148.615	
216.00	-48.555	126.357	
217.00	-49.344	102.582	
218.00	-50.056	83.062	
219.00	-50.855	56.515	
220.00	-52.403	36.261	
221.00	-53.962	15.814	
222.00	-55.735	-6.430	
223.00	-57.035	-24.272	
224.00	-59.154	-47.226	
225.00	-61.487	-62.176	
226.00	-63.608	-66.380	
227.00	-64.488	-81.067	
228.00	-65.151	-84.150	
229.00	-67.408	-91.326	
230.00	-66.513	-100.504	
231.00	-67.290	-135.985	
232.00	-67.989	-158.238	
233.00	-66.811	166.849	
234.00	-67.422	120.748	
235.00	-65.678	94.107	
236.00	-64.004	62.220	
237.00	-63.077	45.093	
238.00	-62.010	26.520	
239.00	-61.907	3.366	
240.00	-63.041	-17.234	
241.00	-63.260	-31.546	
242.00	-64.682	-52.200	
243.00	-64.581	-74.727	
244.00	-67.440	-95.482	
245.00	-71.179	-101.661	
246.00	-72.462	-122.182	
247.00	-71.176	-146.149	
248.00	-76.224	-143.728	
249.00	-75.465	-170.310	
250.00	-71.791	159.713	
251.00	-76.503	165.289	
252.00	-75.197	134.658	
253.00	-72.935	98.192	
254.00	-69.811	57.032	
255.00	-68.629	41.370	
256.00	-68.076	5.804	
257.00	-67.369	-6.319	
258.00	-67.121	-20.205	
259.00	-65.165	-47.068	
260.00	-66.546	-64.748	
261.00	-66.602	-98.052	
262.00	-65.154	-98.088	
263.00	-67.315	-111.642	
264.00	-68.036	-138.456	
265.00	-69.116	-137.434	
266.00	-77.282	-177.564	
267.00	-74.455	139.123	
268.00	-87.786	27.118	
269.00	-77.779	3.612	
270.00	-74.097	-63.789	
271.00	-68.582	-54.561	
272.00	-68.363	-73.335	
273.00	-68.207	-77.799	
274.00	-65.679	-109.528	
275.00	-68.245	-133.132	
276.00	-66.178	-146.486	
277.00	-67.710	-167.111	
278.00	-68.559	-173.705	
279.00	-71.134	145.094	
280.00	-73.407	116.344	
281.00	-73.542	112.353	
282.00	-73.239	65.211	
283.00	-74.989	-1.465	
284.00	-72.666	-1.292	
285.00	-71.228	-40.095	
286.00	-69.362	-35.870	
287.00	-69.092	-54.738	
288.00	-71.778	-82.762	
289.00	-72.238	-91.611	
290.00	-74.392	-125.112	
291.00	-81.651	-112.955	
292.00	-84.207	-156.302	
293.00	-91.556	76.833	
294.00	-80.811	-75.484	
295.00	-77.800	-9.044	
296.00	-80.573	-57.384	
297.00	-76.543	-49.585	
298.00	-79.358	-90.872	
299.00	-75.023	-73.987	
300.00	-85.399	-95.017	
301.00	-76.283	-100.989	
302.00	-78.695	-96.697	
303.00	-74.994	-113.161	
304.00	-79.020	-172.166	
305.00	-75.323	-177.191	
306.00	-78.169	147.274	
307.00	-89.194	158.156	
308.00	-93.714	-117.742	
309.00	-91.599	-119.543	
310.00	-85.430	-102.171	
311.00	-76.997	-65.743	
312.00	-77.926	-111.541	
313.00	-72.949	-145.151	
314.00	-72.968	-161.564	
315.00	-73.048	-166.089	
316.00	-86.566	114.862	
317.00	-93.140	144.739	
318.00	-96.052	71.569	
319.00	-84.621	143.786	
320.00	-75.372	-133.763	
321.00	-78.981	-122.417	
322.00	-71.276	-139.050	
323.00	-71.308	-155.447	
324.00	-75.881	-172.087	
325.00	-77.414	-167.404	
326.00	-80.594	-170.070	
327.00	-86.878	97.136	
328.00	-86.154	41.231	
329.00	-80.177	-110.139	
330.00	-77.992	179.797	
331.00	-75.583	-178.049	
332.00	-74.536	167.142	
333.00	-74.464	176.572	
334.00	-79.462	114.453	
335.00	-80.651	85.509	
336.00	-76.461	67.105	
337.00	-75.960	28.761	
338.00	-72.906	47.321	
339.00	-75.929	48.675	
340.00	-72.318	82.226	
341.00	-76.972	77.937	
342.00	-76.798	153.704	
343.00	-80.936	107.805	
344.00	-73.530	136.515	
345.00	-74.624	134.121	
346.00	-78.720	110.868	
347.00	-72.443	70.857	
348.00	-73.804	27.360	
349.00	-86.726	47.315	
350.00	-74.122	-70.090	
351.00	-74.438	-71.238	
352.00	-72.981	-91.842	
353.00	-74.235	-98.110	
354.00	-86.170	39.492	
355.00	-73.294	148.885	
356.00	-76.375	137.363	
357.00	-71.755	134.488	
358.00	-72.181	134.121	
359.00	-89.392	52.345	
Frequency	3625.00	MHz	
Channel	test		
Scan Axis name	Azimuth  [deg]		
Scan Axis	Amplitude	Phase	
			
0.00	-64.614	171.361	
1.00	-61.388	171.636	
2.00	-60.644	171.506	
3.00	-60.730	171.601	
4.00	-61.423	167.659	
5.00	-62.797	172.435	
6.00	-65.564	170.646	
7.00	-68.432	-157.957	
8.00	-73.234	-108.271	
9.00	-66.735	-40.607	
10.00	-63.349	-11.348	
11.00	-62.221	-3.084	
12.00	-62.133	16.282	
13.00	-62.856	34.813	
14.00	-66.837	63.247	
15.00	-72.210	124.071	
16.00	-69.278	-161.930	
17.00	-65.552	-144.623	
18.00	-67.217	-127.620	
19.00	-70.116	-117.418	
20.00	-88.649	-94.624	
21.00	-70.757	67.850	
22.00	-67.503	93.043	
23.00	-65.242	96.678	
24.00	-65.203	89.960	
25.00	-64.293	92.021	
26.00	-65.357	103.169	
27.00	-67.983	101.005	
28.00	-69.428	127.107	
29.00	-76.017	-132.077	
30.00	-69.472	-52.031	
31.00	-63.266	-38.255	
32.00	-60.934	-24.832	
33.00	-60.432	0.122	
34.00	-61.324	28.204	
35.00	-62.883	67.586	
36.00	-63.679	113.423	
37.00	-62.020	169.964	
38.00	-59.609	-155.281	
39.00	-58.827	-120.923	
40.00	-57.955	-93.424	
41.00	-58.841	-61.624	
42.00	-59.254	-31.025	
43.00	-61.029	7.379	
44.00	-61.895	53.515	
45.00	-61.716	104.209	
46.00	-60.993	141.704	
47.00	-59.737	176.390	
48.00	-59.814	-152.562	
49.00	-59.554	-123.413	
50.00	-60.120	-101.536	
51.00	-61.317	-70.364	
52.00	-62.520	-52.240	
53.00	-66.846	-27.333	
54.00	-70.924	5.902	
55.00	-73.857	68.868	
56.00	-73.258	154.765	
57.00	-71.494	-176.320	
58.00	-71.884	-147.622	
59.00	-69.573	-130.936	
60.00	-67.950	-110.333	
61.00	-70.738	-97.965	
62.00	-72.175	-85.873	
63.00	-71.057	-74.115	
64.00	-69.485	-72.906	
65.00	-70.863	-53.275	
66.00	-67.716	-62.684	
67.00	-66.338	-42.612	
68.00	-66.510	-28.779	
69.00	-65.483	-11.263	
70.00	-65.858	3.901	
71.00	-65.558	24.440	
72.00	-66.132	39.018	
73.00	-67.310	41.596	
74.00	-67.602	69.056	
75.00	-68.974	72.869	
76.00	-67.960	68.474	
77.00	-67.981	76.074	
78.00	-66.622	80.989	
79.00	-66.949	91.155	
80.00	-66.149	119.451	
81.00	-65.640	127.110	
82.00	-64.480	137.598	
83.00	-65.197	151.997	
84.00	-66.051	158.615	
85.00	-66.054	176.584	
86.00	-71.635	179.192	
87.00	-71.778	179.765	
88.00	-78.701	150.163	
89.00	-72.223	126.447	
90.00	-68.976	136.609	
91.00	-66.125	130.068	
92.00	-63.549	157.712	
93.00	-62.461	173.204	
94.00	-61.725	-169.402	
95.00	-59.722	-141.252	
96.00	-59.443	-120.926	
97.00	-58.438	-100.214	
98.00	-58.367	-73.976	
99.00	-58.157	-49.940	
100.00	-57.952	-24.972	
101.00	-57.378	-5.417	
102.00	-57.163	23.611	
103.00	-56.425	47.463	
104.00	-55.862	69.934	
105.00	-55.164	91.875	
106.00	-55.074	114.174	
107.00	-54.985	132.440	
108.00	-55.371	149.873	
109.00	-56.055	162.683	
110.00	-57.121	179.850	
111.00	-59.056	-168.152	
112.00	-60.553	-147.953	
113.00	-64.537	-159.367	
114.00	-67.271	-170.879	
115.00	-65.014	143.124	
116.00	-60.748	146.347	
117.00	-57.868	153.188	
118.00	-55.949	167.187	
119.00	-54.730	179.818	
120.00	-53.461	-167.383	
121.00	-53.685	-151.461	
122.00	-53.113	-135.680	
123.00	-53.881	-121.301	
124.00	-55.173	-102.015	
125.00	-57.316	-80.845	
126.00	-61.114	-48.958	
127.00	-63.280	14.334	
128.00	-59.927	74.147	
129.00	-55.498	104.488	
130.00	-52.517	125.583	
131.00	-50.188	142.771	
132.00	-48.779	156.148	
133.00	-47.808	166.907	
134.00	-47.191	176.346	
135.00	-47.082	-178.101	
136.00	-46.853	-172.031	
137.00	-46.890	-172.152	
138.00	-46.502	-171.152	
139.00	-45.813	-174.499	
140.00	-45.156	-174.809	
141.00	-44.316	-174.134	
142.00	-43.705	-173.385	
143.00	-43.501	-170.907	
144.00	-43.501	-168.896	
145.00	-44.024	-166.455	
146.00	-45.284	-168.193	
147.00	-46.955	-168.996	
148.00	-49.298	-175.841	
149.00	-51.690	170.854	
150.00	-53.331	158.863	
151.00	-55.113	144.161	
152.00	-56.927	144.148	
153.00	-63.173	159.303	
154.00	-64.902	-101.477	
155.00	-56.569	-70.805	
156.00	-51.656	-63.303	
157.00	-49.648	-61.130	
158.00	-48.235	-61.912	
159.00	-48.076	-58.013	
160.00	-48.345	-63.481	
161.00	-48.623	-75.620	
162.00	-48.127	-91.508	
163.00	-46.958	-102.756	
164.00	-45.503	-109.842	
165.00	-44.399	-108.751	
166.00	-44.106	-103.788	
167.00	-44.294	-94.926	
168.00	-45.179	-83.609	
169.00	-46.304	-69.578	
170.00	-47.164	-56.045	
171.00	-47.797	-45.616	
172.00	-48.165	-50.824	
173.00	-47.326	-73.321	
174.00	-43.905	-90.805	
175.00	-39.561	-105.292	
176.00	-36.038	-107.775	
177.00	-33.137	-111.777	
178.00	-31.118	-111.990	
179.00	-29.577	-114.392	
180.00	-28.711	-114.727	
181.00	-28.271	-118.517	
182.00	-28.469	-121.027	
183.00	-29.093	-122.665	
184.00	-30.364	-129.587	
185.00	-32.231	-138.340	
186.00	-34.937	-150.352	
187.00	-38.185	-171.039	
188.00	-40.854	155.410	
189.00	-41.140	120.185	
190.00	-40.508	94.782	
191.00	-40.300	81.856	
192.00	-41.219	72.784	
193.00	-43.326	66.793	
194.00	-47.407	68.280	
195.00	-53.811	90.710	
196.00	-54.171	162.276	
197.00	-49.429	-177.236	
198.00	-47.788	-176.341	
199.00	-48.239	-177.096	
200.00	-50.400	-174.016	
201.00	-54.208	-153.248	
202.00	-53.159	-104.100	
203.00	-48.558	-88.814	
204.00	-45.430	-91.463	
205.00	-43.767	-101.643	
206.00	-42.901	-110.524	
207.00	-42.643	-128.307	
208.00	-42.988	-146.494	
209.00	-43.615	-166.824	
210.00	-44.291	168.821	
211.00	-44.964	139.734	
212.00	-45.515	111.256	
213.00	-45.493	80.151	
214.00	-45.649	55.312	
215.00	-45.577	29.511	
216.00	-46.082	7.405	
217.00	-46.630	-18.484	
218.00	-47.422	-39.345	
219.00	-48.144	-65.592	
220.00	-49.438	-87.679	
221.00	-50.699	-112.723	
222.00	-52.042	-134.880	
223.00	-53.445	-154.759	
224.00	-55.060	-172.893	
225.00	-56.624	169.528	
226.00	-58.892	154.761	
227.00	-61.303	148.512	
228.00	-61.036	142.527	
229.00	-62.533	134.562	
230.00	-62.273	121.339	
231.00	-62.119	109.157	
232.00	-62.965	84.242	
233.00	-63.604	64.568	
234.00	-64.867	25.097	
235.00	-63.619	-13.575	
236.00	-62.789	-43.677	
237.00	-60.903	-75.598	
238.00	-59.178	-98.177	
239.00	-59.680	-115.013	
240.00	-58.584	-134.688	
241.00	-58.639	-154.327	
242.00	-58.312	-171.076	
243.00	-59.163	178.775	
244.00	-60.080	160.749	
245.00	-60.608	144.207	
246.00	-61.904	134.606	
247.00	-61.527	114.872	
248.00	-63.072	100.779	
249.00	-62.935	79.143	
250.00	-64.810	59.367	
251.00	-63.424	43.402	
252.00	-65.352	18.166	
253.00	-65.235	-11.862	
254.00	-64.872	-37.636	
255.00	-64.792	-55.576	
256.00	-65.261	-88.723	
257.00	-64.949	-117.578	
258.00	-65.379	-146.321	
259.00	-64.366	-171.432	
260.00	-64.376	162.316	
261.00	-63.959	140.702	
262.00	-63.180	116.631	
263.00	-64.251	98.176	
264.00	-64.833	72.011	
265.00	-66.311	57.583	
266.00	-66.976	33.321	
267.00	-69.140	18.160	
268.00	-72.677	-8.211	
269.00	-76.761	-80.349	
270.00	-72.625	-149.490	
271.00	-68.133	-177.368	
272.00	-66.703	151.958	
273.00	-66.000	141.063	
274.00	-63.426	112.635	
275.00	-62.569	95.015	
276.00	-62.387	76.084	
277.00	-62.037	55.069	
278.00	-61.425	39.676	
279.00	-62.553	23.996	
280.00	-62.995	1.762	
281.00	-63.789	-12.540	
282.00	-65.234	-40.352	
283.00	-66.821	-63.525	
284.00	-67.893	-98.551	
285.00	-67.440	-126.649	
286.00	-68.013	-155.962	
287.00	-68.650	174.612	
288.00	-67.391	156.253	
289.00	-67.334	135.567	
290.00	-69.181	116.179	
291.00	-70.308	84.157	
292.00	-71.416	79.314	
293.00	-74.573	50.170	
294.00	-81.753	-1.434	
295.00	-78.253	-48.433	
296.00	-75.232	-114.776	
297.00	-74.137	-132.280	
298.00	-74.522	-177.209	
299.00	-69.458	-169.158	
300.00	-67.148	160.918	
301.00	-67.630	140.271	
302.00	-69.197	109.994	
303.00	-69.077	101.462	
304.00	-70.565	68.383	
305.00	-69.953	33.123	
306.00	-70.194	-3.852	
307.00	-70.457	-30.031	
308.00	-75.565	-54.968	
309.00	-77.821	-148.320	
310.00	-73.451	179.936	
311.00	-71.828	141.657	
312.00	-67.410	115.317	
313.00	-66.232	114.261	
314.00	-66.099	77.845	
315.00	-67.876	55.242	
316.00	-69.839	36.117	
317.00	-71.312	12.370	
318.00	-74.029	-16.776	
319.00	-77.678	-8.980	
320.00	-77.382	35.128	
321.00	-72.027	66.526	
322.00	-70.682	73.393	
323.00	-71.774	67.250	
324.00	-72.379	72.633	
325.00	-80.031	143.236	
326.00	-75.317	140.653	
327.00	-72.087	154.075	
328.00	-82.765	133.176	
329.00	-81.298	133.791	
330.00	-77.014	35.936	
331.00	-75.116	7.220	
332.00	-71.028	0.340	
333.00	-75.872	-33.003	
334.00	-79.904	-58.569	
335.00	-79.503	-92.920	
336.00	-76.403	-89.419	
337.00	-77.781	-96.056	
338.00	-71.312	-61.803	
339.00	-69.497	-67.030	
340.00	-68.238	-51.567	
341.00	-70.947	-51.909	
342.00	-73.205	-49.894	
343.00	-78.571	-50.702	
344.00	-80.539	-161.617	
345.00	-74.587	-147.925	
346.00	-72.365	-162.316	
347.00	-73.499	-145.600	
348.00	-72.591	-139.930	
349.00	-75.465	168.377	
350.00	-74.476	147.574	
351.00	-75.087	126.784	
352.00	-88.481	-28.389	
353.00	-78.626	-66.341	
354.00	-69.326	-69.321	
355.00	-65.927	-50.321	
356.00	-66.015	-49.377	
357.00	-67.763	-68.468	
358.00	-78.875	-102.540	
359.00	-75.054	176.069	
Frequency	3650.00	MHz	
Channel	test		
Scan Axis name	Azimuth  [deg]		
Scan Axis	Amplitude	Phase	
			
0.00	-70.198	24.640	
1.00	-63.976	7.592	
2.00	-64.142	44.778	
3.00	-66.459	39.666	
4.00	-69.332	89.322	
5.00	-66.148	53.431	
6.00	-66.184	77.373	
7.00	-66.129	113.587	
8.00	-70.883	134.474	
9.00	-79.580	-161.851	
10.00	-66.979	-172.234	
11.00	-66.454	-91.303	
12.00	-67.225	-80.800	
13.00	-71.480	-90.685	
14.00	-65.442	-25.591	
15.00	-70.693	-14.038	
16.00	-75.070	90.448	
17.00	-74.194	128.624	
18.00	-73.204	118.205	
19.00	-71.757	-125.019	
20.00	-69.196	-156.959	
21.00	-71.059	-83.713	
22.00	-69.455	-79.411	
23.00	-74.724	-60.715	
24.00	-67.387	-30.934	
25.00	-71.655	-32.408	
26.00	-71.259	-53.285	
27.00	-66.944	9.228	
28.00	-70.748	113.655	
29.00	-70.968	136.007	
30.00	-65.178	137.905	
31.00	-63.749	-159.981	
32.00	-67.490	-155.742	
33.00	-64.973	-108.029	
34.00	-62.029	-91.342	
35.00	-65.704	-35.347	
36.00	-65.522	-14.767	
37.00	-61.948	53.907	
38.00	-61.810	81.425	
39.00	-64.146	116.119	
40.00	-60.264	144.281	
41.00	-64.603	177.476	
42.00	-64.343	-134.164	
43.00	-66.491	-115.375	
44.00	-66.203	-60.386	
45.00	-64.591	14.475	
46.00	-62.725	17.663	
47.00	-60.699	59.802	
48.00	-62.275	77.829	
49.00	-63.948	101.264	
50.00	-70.296	-160.653	
51.00	-64.526	174.376	
52.00	-67.481	-172.109	
53.00	-67.226	-83.939	
54.00	-67.816	-72.521	
55.00	-73.446	-0.695	
56.00	-71.362	71.895	
57.00	-69.140	73.027	
58.00	-65.698	102.521	
59.00	-63.879	123.744	
60.00	-73.360	154.233	
61.00	-72.626	166.580	
62.00	-67.434	57.477	
63.00	-70.111	130.533	
64.00	-73.414	34.368	
65.00	-69.145	82.780	
66.00	-68.964	107.714	
67.00	-72.263	174.023	
68.00	-77.883	139.782	
69.00	-65.469	172.373	
70.00	-67.013	178.583	
71.00	-69.689	-163.630	
72.00	-70.236	-120.157	
73.00	-71.298	-119.953	
74.00	-88.408	179.975	
75.00	-68.735	-146.988	
76.00	-66.198	-100.945	
77.00	-67.829	-118.559	
78.00	-63.738	-84.926	
79.00	-66.394	-55.880	
80.00	-68.029	-62.955	
81.00	-71.297	-8.326	
82.00	-70.805	-46.393	
83.00	-69.567	-16.086	
84.00	-73.407	35.163	
85.00	-67.299	74.934	
86.00	-69.030	4.282	
87.00	-69.749	-15.463	
88.00	-69.397	-5.436	
89.00	-69.246	-81.868	
90.00	-65.533	-5.254	
91.00	-67.683	22.094	
92.00	-63.681	21.603	
93.00	-62.317	47.238	
94.00	-61.778	57.007	
95.00	-61.267	101.766	
96.00	-61.107	111.280	
97.00	-60.219	135.087	
98.00	-60.019	166.180	
99.00	-57.793	-170.984	
100.00	-57.800	-155.948	
101.00	-56.502	-134.245	
102.00	-55.664	-101.114	
103.00	-57.043	-77.273	
104.00	-56.285	-62.248	
105.00	-55.997	-47.337	
106.00	-56.122	-13.038	
107.00	-55.974	-2.669	
108.00	-56.734	12.431	
109.00	-58.032	35.672	
110.00	-57.582	59.140	
111.00	-59.522	84.429	
112.00	-64.251	106.245	
113.00	-75.091	132.371	
114.00	-71.327	-25.293	
115.00	-65.287	7.646	
116.00	-59.777	-10.500	
117.00	-58.541	19.752	
118.00	-55.558	34.162	
119.00	-54.493	52.453	
120.00	-53.025	63.836	
121.00	-53.487	80.953	
122.00	-53.865	90.967	
123.00	-54.038	110.948	
124.00	-56.120	120.888	
125.00	-59.404	144.959	
126.00	-65.261	-176.550	
127.00	-72.056	-129.726	
128.00	-66.579	-36.746	
129.00	-59.368	-4.033	
130.00	-53.914	21.800	
131.00	-52.216	33.903	
132.00	-51.397	47.137	
133.00	-50.378	59.292	
134.00	-50.152	66.496	
135.00	-50.133	75.605	
136.00	-49.575	83.139	
137.00	-50.796	78.095	
138.00	-51.245	77.341	
139.00	-49.899	71.888	
140.00	-49.104	71.067	
141.00	-48.295	73.359	
142.00	-48.016	74.636	
143.00	-46.857	74.951	
144.00	-47.192	80.524	
145.00	-48.234	79.543	
146.00	-49.128	77.560	
147.00	-51.755	75.492	
148.00	-53.570	66.534	
149.00	-55.262	51.807	
150.00	-57.501	23.668	
151.00	-56.798	24.527	
152.00	-60.094	43.837	
153.00	-64.591	60.530	
154.00	-62.448	114.912	
155.00	-61.047	-171.466	
156.00	-55.037	-177.666	
157.00	-53.745	-174.740	
158.00	-53.769	-174.485	
159.00	-54.298	-172.497	
160.00	-54.192	179.811	
161.00	-54.285	157.356	
162.00	-51.971	137.352	
163.00	-49.916	125.923	
164.00	-47.442	122.670	
165.00	-46.838	129.808	
166.00	-45.762	134.805	
167.00	-46.086	143.600	
168.00	-47.203	157.983	
169.00	-48.928	172.988	
170.00	-49.941	-178.532	
171.00	-50.490	-165.521	
172.00	-50.636	-168.197	
173.00	-49.459	174.190	
174.00	-45.580	158.799	
175.00	-41.794	151.686	
176.00	-38.521	146.735	
177.00	-35.791	144.349	
178.00	-33.933	144.268	
179.00	-32.574	141.748	
180.00	-31.619	140.674	
181.00	-31.289	136.900	
182.00	-31.427	132.541	
183.00	-32.081	131.139	
184.00	-33.231	123.443	
185.00	-35.097	114.098	
186.00	-37.653	102.113	
187.00	-40.370	82.371	
188.00	-42.933	51.927	
189.00	-43.618	19.077	
190.00	-43.860	-4.688	
191.00	-43.381	-19.329	
192.00	-44.888	-28.895	
193.00	-47.628	-39.368	
194.00	-51.466	-37.675	
195.00	-59.651	1.371	
196.00	-55.464	66.733	
197.00	-50.572	80.512	
198.00	-49.228	74.766	
199.00	-48.320	71.158	
200.00	-49.510	73.860	
201.00	-53.285	71.750	
202.00	-55.569	104.483	
203.00	-54.782	134.801	
204.00	-49.985	140.394	
205.00	-47.685	136.644	
206.00	-47.071	132.573	
207.00	-46.002	113.117	
208.00	-45.903	98.404	
209.00	-46.633	74.119	
210.00	-46.979	50.293	
211.00	-47.183	26.828	
212.00	-47.942	-0.978	
213.00	-47.820	-28.223	
214.00	-48.182	-54.928	
215.00	-48.440	-77.347	
216.00	-49.471	-98.913	
217.00	-50.884	-123.932	
218.00	-51.321	-156.258	
219.00	-52.335	177.832	
220.00	-53.209	156.766	
221.00	-54.771	126.590	
222.00	-54.913	103.635	
223.00	-56.089	82.890	
224.00	-59.511	57.398	
225.00	-61.473	44.439	
226.00	-61.923	44.391	
227.00	-65.796	57.218	
228.00	-64.265	37.165	
229.00	-63.484	31.666	
230.00	-67.837	51.280	
231.00	-67.704	21.051	
232.00	-63.623	4.012	
233.00	-64.727	-16.209	
234.00	-68.459	-22.499	
235.00	-77.385	-119.580	
236.00	-71.586	-77.644	
237.00	-72.938	161.377	
238.00	-64.088	120.928	
239.00	-65.953	83.228	
240.00	-60.898	97.902	
241.00	-62.935	80.842	
242.00	-60.657	47.023	
243.00	-60.938	32.948	
244.00	-60.262	29.619	
245.00	-63.265	22.828	
246.00	-63.960	10.171	
247.00	-62.047	-21.244	
248.00	-62.437	-37.884	
249.00	-63.678	-29.677	
250.00	-63.181	-45.630	
251.00	-62.702	-87.963	
252.00	-68.217	-99.599	
253.00	-65.662	-124.342	
254.00	-64.559	-171.641	
255.00	-65.547	157.971	
256.00	-66.399	146.223	
257.00	-64.040	132.308	
258.00	-62.826	99.440	
259.00	-66.521	54.167	
260.00	-64.762	24.775	
261.00	-64.086	28.189	
262.00	-66.753	-18.896	
263.00	-66.051	-32.054	
264.00	-69.003	-94.291	
265.00	-72.518	-113.976	
266.00	-71.246	-106.983	
267.00	-69.219	-137.669	
268.00	-71.832	175.502	
269.00	-70.553	153.943	
270.00	-69.615	93.838	
271.00	-72.953	77.700	
272.00	-74.090	50.964	
273.00	-71.146	25.139	
274.00	-67.545	-1.897	
275.00	-66.199	-49.236	
276.00	-61.761	-77.641	
277.00	-65.193	-98.068	
278.00	-69.273	-112.706	
279.00	-66.331	-111.520	
280.00	-63.975	-115.956	
281.00	-65.848	-161.352	
282.00	-65.501	165.333	
283.00	-64.863	128.342	
284.00	-68.213	133.481	
285.00	-71.018	97.872	
286.00	-67.977	73.531	
287.00	-71.692	61.331	
288.00	-70.597	-11.625	
289.00	-68.652	26.214	
290.00	-72.828	-1.821	
291.00	-71.974	-101.162	
292.00	-74.803	13.178	
293.00	-73.320	-149.589	
294.00	-70.722	-175.827	
295.00	-69.792	164.456	
296.00	-64.048	59.241	
297.00	-67.787	101.060	
298.00	-72.023	16.805	
299.00	-72.552	39.313	
300.00	-77.191	-18.296	
301.00	-67.860	-26.520	
302.00	-68.994	-30.119	
303.00	-70.356	0.999	
304.00	-85.812	-71.432	
305.00	-75.502	-107.859	
306.00	-91.020	107.205	
307.00	-76.247	24.205	
308.00	-68.874	69.818	
309.00	-71.733	-54.982	
310.00	-77.622	8.448	
311.00	-66.351	-1.316	
312.00	-70.071	-67.105	
313.00	-66.067	-81.717	
314.00	-64.920	-72.441	
315.00	-67.477	-109.685	
316.00	-66.674	-124.305	
317.00	-70.023	-156.361	
318.00	-69.165	160.361	
319.00	-71.908	173.620	
320.00	-76.814	96.635	
321.00	-75.433	-120.816	
322.00	-73.510	-15.353	
323.00	-72.177	-7.892	
324.00	-74.187	-11.419	
325.00	-69.502	-33.165	
326.00	-79.366	-84.452	
327.00	-66.933	-7.774	
328.00	-83.456	107.523	
329.00	-73.189	-162.109	
330.00	-72.235	-112.122	
331.00	-76.983	-163.331	
332.00	-73.926	86.209	
333.00	-72.985	147.926	
334.00	-68.424	105.223	
335.00	-86.541	-70.729	
336.00	-73.265	115.171	
337.00	-78.976	20.757	
338.00	-80.349	150.665	
339.00	-67.589	-174.551	
340.00	-67.825	168.073	
341.00	-76.462	-153.096	
342.00	-80.508	19.965	
343.00	-72.575	-30.847	
344.00	-70.592	-31.439	
345.00	-77.468	-92.023	
346.00	-76.893	49.418	
347.00	-75.057	95.860	
348.00	-75.370	45.804	
349.00	-79.397	71.974	
350.00	-74.068	-141.546	
351.00	-76.890	35.488	
352.00	-76.722	66.895	
353.00	-66.923	106.383	
354.00	-68.090	131.497	
355.00	-70.329	134.449	
356.00	-76.199	113.464	
357.00	-74.484	-123.819	
358.00	-69.461	-103.076	
359.00	-66.567	-56.879	
Frequency	3675.00	MHz	
Channel	test		
Scan Axis name	Azimuth  [deg]		
Scan Axis	Amplitude	Phase	
			
0.00	-75.516	-102.278	
1.00	-69.609	-97.603	
2.00	-68.243	-79.889	
3.00	-70.489	-67.484	
4.00	-69.037	-54.699	
5.00	-68.716	-49.872	
6.00	-70.006	-70.480	
7.00	-72.188	-64.477	
8.00	-73.318	-74.917	
9.00	-82.936	-32.244	
10.00	-71.157	98.995	
11.00	-68.488	115.474	
12.00	-66.322	145.082	
13.00	-65.546	162.079	
14.00	-69.612	-162.365	
15.00	-72.632	-126.857	
16.00	-71.267	-28.035	
17.00	-68.442	5.281	
18.00	-67.618	22.056	
19.00	-67.002	47.392	
20.00	-68.666	68.455	
21.00	-70.362	118.391	
22.00	-70.165	154.933	
23.00	-71.278	-169.504	
24.00	-73.529	-143.007	
25.00	-76.104	-134.397	
26.00	-72.395	-118.738	
27.00	-71.470	-98.357	
28.00	-70.266	-85.022	
29.00	-69.969	-39.666	
30.00	-70.770	5.620	
31.00	-67.552	23.182	
32.00	-67.388	67.450	
33.00	-66.257	116.778	
34.00	-65.871	159.793	
35.00	-65.255	-164.278	
36.00	-62.241	-123.056	
37.00	-61.949	-89.008	
38.00	-61.572	-56.005	
39.00	-63.258	-15.303	
40.00	-62.129	20.131	
41.00	-61.848	56.961	
42.00	-62.507	104.015	
43.00	-62.516	139.271	
44.00	-63.383	178.825	
45.00	-63.123	-139.447	
46.00	-61.890	-98.461	
47.00	-61.950	-58.498	
48.00	-61.769	-26.041	
49.00	-62.969	4.084	
50.00	-62.965	31.785	
51.00	-64.702	72.912	
52.00	-65.194	109.126	
53.00	-67.786	143.734	
54.00	-70.075	-166.513	
55.00	-68.353	-104.858	
56.00	-70.130	-69.399	
57.00	-69.531	-30.973	
58.00	-69.288	-5.793	
59.00	-68.884	16.019	
60.00	-72.163	43.920	
61.00	-78.321	80.838	
62.00	-81.909	128.626	
63.00	-77.817	-138.192	
64.00	-72.259	-64.566	
65.00	-76.580	-58.917	
66.00	-73.295	-2.957	
67.00	-71.591	22.780	
68.00	-71.041	48.834	
69.00	-72.964	70.826	
70.00	-74.461	95.536	
71.00	-74.753	143.729	
72.00	-82.767	177.301	
73.00	-80.296	-170.106	
74.00	-76.573	-30.703	
75.00	-79.895	28.998	
76.00	-74.521	55.362	
77.00	-71.163	78.133	
78.00	-68.683	88.575	
79.00	-68.412	127.384	
80.00	-66.549	143.831	
81.00	-65.980	166.059	
82.00	-66.021	176.193	
83.00	-68.289	-163.541	
84.00	-71.066	-149.813	
85.00	-70.675	-132.486	
86.00	-71.238	-124.327	
87.00	-81.488	-131.038	
88.00	-75.063	-167.527	
89.00	-75.568	174.193	
90.00	-69.945	-169.409	
91.00	-65.898	-143.548	
92.00	-66.515	-124.590	
93.00	-65.790	-95.115	
94.00	-65.517	-81.239	
95.00	-63.260	-44.402	
96.00	-61.899	-30.831	
97.00	-60.222	2.706	
98.00	-60.088	20.198	
99.00	-58.965	43.909	
100.00	-58.083	66.441	
101.00	-57.725	90.034	
102.00	-57.007	111.768	
103.00	-56.643	137.317	
104.00	-56.244	163.083	
105.00	-55.656	-176.431	
106.00	-56.403	-153.439	
107.00	-56.314	-131.692	
108.00	-56.574	-107.118	
109.00	-57.050	-88.208	
110.00	-58.908	-68.980	
111.00	-60.330	-47.755	
112.00	-62.533	-19.117	
113.00	-66.517	12.431	
114.00	-73.629	62.331	
115.00	-71.212	163.304	
116.00	-62.229	-143.731	
117.00	-58.927	-131.712	
118.00	-56.703	-109.270	
119.00	-54.830	-89.751	
120.00	-53.989	-73.039	
121.00	-53.115	-58.482	
122.00	-53.483	-42.563	
123.00	-53.957	-27.863	
124.00	-55.354	-11.629	
125.00	-58.030	-0.041	
126.00	-62.707	11.881	
127.00	-72.368	-13.752	
128.00	-66.167	-115.518	
129.00	-58.834	-109.234	
130.00	-54.829	-91.175	
131.00	-52.759	-82.635	
132.00	-52.020	-67.203	
133.00	-51.189	-53.499	
134.00	-50.418	-43.073	
135.00	-50.563	-36.786	
136.00	-50.890	-29.317	
137.00	-51.210	-30.728	
138.00	-51.001	-32.477	
139.00	-50.749	-38.185	
140.00	-49.435	-41.552	
141.00	-48.297	-40.118	
142.00	-47.781	-37.834	
143.00	-47.741	-32.656	
144.00	-48.003	-29.151	
145.00	-49.498	-22.824	
146.00	-51.477	-25.536	
147.00	-54.189	-28.789	
148.00	-57.599	-46.815	
149.00	-59.085	-75.742	
150.00	-59.347	-85.805	
151.00	-59.591	-84.096	
152.00	-62.791	-69.255	
153.00	-66.447	-8.754	
154.00	-61.015	50.874	
155.00	-56.493	71.616	
156.00	-53.759	84.287	
157.00	-53.128	91.362	
158.00	-53.370	94.101	
159.00	-55.135	98.587	
160.00	-59.516	92.498	
161.00	-62.403	34.629	
162.00	-55.758	-3.023	
163.00	-51.148	-5.080	
164.00	-48.502	-3.030	
165.00	-46.909	3.422	
166.00	-46.285	14.008	
167.00	-46.517	21.847	
168.00	-47.559	33.905	
169.00	-49.040	45.156	
170.00	-50.533	53.363	
171.00	-51.107	64.571	
172.00	-50.363	58.142	
173.00	-47.325	47.911	
174.00	-43.591	45.767	
175.00	-39.944	39.012	
176.00	-36.960	39.913	
177.00	-34.446	37.531	
178.00	-32.762	38.082	
179.00	-31.299	34.751	
180.00	-30.653	34.237	
181.00	-30.384	30.898	
182.00	-30.615	26.514	
183.00	-31.316	24.387	
184.00	-32.727	15.704	
185.00	-34.543	4.711	
186.00	-36.983	-10.498	
187.00	-39.569	-33.182	
188.00	-41.433	-63.318	
189.00	-41.838	-90.459	
190.00	-41.679	-113.633	
191.00	-42.379	-127.303	
192.00	-44.161	-137.429	
193.00	-47.197	-146.225	
194.00	-53.445	-147.090	
195.00	-64.782	-66.876	
196.00	-53.371	-17.163	
197.00	-49.327	-21.162	
198.00	-47.791	-31.044	
199.00	-48.027	-40.776	
200.00	-50.037	-52.262	
201.00	-53.751	-65.645	
202.00	-62.156	-90.333	
203.00	-65.776	104.727	
204.00	-56.452	77.308	
205.00	-52.628	54.374	
206.00	-50.737	37.802	
207.00	-49.688	11.262	
208.00	-49.202	-14.844	
209.00	-48.745	-39.441	
210.00	-48.183	-65.455	
211.00	-47.696	-93.229	
212.00	-47.440	-117.984	
213.00	-47.684	-143.217	
214.00	-47.881	-164.699	
215.00	-48.706	171.441	
216.00	-49.676	147.930	
217.00	-51.012	121.487	
218.00	-52.159	95.506	
219.00	-53.732	64.777	
220.00	-54.977	38.815	
221.00	-56.667	8.007	
222.00	-57.869	-16.660	
223.00	-59.467	-42.126	
224.00	-61.158	-69.410	
225.00	-63.267	-79.978	
226.00	-68.107	-84.804	
227.00	-65.730	-74.511	
228.00	-65.823	-70.533	
229.00	-63.548	-79.717	
230.00	-61.395	-82.002	
231.00	-60.204	-96.739	
232.00	-59.953	-115.742	
233.00	-60.704	-124.917	
234.00	-62.770	-149.904	
235.00	-66.174	-170.354	
236.00	-69.310	168.857	
237.00	-76.491	107.156	
238.00	-70.470	-7.517	
239.00	-66.709	-20.135	
240.00	-65.078	-43.041	
241.00	-63.150	-65.027	
242.00	-61.311	-85.998	
243.00	-61.012	-105.709	
244.00	-61.316	-123.343	
245.00	-62.292	-129.901	
246.00	-62.885	-137.921	
247.00	-63.645	-162.472	
248.00	-64.062	-173.532	
249.00	-65.025	-179.577	
250.00	-68.944	157.809	
251.00	-68.188	138.888	
252.00	-69.804	124.982	
253.00	-70.962	87.420	
254.00	-71.759	73.432	
255.00	-68.739	59.869	
256.00	-70.330	15.112	
257.00	-71.676	-6.956	
258.00	-70.737	-35.560	
259.00	-71.663	-60.364	
260.00	-70.386	-95.558	
261.00	-71.585	-93.158	
262.00	-73.712	-121.482	
263.00	-74.604	-126.029	
264.00	-77.829	-165.773	
265.00	-78.166	163.746	
266.00	-82.223	89.859	
267.00	-87.427	62.680	
268.00	-82.324	-36.534	
269.00	-76.316	-51.081	
270.00	-74.347	-52.766	
271.00	-71.632	-89.586	
272.00	-71.569	-118.879	
273.00	-71.314	-122.754	
274.00	-70.020	-168.672	
275.00	-66.673	167.117	
276.00	-67.104	150.032	
277.00	-66.756	135.131	
278.00	-65.490	118.550	
279.00	-65.191	101.874	
280.00	-65.143	79.532	
281.00	-63.354	74.629	
282.00	-66.612	46.859	
283.00	-65.846	24.058	
284.00	-66.158	-6.324	
285.00	-65.627	-20.439	
286.00	-67.636	-58.288	
287.00	-68.832	-50.246	
288.00	-68.428	-80.633	
289.00	-69.071	-111.981	
290.00	-70.997	-133.552	
291.00	-73.736	-140.830	
292.00	-74.183	-176.716	
293.00	-77.568	-172.936	
294.00	-82.029	152.467	
295.00	-77.654	-144.396	
296.00	-78.304	159.132	
297.00	-78.016	-102.450	
298.00	-79.009	-122.646	
299.00	-72.952	-124.416	
300.00	-70.613	-140.149	
301.00	-72.044	-157.925	
302.00	-70.652	-147.373	
303.00	-72.776	-171.051	
304.00	-70.954	168.760	
305.00	-77.845	162.809	
306.00	-73.766	135.424	
307.00	-75.339	131.006	
308.00	-83.110	155.813	
309.00	-85.045	-163.273	
310.00	-70.771	-164.015	
311.00	-71.082	-175.304	
312.00	-70.134	177.899	
313.00	-67.380	158.860	
314.00	-67.423	133.778	
315.00	-67.663	117.994	
316.00	-68.190	88.465	
317.00	-69.398	80.797	
318.00	-68.846	66.678	
319.00	-70.767	35.248	
320.00	-73.944	52.747	
321.00	-73.521	72.350	
322.00	-77.318	94.205	
323.00	-79.283	118.577	
324.00	-72.346	179.614	
325.00	-73.797	178.140	
326.00	-70.891	-155.253	
327.00	-72.650	176.621	
328.00	-74.116	-179.540	
329.00	-74.519	148.467	
330.00	-80.065	100.336	
331.00	-84.113	65.885	
332.00	-76.509	-22.280	
333.00	-75.135	-55.446	
334.00	-76.297	-111.188	
335.00	-69.641	-140.684	
336.00	-74.591	-115.418	
337.00	-83.374	-121.696	
338.00	-81.480	50.584	
339.00	-73.464	23.249	
340.00	-73.891	15.704	
341.00	-76.484	16.609	
342.00	-81.477	21.803	
343.00	-82.101	-179.957	
344.00	-71.082	-164.725	
345.00	-75.201	-168.146	
346.00	-74.015	-153.037	
347.00	-78.882	-149.406	
348.00	-81.480	115.435	
349.00	-82.113	175.577	
350.00	-85.481	122.896	
351.00	-91.394	119.740	
352.00	-80.402	-80.586	
353.00	-76.480	-46.423	
354.00	-72.766	-14.978	
355.00	-71.527	6.367	
356.00	-73.766	29.774	
357.00	-71.173	88.121	
358.00	-73.684	106.334	
359.00	-73.677	148.560	
Frequency	3700.00	MHz	
Channel	test		
Scan Axis name	Azimuth  [deg]		
Scan Axis	Amplitude	Phase	
			
0.00	-76.386	-170.344	
1.00	-70.833	-176.980	
2.00	-68.822	-169.254	
3.00	-67.754	-155.646	
4.00	-68.742	-154.293	
5.00	-69.238	-148.386	
6.00	-71.702	-165.720	
7.00	-72.340	-155.188	
8.00	-80.214	-95.860	
9.00	-86.524	-30.776	
10.00	-75.640	8.068	
11.00	-70.480	14.457	
12.00	-68.857	40.881	
13.00	-70.130	37.244	
14.00	-71.007	68.496	
15.00	-76.943	150.610	
16.00	-70.340	-160.560	
17.00	-69.588	-121.389	
18.00	-67.738	-101.591	
19.00	-68.633	-74.231	
20.00	-69.865	-48.536	
21.00	-75.729	-33.901	
22.00	-78.274	68.057	
23.00	-73.125	101.542	
24.00	-72.734	118.362	
25.00	-73.416	143.184	
26.00	-72.346	145.783	
27.00	-73.331	148.801	
28.00	-72.163	150.275	
29.00	-73.808	177.270	
30.00	-76.875	-128.081	
31.00	-76.220	-79.609	
32.00	-71.234	-17.676	
33.00	-69.916	22.496	
34.00	-67.324	64.535	
35.00	-65.977	86.596	
36.00	-65.794	122.102	
37.00	-65.463	155.583	
38.00	-65.220	-164.521	
39.00	-65.316	-122.247	
40.00	-65.290	-94.151	
41.00	-65.044	-47.072	
42.00	-65.949	-14.643	
43.00	-67.091	39.747	
44.00	-65.826	73.986	
45.00	-65.900	121.270	
46.00	-65.290	150.127	
47.00	-65.197	-165.521	
48.00	-64.747	-141.053	
49.00	-64.928	-113.664	
50.00	-66.053	-79.430	
51.00	-68.353	-46.905	
52.00	-70.777	-13.909	
53.00	-75.474	53.242	
54.00	-82.321	125.362	
55.00	-75.987	121.599	
56.00	-74.323	-141.721	
57.00	-71.849	-125.308	
58.00	-71.064	-107.530	
59.00	-72.020	-76.462	
60.00	-73.969	-36.535	
61.00	-82.234	-13.323	
62.00	-80.598	-30.810	
63.00	-83.955	-152.491	
64.00	-76.774	-157.336	
65.00	-74.412	-125.370	
66.00	-74.639	-89.560	
67.00	-72.534	-67.653	
68.00	-71.275	-38.043	
69.00	-74.028	-17.263	
70.00	-74.495	7.195	
71.00	-78.092	47.363	
72.00	-78.170	82.349	
73.00	-80.662	145.125	
74.00	-81.723	-94.917	
75.00	-80.164	-134.666	
76.00	-77.544	-108.912	
77.00	-74.428	-31.090	
78.00	-72.507	7.858	
79.00	-73.275	2.236	
80.00	-69.899	38.025	
81.00	-70.947	58.381	
82.00	-69.779	79.297	
83.00	-76.829	100.540	
84.00	-72.848	110.219	
85.00	-78.414	125.544	
86.00	-81.538	156.913	
87.00	-87.226	-30.992	
88.00	-78.701	47.452	
89.00	-76.181	55.891	
90.00	-73.802	83.688	
91.00	-72.588	114.413	
92.00	-69.753	129.417	
93.00	-68.699	160.670	
94.00	-69.138	-176.869	
95.00	-67.149	-141.761	
96.00	-65.788	-119.734	
97.00	-64.483	-94.296	
98.00	-62.385	-79.017	
99.00	-61.678	-58.611	
100.00	-61.339	-34.546	
101.00	-60.311	-12.237	
102.00	-59.921	11.195	
103.00	-59.514	33.126	
104.00	-58.874	59.759	
105.00	-59.470	84.378	
106.00	-58.507	107.315	
107.00	-58.988	128.039	
108.00	-59.309	149.211	
109.00	-59.288	166.313	
110.00	-60.546	-163.256	
111.00	-63.574	-145.823	
112.00	-64.930	-115.960	
113.00	-66.528	-67.707	
114.00	-71.565	-30.026	
115.00	-67.708	44.148	
116.00	-64.168	95.782	
117.00	-61.526	118.717	
118.00	-58.724	139.901	
119.00	-57.555	157.612	
120.00	-56.665	179.007	
121.00	-55.680	-162.822	
122.00	-56.299	-150.322	
123.00	-57.235	-131.327	
124.00	-58.605	-112.625	
125.00	-60.700	-100.260	
126.00	-64.814	-75.999	
127.00	-77.922	-50.292	
128.00	-69.579	129.738	
129.00	-62.455	150.389	
130.00	-58.579	168.726	
131.00	-56.482	-177.268	
132.00	-55.264	-159.491	
133.00	-53.929	-145.461	
134.00	-53.544	-128.306	
135.00	-53.397	-121.964	
136.00	-54.274	-109.558	
137.00	-55.162	-110.372	
138.00	-55.590	-116.587	
139.00	-55.248	-125.623	
140.00	-53.613	-129.423	
141.00	-52.018	-130.487	
142.00	-50.902	-125.745	
143.00	-50.437	-119.098	
144.00	-50.825	-112.189	
145.00	-51.779	-103.441	
146.00	-54.018	-98.910	
147.00	-57.533	-91.944	
148.00	-62.440	-91.357	
149.00	-67.876	-126.121	
150.00	-67.376	-161.708	
151.00	-65.228	-163.206	
152.00	-65.034	-133.116	
153.00	-63.449	-89.865	
154.00	-60.229	-49.704	
155.00	-57.414	-29.369	
156.00	-55.359	-10.951	
157.00	-54.391	1.479	
158.00	-54.969	11.994	
159.00	-56.486	28.453	
160.00	-60.210	49.891	
161.00	-71.069	85.007	
162.00	-61.665	-142.568	
163.00	-55.591	-119.319	
164.00	-52.015	-109.822	
165.00	-50.159	-98.705	
166.00	-49.327	-88.309	
167.00	-49.583	-78.098	
168.00	-50.842	-67.758	
169.00	-52.812	-56.121	
170.00	-55.133	-48.789	
171.00	-56.869	-40.398	
172.00	-54.681	-45.372	
173.00	-50.431	-51.935	
174.00	-45.749	-49.031	
175.00	-41.686	-53.200	
176.00	-38.454	-50.685	
177.00	-35.959	-51.768	
178.00	-34.174	-50.549	
179.00	-32.907	-52.480	
180.00	-32.194	-53.295	
181.00	-31.980	-56.311	
182.00	-32.356	-60.479	
183.00	-33.202	-62.496	
184.00	-34.675	-71.704	
185.00	-36.665	-83.061	
186.00	-39.144	-99.564	
187.00	-41.608	-124.815	
188.00	-43.122	-154.273	
189.00	-43.473	-179.609	
190.00	-43.567	158.394	
191.00	-44.487	146.588	
192.00	-46.579	135.700	
193.00	-50.377	130.069	
194.00	-58.219	134.996	
195.00	-61.001	-115.079	
196.00	-52.785	-107.974	
197.00	-49.680	-111.113	
198.00	-48.856	-120.147	
199.00	-49.196	-131.265	
200.00	-51.535	-141.082	
201.00	-56.030	-154.875	
202.00	-73.652	-169.708	
203.00	-60.893	4.277	
204.00	-53.953	-17.723	
205.00	-51.353	-32.463	
206.00	-50.344	-48.049	
207.00	-49.904	-72.469	
208.00	-50.127	-97.849	
209.00	-49.814	-125.344	
210.00	-49.604	-154.734	
211.00	-49.062	176.990	
212.00	-48.827	150.581	
213.00	-48.636	124.628	
214.00	-49.089	105.196	
215.00	-49.688	81.897	
216.00	-50.977	62.802	
217.00	-52.499	35.970	
218.00	-54.296	11.572	
219.00	-56.147	-19.257	
220.00	-58.261	-49.222	
221.00	-59.976	-74.012	
222.00	-62.710	-101.029	
223.00	-65.093	-125.404	
224.00	-72.118	-155.980	
225.00	-75.819	-149.721	
226.00	-76.687	-98.913	
227.00	-70.488	-94.205	
228.00	-68.474	-112.870	
229.00	-68.141	-137.624	
230.00	-64.029	-150.079	
231.00	-63.700	-175.952	
232.00	-62.622	166.012	
233.00	-63.666	145.545	
234.00	-64.041	132.850	
235.00	-64.982	112.236	
236.00	-67.453	98.000	
237.00	-75.169	104.515	
238.00	-80.806	136.732	
239.00	-76.032	-170.023	
240.00	-72.380	-163.053	
241.00	-67.988	161.614	
242.00	-66.666	159.992	
243.00	-65.238	134.773	
244.00	-65.708	120.607	
245.00	-66.331	114.699	
246.00	-67.143	121.727	
247.00	-68.383	94.944	
248.00	-69.629	88.600	
249.00	-69.912	91.331	
250.00	-69.240	91.286	
251.00	-70.246	75.006	
252.00	-71.487	66.549	
253.00	-72.093	78.543	
254.00	-74.816	42.931	
255.00	-83.874	49.125	
256.00	-78.808	21.111	
257.00	-80.272	-14.757	
258.00	-82.365	-101.362	
259.00	-79.590	-127.501	
260.00	-81.234	176.571	
261.00	-85.580	171.139	
262.00	-75.916	146.728	
263.00	-80.145	-174.793	
264.00	-78.456	120.405	
265.00	-80.594	131.295	
266.00	-80.963	166.269	
267.00	-82.382	137.165	
268.00	-81.739	162.343	
269.00	-75.457	145.493	
270.00	-75.320	143.503	
271.00	-75.411	135.710	
272.00	-73.208	108.326	
273.00	-75.133	101.472	
274.00	-73.661	94.020	
275.00	-72.346	56.755	
276.00	-73.036	40.023	
277.00	-73.101	55.900	
278.00	-72.086	13.767	
279.00	-69.456	-13.324	
280.00	-72.793	-28.592	
281.00	-70.016	-41.061	
282.00	-68.807	-63.122	
283.00	-70.309	-78.434	
284.00	-67.721	-108.675	
285.00	-70.266	-131.817	
286.00	-68.679	-154.828	
287.00	-70.239	-169.747	
288.00	-70.582	-171.861	
289.00	-72.620	152.744	
290.00	-73.542	129.811	
291.00	-72.262	99.477	
292.00	-76.142	92.004	
293.00	-74.534	90.266	
294.00	-79.197	74.229	
295.00	-79.586	69.807	
296.00	-89.781	5.356	
297.00	-83.812	-117.966	
298.00	-80.381	111.415	
299.00	-81.357	120.657	
300.00	-76.775	90.312	
301.00	-78.444	103.468	
302.00	-76.295	92.779	
303.00	-73.843	52.669	
304.00	-76.189	35.766	
305.00	-79.771	-6.462	
306.00	-78.223	-14.542	
307.00	-81.998	-13.462	
308.00	-88.680	68.156	
309.00	-80.007	166.561	
310.00	-74.869	84.304	
311.00	-72.517	78.299	
312.00	-72.651	55.887	
313.00	-70.909	42.243	
314.00	-70.676	29.213	
315.00	-72.065	9.714	
316.00	-73.805	-36.020	
317.00	-69.746	-45.489	
318.00	-71.924	-64.104	
319.00	-70.335	-73.613	
320.00	-74.932	-85.040	
321.00	-74.373	-83.869	
322.00	-79.508	-55.689	
323.00	-81.353	17.990	
324.00	-81.954	11.111	
325.00	-79.973	52.873	
326.00	-74.707	26.357	
327.00	-76.649	19.739	
328.00	-80.199	23.723	
329.00	-83.779	-22.863	
330.00	-76.282	-77.723	
331.00	-79.718	-95.417	
332.00	-80.936	-134.397	
333.00	-93.909	-67.297	
334.00	-74.471	134.562	
335.00	-72.771	84.121	
336.00	-78.681	99.312	
337.00	-81.469	97.394	
338.00	-95.447	164.751	
339.00	-76.295	-65.991	
340.00	-75.486	-104.289	
341.00	-77.542	-129.252	
342.00	-81.901	61.485	
343.00	-76.344	62.357	
344.00	-73.402	69.895	
345.00	-74.644	80.603	
346.00	-73.619	61.392	
347.00	-82.963	103.333	
348.00	-81.969	-151.496	
349.00	-88.495	-96.490	
350.00	-85.001	-114.867	
351.00	-79.692	-139.681	
352.00	-77.677	-142.605	
353.00	-73.962	-144.081	
354.00	-76.005	-134.211	
355.00	-74.262	-108.633	
356.00	-74.999	-94.989	
357.00	-76.446	-24.486	
358.00	-76.122	-32.530	
359.00	-75.673	6.050	
Frequency	3750.00	MHz	
Channel	test		
Scan Axis name	Azimuth  [deg]		
Scan Axis	Amplitude	Phase	
			
0.00	-66.937	-89.943	
1.00	-66.241	-63.330	
2.00	-64.684	-68.616	
3.00	-66.125	-55.925	
4.00	-66.351	-51.768	
5.00	-73.407	-46.526	
6.00	-81.053	-100.561	
7.00	-86.209	162.991	
8.00	-74.789	-179.667	
9.00	-76.413	143.233	
10.00	-71.240	112.848	
11.00	-72.058	110.597	
12.00	-70.151	116.969	
13.00	-75.370	158.165	
14.00	-82.819	-23.602	
15.00	-69.776	-38.925	
16.00	-69.077	-7.063	
17.00	-66.882	10.343	
18.00	-70.215	24.418	
19.00	-73.010	83.653	
20.00	-73.967	140.720	
21.00	-70.644	-179.334	
22.00	-69.088	-140.076	
23.00	-69.950	-125.975	
24.00	-70.036	-97.958	
25.00	-80.606	-90.970	
26.00	-90.561	-120.719	
27.00	-77.481	171.656	
28.00	-76.381	169.718	
29.00	-73.708	167.904	
30.00	-77.734	143.357	
31.00	-81.191	134.115	
32.00	-71.387	116.964	
33.00	-71.317	147.214	
34.00	-68.836	176.690	
35.00	-72.120	-157.217	
36.00	-68.910	-122.681	
37.00	-72.888	-78.000	
38.00	-69.758	-44.471	
39.00	-68.931	32.898	
40.00	-70.023	58.276	
41.00	-68.134	98.125	
42.00	-67.748	153.817	
43.00	-66.655	-160.109	
44.00	-64.849	-131.787	
45.00	-65.696	-93.193	
46.00	-63.966	-67.929	
47.00	-66.597	-34.620	
48.00	-67.439	5.550	
49.00	-69.494	54.358	
50.00	-74.121	67.533	
51.00	-73.823	-172.088	
52.00	-69.517	-147.910	
53.00	-67.245	-102.960	
54.00	-66.556	-73.443	
55.00	-64.140	-47.338	
56.00	-64.739	-14.188	
57.00	-65.546	22.524	
58.00	-68.052	53.469	
59.00	-68.396	89.176	
60.00	-71.030	142.374	
61.00	-69.735	-154.620	
62.00	-68.626	-120.320	
63.00	-68.651	-84.046	
64.00	-66.894	-46.704	
65.00	-65.690	-14.253	
66.00	-66.555	30.520	
67.00	-66.472	53.139	
68.00	-66.356	97.593	
69.00	-66.509	128.124	
70.00	-67.840	164.076	
71.00	-65.579	-150.502	
72.00	-64.726	-123.038	
73.00	-65.891	-92.878	
74.00	-64.582	-54.847	
75.00	-65.254	-24.543	
76.00	-63.951	6.971	
77.00	-64.105	34.142	
78.00	-63.953	73.063	
79.00	-63.120	99.917	
80.00	-62.028	118.953	
81.00	-62.441	152.093	
82.00	-62.042	-175.134	
83.00	-62.632	-156.606	
84.00	-62.174	-123.691	
85.00	-63.192	-101.364	
86.00	-62.738	-72.344	
87.00	-63.147	-44.745	
88.00	-62.789	-23.007	
89.00	-63.030	5.529	
90.00	-63.781	28.807	
91.00	-64.169	49.064	
92.00	-66.152	71.864	
93.00	-66.887	106.654	
94.00	-67.925	129.682	
95.00	-70.767	155.443	
96.00	-73.992	-131.246	
97.00	-76.402	-123.336	
98.00	-76.762	-60.075	
99.00	-72.304	1.398	
100.00	-67.541	51.660	
101.00	-65.701	83.567	
102.00	-63.129	102.649	
103.00	-64.163	133.405	
104.00	-62.470	157.015	
105.00	-61.133	-173.460	
106.00	-59.779	-146.209	
107.00	-58.792	-126.655	
108.00	-58.732	-100.461	
109.00	-57.969	-85.178	
110.00	-58.159	-54.884	
111.00	-58.506	-27.933	
112.00	-58.253	0.743	
113.00	-59.317	33.619	
114.00	-59.941	58.628	
115.00	-62.027	95.572	
116.00	-62.402	134.379	
117.00	-61.800	171.205	
118.00	-60.397	-141.223	
119.00	-59.154	-106.244	
120.00	-57.562	-76.031	
121.00	-55.898	-52.017	
122.00	-55.271	-26.664	
123.00	-55.000	-7.120	
124.00	-55.186	14.845	
125.00	-55.812	34.735	
126.00	-58.196	53.945	
127.00	-60.628	67.416	
128.00	-65.732	87.971	
129.00	-76.405	32.734	
130.00	-65.562	-35.464	
131.00	-60.092	-26.258	
132.00	-56.526	-5.186	
133.00	-55.076	4.740	
134.00	-53.597	23.194	
135.00	-53.210	32.631	
136.00	-53.623	50.628	
137.00	-54.816	53.965	
138.00	-56.350	48.953	
139.00	-56.967	37.291	
140.00	-55.711	21.650	
141.00	-52.760	14.605	
142.00	-50.845	19.216	
143.00	-49.568	27.378	
144.00	-49.080	37.069	
145.00	-49.440	49.788	
146.00	-50.751	59.144	
147.00	-52.695	73.412	
148.00	-55.896	85.951	
149.00	-60.895	101.193	
150.00	-66.383	97.506	
151.00	-69.449	20.100	
152.00	-63.205	31.750	
153.00	-58.916	52.383	
154.00	-55.487	75.123	
155.00	-53.646	90.335	
156.00	-52.367	105.509	
157.00	-51.639	121.061	
158.00	-52.223	136.059	
159.00	-53.336	158.129	
160.00	-55.350	-172.142	
161.00	-57.732	-133.374	
162.00	-58.248	-83.392	
163.00	-55.184	-40.908	
164.00	-53.073	-15.591	
165.00	-51.305	0.341	
166.00	-50.962	12.758	
167.00	-51.707	27.048	
168.00	-53.719	38.426	
169.00	-57.055	55.120	
170.00	-60.769	73.556	
171.00	-59.388	93.905	
172.00	-55.547	86.931	
173.00	-49.428	79.601	
174.00	-44.264	81.354	
175.00	-40.049	77.819	
176.00	-36.901	80.199	
177.00	-34.413	79.639	
178.00	-32.696	80.614	
179.00	-31.503	78.925	
180.00	-30.903	78.508	
181.00	-30.715	75.493	
182.00	-31.159	71.558	
183.00	-32.144	69.987	
184.00	-33.668	60.116	
185.00	-35.863	48.500	
186.00	-38.521	31.203	
187.00	-40.915	4.293	
188.00	-41.931	-26.329	
189.00	-41.995	-49.164	
190.00	-42.087	-68.232	
191.00	-42.967	-77.747	
192.00	-45.117	-83.580	
193.00	-48.955	-82.189	
194.00	-54.796	-56.207	
195.00	-54.251	-0.937	
196.00	-49.972	9.954	
197.00	-47.989	10.309	
198.00	-47.502	0.356	
199.00	-48.613	-13.112	
200.00	-51.079	-30.519	
201.00	-56.150	-67.818	
202.00	-59.729	-135.598	
203.00	-53.859	165.445	
204.00	-50.836	137.466	
205.00	-49.160	114.399	
206.00	-48.601	96.848	
207.00	-48.841	70.157	
208.00	-49.409	42.539	
209.00	-49.366	9.781	
210.00	-48.853	-20.161	
211.00	-48.515	-48.830	
212.00	-47.829	-75.530	
213.00	-47.483	-101.756	
214.00	-47.654	-119.396	
215.00	-48.493	-140.452	
216.00	-49.981	-158.036	
217.00	-51.578	179.363	
218.00	-54.448	161.204	
219.00	-57.620	131.329	
220.00	-60.410	97.746	
221.00	-64.021	64.408	
222.00	-65.916	34.937	
223.00	-67.848	-2.234	
224.00	-68.953	-26.175	
225.00	-73.999	-11.943	
226.00	-77.108	49.592	
227.00	-69.753	6.464	
228.00	-66.553	3.870	
229.00	-64.992	-23.545	
230.00	-63.986	-42.907	
231.00	-63.285	-60.418	
232.00	-61.780	-77.832	
233.00	-62.621	-103.653	
234.00	-62.941	-115.201	
235.00	-65.677	-126.663	
236.00	-66.154	-142.301	
237.00	-67.721	-138.025	
238.00	-68.795	-144.653	
239.00	-68.677	-145.329	
240.00	-67.004	-145.844	
241.00	-67.215	-156.668	
242.00	-67.405	-159.157	
243.00	-65.273	-167.328	
244.00	-67.234	175.302	
245.00	-67.146	171.069	
246.00	-68.998	168.677	
247.00	-71.231	161.779	
248.00	-71.622	159.840	
249.00	-72.405	-178.326	
250.00	-70.668	170.374	
251.00	-71.163	167.796	
252.00	-69.527	156.926	
253.00	-69.269	156.969	
254.00	-67.594	154.088	
255.00	-73.277	116.357	
256.00	-79.695	115.783	
257.00	-73.674	108.577	
258.00	-82.453	49.033	
259.00	-79.558	77.781	
260.00	-75.099	-0.197	
261.00	-82.168	-134.694	
262.00	-86.031	-50.524	
263.00	-87.910	-73.278	
264.00	-86.806	-117.646	
265.00	-84.419	-121.033	
266.00	-86.879	-106.386	
267.00	-86.871	-158.303	
268.00	-77.438	-97.360	
269.00	-80.974	-130.526	
270.00	-85.581	-77.378	
271.00	-76.898	-136.612	
272.00	-74.462	179.908	
273.00	-77.001	167.193	
274.00	-76.201	163.001	
275.00	-75.603	133.595	
276.00	-72.095	158.805	
277.00	-70.605	114.746	
278.00	-72.598	111.610	
279.00	-69.856	96.306	
280.00	-71.660	111.219	
281.00	-69.057	88.178	
282.00	-72.257	61.092	
283.00	-75.258	50.130	
284.00	-73.339	2.376	
285.00	-70.985	-13.714	
286.00	-70.814	-32.469	
287.00	-71.625	-59.044	
288.00	-71.105	-99.745	
289.00	-77.308	-122.624	
290.00	-71.937	-149.501	
291.00	-78.527	-171.618	
292.00	-76.744	164.457	
293.00	-83.181	-151.734	
294.00	-75.275	167.419	
295.00	-74.548	-174.085	
296.00	-85.954	-147.514	
297.00	-79.090	157.495	
298.00	-73.695	171.629	
299.00	-75.793	146.376	
300.00	-78.042	99.651	
301.00	-82.638	92.129	
302.00	-86.223	-37.447	
303.00	-85.872	-178.355	
304.00	-92.188	-164.223	
305.00	-90.591	-137.250	
306.00	-82.823	-152.518	
307.00	-75.398	169.103	
308.00	-79.789	168.894	
309.00	-81.460	162.550	
310.00	-75.814	140.366	
311.00	-76.046	127.187	
312.00	-72.420	155.592	
313.00	-73.655	138.001	
314.00	-72.704	96.883	
315.00	-69.954	102.859	
316.00	-76.582	60.508	
317.00	-74.117	24.289	
318.00	-82.148	9.357	
319.00	-81.035	21.421	
320.00	-80.243	52.064	
321.00	-85.359	53.549	
322.00	-81.386	107.533	
323.00	-75.978	91.752	
324.00	-75.716	90.704	
325.00	-82.605	42.400	
326.00	-90.314	162.565	
327.00	-88.589	94.143	
328.00	-85.780	8.263	
329.00	-76.268	-35.327	
330.00	-78.060	-17.207	
331.00	-79.031	-51.737	
332.00	-83.334	-90.113	
333.00	-83.581	126.016	
334.00	-80.020	161.729	
335.00	-75.987	159.703	
336.00	-80.394	115.937	
337.00	-82.095	-169.539	
338.00	-79.222	40.725	
339.00	-76.702	-59.526	
340.00	-77.150	-72.720	
341.00	-81.522	-118.671	
342.00	-77.360	-149.403	
343.00	-73.004	-161.717	
344.00	-71.487	177.321	
345.00	-75.136	-172.409	
346.00	-79.175	-142.977	
347.00	-76.314	-23.077	
348.00	-73.903	-48.151	
349.00	-73.431	-48.824	
350.00	-80.175	-33.547	
351.00	-98.670	-115.997	
352.00	-80.882	-154.189	
353.00	-98.375	113.558	
354.00	-89.833	105.565	
355.00	-76.603	30.835	
356.00	-73.760	31.707	
357.00	-75.238	28.513	
358.00	-81.804	-33.043	
359.00	-80.081	-62.085	
Frequency	3800.00	MHz	
Channel	test		
Scan Axis name	Azimuth  [deg]		
Scan Axis	Amplitude	Phase	
			
0.00	-67.457	5.675	
1.00	-65.490	18.965	
2.00	-65.204	28.186	
3.00	-65.031	42.219	
4.00	-65.885	58.114	
5.00	-70.563	78.743	
6.00	-73.068	83.807	
7.00	-78.994	113.404	
8.00	-80.227	-141.351	
9.00	-74.032	-116.164	
10.00	-73.662	-91.354	
11.00	-70.669	-108.258	
12.00	-71.301	-101.192	
13.00	-73.884	-81.221	
14.00	-74.531	11.799	
15.00	-72.169	73.794	
16.00	-67.574	94.407	
17.00	-66.088	109.994	
18.00	-65.913	135.933	
19.00	-67.649	161.870	
20.00	-69.380	-166.142	
21.00	-72.589	-101.595	
22.00	-72.186	-34.101	
23.00	-69.278	-0.738	
24.00	-70.685	39.173	
25.00	-72.429	69.809	
26.00	-78.853	107.665	
27.00	-75.459	-147.065	
28.00	-75.054	-127.637	
29.00	-72.074	-99.519	
30.00	-71.058	-79.618	
31.00	-73.738	-63.029	
32.00	-72.550	-48.172	
33.00	-70.163	-34.762	
34.00	-70.686	-45.415	
35.00	-71.664	-23.264	
36.00	-71.963	16.694	
37.00	-72.516	98.183	
38.00	-70.260	126.700	
39.00	-67.610	162.437	
40.00	-68.644	-167.603	
41.00	-66.067	-132.595	
42.00	-65.520	-92.538	
43.00	-66.024	-55.848	
44.00	-65.705	-17.481	
45.00	-65.917	24.284	
46.00	-67.769	66.082	
47.00	-67.756	95.903	
48.00	-68.416	152.242	
49.00	-66.528	-166.203	
50.00	-69.441	-125.780	
51.00	-67.940	-81.419	
52.00	-64.768	-36.161	
53.00	-65.074	3.098	
54.00	-65.079	32.548	
55.00	-65.191	69.640	
56.00	-65.368	94.055	
57.00	-66.829	125.033	
58.00	-69.523	162.525	
59.00	-73.765	-135.454	
60.00	-75.416	-60.339	
61.00	-69.254	-12.916	
62.00	-67.528	14.243	
63.00	-66.030	48.947	
64.00	-64.789	76.692	
65.00	-64.514	109.622	
66.00	-64.452	133.304	
67.00	-65.335	168.306	
68.00	-64.631	-165.772	
69.00	-66.032	-132.189	
70.00	-67.758	-98.626	
71.00	-68.900	-52.863	
72.00	-67.332	-15.202	
73.00	-66.845	16.913	
74.00	-66.353	57.773	
75.00	-67.085	76.388	
76.00	-65.886	116.952	
77.00	-65.135	147.478	
78.00	-65.050	165.753	
79.00	-65.092	-161.549	
80.00	-65.171	-141.269	
81.00	-65.907	-105.641	
82.00	-66.373	-82.327	
83.00	-65.297	-52.758	
84.00	-64.970	-29.266	
85.00	-64.777	-2.949	
86.00	-64.920	21.224	
87.00	-63.585	42.639	
88.00	-63.047	54.169	
89.00	-62.481	83.922	
90.00	-62.671	99.748	
91.00	-62.527	122.847	
92.00	-63.320	143.831	
93.00	-62.243	160.070	
94.00	-62.423	-175.225	
95.00	-62.535	-154.055	
96.00	-62.763	-130.979	
97.00	-62.973	-104.613	
98.00	-63.229	-89.861	
99.00	-63.313	-66.593	
100.00	-64.673	-51.526	
101.00	-64.946	-27.631	
102.00	-67.166	-17.889	
103.00	-68.679	-3.002	
104.00	-69.765	-2.205	
105.00	-69.867	0.051	
106.00	-68.617	1.845	
107.00	-67.935	15.522	
108.00	-64.993	20.056	
109.00	-64.787	34.367	
110.00	-63.637	56.749	
111.00	-63.654	69.873	
112.00	-63.497	98.169	
113.00	-63.398	125.245	
114.00	-64.975	147.934	
115.00	-66.757	171.692	
116.00	-69.846	-135.521	
117.00	-73.190	-47.825	
118.00	-67.815	0.155	
119.00	-63.273	40.545	
120.00	-59.728	65.094	
121.00	-57.266	86.630	
122.00	-55.710	104.746	
123.00	-54.918	124.057	
124.00	-54.590	142.464	
125.00	-54.707	155.171	
126.00	-55.550	173.315	
127.00	-57.580	-174.712	
128.00	-59.651	-168.617	
129.00	-63.357	179.967	
130.00	-61.798	158.013	
131.00	-58.889	147.969	
132.00	-55.556	155.044	
133.00	-53.738	166.534	
134.00	-52.108	-179.122	
135.00	-51.186	-166.029	
136.00	-51.320	-149.950	
137.00	-52.019	-139.280	
138.00	-53.884	-131.057	
139.00	-56.634	-131.362	
140.00	-58.465	-160.548	
141.00	-55.482	175.452	
142.00	-51.824	174.090	
143.00	-49.369	-177.810	
144.00	-48.110	-164.309	
145.00	-47.190	-151.447	
146.00	-47.122	-138.355	
147.00	-47.518	-123.642	
148.00	-48.766	-109.502	
149.00	-50.764	-100.540	
150.00	-53.913	-87.803	
151.00	-58.039	-100.517	
152.00	-58.215	-140.291	
153.00	-54.625	-150.355	
154.00	-51.943	-145.807	
155.00	-50.400	-134.546	
156.00	-50.210	-122.781	
157.00	-51.066	-102.859	
158.00	-52.397	-76.131	
159.00	-53.031	-34.836	
160.00	-51.649	5.364	
161.00	-49.461	30.228	
162.00	-47.997	48.192	
163.00	-47.511	62.125	
164.00	-47.663	72.897	
165.00	-49.274	84.536	
166.00	-51.039	94.088	
167.00	-54.706	93.694	
168.00	-59.368	84.562	
169.00	-64.038	53.935	
170.00	-64.411	6.746	
171.00	-68.477	-70.528	
172.00	-57.219	-130.908	
173.00	-49.012	-141.103	
174.00	-43.587	-135.964	
175.00	-39.625	-136.808	
176.00	-36.617	-132.280	
177.00	-34.290	-131.616	
178.00	-32.758	-128.561	
179.00	-31.626	-129.814	
180.00	-31.162	-129.121	
181.00	-31.085	-131.452	
182.00	-31.716	-135.174	
183.00	-32.720	-137.536	
184.00	-34.363	-148.321	
185.00	-36.411	-163.382	
186.00	-38.637	175.655	
187.00	-39.877	147.380	
188.00	-39.918	121.227	
189.00	-39.572	104.218	
190.00	-39.821	89.149	
191.00	-40.785	82.569	
192.00	-42.810	77.799	
193.00	-45.913	77.067	
194.00	-50.334	91.419	
195.00	-52.423	128.697	
196.00	-50.439	147.057	
197.00	-48.895	147.274	
198.00	-48.793	134.140	
199.00	-49.931	108.747	
200.00	-50.827	74.326	
201.00	-49.930	34.269	
202.00	-47.943	-1.081	
203.00	-46.430	-26.402	
204.00	-45.526	-50.405	
205.00	-45.203	-72.112	
206.00	-45.704	-91.417	
207.00	-46.691	-120.893	
208.00	-47.631	-152.773	
209.00	-47.918	170.682	
210.00	-47.168	135.986	
211.00	-46.276	105.156	
212.00	-45.761	79.783	
213.00	-45.429	55.295	
214.00	-45.904	36.114	
215.00	-46.838	14.026	
216.00	-48.344	-5.765	
217.00	-50.204	-31.053	
218.00	-52.246	-55.673	
219.00	-54.491	-88.160	
220.00	-56.199	-119.954	
221.00	-56.858	-150.647	
222.00	-57.928	-174.195	
223.00	-60.047	171.192	
224.00	-61.597	164.562	
225.00	-64.763	159.884	
226.00	-64.961	168.835	
227.00	-63.793	176.785	
228.00	-62.069	168.873	
229.00	-61.756	152.505	
230.00	-61.092	137.922	
231.00	-60.599	120.707	
232.00	-60.745	103.089	
233.00	-61.296	80.778	
234.00	-61.879	65.548	
235.00	-61.918	48.116	
236.00	-64.424	37.704	
237.00	-65.782	24.486	
238.00	-64.851	14.518	
239.00	-65.240	2.401	
240.00	-65.117	-0.274	
241.00	-65.009	-12.893	
242.00	-64.266	-28.118	
243.00	-63.809	-44.158	
244.00	-63.926	-63.901	
245.00	-64.878	-69.799	
246.00	-65.238	-88.705	
247.00	-65.533	-97.825	
248.00	-67.026	-105.275	
249.00	-68.314	-119.928	
250.00	-67.976	-144.859	
251.00	-70.889	-133.945	
252.00	-73.431	-169.986	
253.00	-83.010	-126.405	
254.00	-92.944	-158.370	
255.00	-88.278	48.369	
256.00	-79.801	18.810	
257.00	-82.911	-22.037	
258.00	-78.060	-10.340	
259.00	-78.061	-51.310	
260.00	-78.651	-93.441	
261.00	-78.557	-99.560	
262.00	-76.278	-123.487	
263.00	-76.828	-141.969	
264.00	-75.555	-167.403	
265.00	-79.963	122.027	
266.00	-74.033	73.733	
267.00	-76.468	55.145	
268.00	-73.674	43.343	
269.00	-71.943	1.635	
270.00	-72.389	-3.436	
271.00	-70.807	-13.455	
272.00	-71.417	-37.801	
273.00	-71.735	-46.766	
274.00	-72.925	-92.988	
275.00	-72.665	-84.672	
276.00	-74.240	-147.401	
277.00	-71.879	-146.274	
278.00	-73.248	-142.005	
279.00	-72.221	-172.676	
280.00	-70.730	-173.428	
281.00	-70.090	-179.790	
282.00	-71.769	163.555	
283.00	-70.548	147.891	
284.00	-69.713	128.794	
285.00	-70.927	114.872	
286.00	-70.129	106.764	
287.00	-71.291	83.218	
288.00	-75.279	72.087	
289.00	-80.177	18.316	
290.00	-76.449	3.323	
291.00	-77.700	6.170	
292.00	-78.165	-48.334	
293.00	-78.610	-25.573	
294.00	-77.757	-65.890	
295.00	-72.945	-76.483	
296.00	-71.062	-107.017	
297.00	-71.667	-135.651	
298.00	-73.577	-132.991	
299.00	-75.101	171.033	
300.00	-76.287	138.313	
301.00	-79.821	43.663	
302.00	-74.174	8.094	
303.00	-71.261	-7.756	
304.00	-71.247	-30.186	
305.00	-70.805	-53.923	
306.00	-73.768	-87.329	
307.00	-76.885	-105.457	
308.00	-81.550	164.435	
309.00	-77.060	149.960	
310.00	-80.911	145.754	
311.00	-83.381	-105.658	
312.00	-80.340	-91.587	
313.00	-73.455	-106.315	
314.00	-75.653	-143.430	
315.00	-72.759	-169.156	
316.00	-76.592	160.157	
317.00	-81.336	100.689	
318.00	-75.440	85.895	
319.00	-78.990	39.501	
320.00	-80.998	92.800	
321.00	-75.942	149.176	
322.00	-74.328	132.805	
323.00	-70.832	120.771	
324.00	-71.071	121.118	
325.00	-80.889	128.706	
326.00	-88.963	121.338	
327.00	-75.930	-53.367	
328.00	-77.654	-76.197	
329.00	-78.507	-101.571	
330.00	-80.745	-145.424	
331.00	-81.605	142.461	
332.00	-81.012	118.708	
333.00	-78.753	138.998	
334.00	-82.525	-126.716	
335.00	-76.222	-124.735	
336.00	-80.090	-88.568	
337.00	-79.082	-106.720	
338.00	-86.453	-85.877	
339.00	-95.319	-35.861	
340.00	-91.761	-88.810	
341.00	-77.779	-85.715	
342.00	-76.979	-119.323	
343.00	-74.103	-107.869	
344.00	-72.255	-119.520	
345.00	-73.468	-104.586	
346.00	-77.602	-44.742	
347.00	-72.629	-21.757	
348.00	-73.614	-2.440	
349.00	-77.885	-52.852	
350.00	-78.700	-69.398	
351.00	-92.972	-159.322	
352.00	-80.177	170.308	
353.00	-78.730	125.418	
354.00	-73.869	79.766	
355.00	-69.972	91.187	
356.00	-69.815	81.859	
357.00	-73.202	62.349	
358.00	-78.269	44.907	
359.00	-74.092	30.232	
