Test Title:	Alpha Wireless Indoor Range						
Date:	06/01/2017						
Time:	14:55						
Operator Name:	FL						
Comment:	TAB ON ELEMENT 10 TOP PATCH
PARTITION AT ELEMENT 9						
Caib. File Name:	C:\Program Files\Midas 2.01d\Calibration Files\test sigma 180900.cal						
							
[Scan Axis] Name: 	Azimuth  [deg]Start: 	0.000000	Stop	359.000000	Increment	1.000000[Step Axis] Name: 	Start: 	0.000000	Stop	0.000000	Increment	0.000000[Tert] Name: 	None [Forth] Name: 	None  [ Freq.]  (List) 	MHz.	3300.000000	3350.000000	3400.000000	3450.000000	3500.000000	3550.000000	3575.000000	3600.000000	3625.000000	3650.000000	3675.000000	3700.000000	3750.000000	3800.000000
 [Switch]  	None [Channel]  	test			 [ Beam] 	None			
Database:			
First Question			
2nd			
3rd			
4th			
			
Frequency	3300.00	MHz	
Channel	test		
Scan Axis name	Azimuth  [deg]		
Scan Axis	Amplitude	Phase	
			
0.00	-69.490	-101.636	
1.00	-72.279	-76.471	
2.00	-75.533	-53.899	
3.00	-73.464	-16.621	
4.00	-72.414	1.708	
5.00	-71.336	28.831	
6.00	-70.298	23.105	
7.00	-67.632	29.804	
8.00	-67.225	36.783	
9.00	-66.930	41.963	
10.00	-66.141	54.714	
11.00	-66.738	51.332	
12.00	-69.317	51.745	
13.00	-68.600	65.725	
14.00	-69.438	82.303	
15.00	-74.882	77.171	
16.00	-73.829	85.637	
17.00	-86.338	51.764	
18.00	-85.607	81.342	
19.00	-80.309	-63.264	
20.00	-75.750	-34.571	
21.00	-75.774	-49.328	
22.00	-72.656	-43.911	
23.00	-70.825	-20.103	
24.00	-67.893	-5.414	
25.00	-68.784	13.487	
26.00	-67.586	0.683	
27.00	-67.618	20.043	
28.00	-68.096	27.063	
29.00	-70.478	41.106	
30.00	-68.996	46.522	
31.00	-71.823	51.210	
32.00	-75.232	53.182	
33.00	-77.139	83.371	
34.00	-77.184	33.818	
35.00	-73.637	67.874	
36.00	-73.072	20.734	
37.00	-74.029	31.822	
38.00	-69.697	22.644	
39.00	-69.762	37.695	
40.00	-68.882	45.411	
41.00	-66.349	59.117	
42.00	-65.486	74.373	
43.00	-65.364	84.790	
44.00	-64.886	102.604	
45.00	-63.450	120.073	
46.00	-63.011	144.988	
47.00	-62.193	155.657	
48.00	-62.647	-178.610	
49.00	-62.317	-162.779	
50.00	-63.876	-149.870	
51.00	-64.581	-128.581	
52.00	-64.946	-97.825	
53.00	-66.046	-71.784	
54.00	-64.541	-52.118	
55.00	-65.355	-8.228	
56.00	-64.197	10.960	
57.00	-63.761	43.466	
58.00	-62.493	78.005	
59.00	-62.119	99.762	
60.00	-60.596	120.038	
61.00	-59.995	149.999	
62.00	-59.586	167.839	
63.00	-59.276	-170.802	
64.00	-58.512	-144.806	
65.00	-58.178	-118.621	
66.00	-57.616	-97.771	
67.00	-57.227	-66.074	
68.00	-57.444	-45.124	
69.00	-57.104	-20.880	
70.00	-56.447	3.543	
71.00	-56.032	32.348	
72.00	-55.480	55.358	
73.00	-55.238	81.884	
74.00	-54.834	109.055	
75.00	-53.883	132.608	
76.00	-53.658	156.784	
77.00	-52.992	-177.591	
78.00	-52.160	-155.787	
79.00	-51.888	-130.826	
80.00	-50.882	-108.385	
81.00	-50.366	-87.954	
82.00	-50.138	-62.245	
83.00	-49.827	-42.463	
84.00	-49.612	-18.200	
85.00	-49.184	4.038	
86.00	-48.873	26.708	
87.00	-48.711	50.212	
88.00	-48.464	73.215	
89.00	-48.001	97.430	
90.00	-47.724	121.630	
91.00	-47.294	145.216	
92.00	-47.070	168.570	
93.00	-46.494	-170.531	
94.00	-45.891	-148.072	
95.00	-45.772	-125.472	
96.00	-45.070	-105.269	
97.00	-44.530	-82.920	
98.00	-44.211	-62.448	
99.00	-43.915	-42.067	
100.00	-43.430	-20.781	
101.00	-43.108	-0.613	
102.00	-42.770	21.072	
103.00	-42.307	39.289	
104.00	-41.974	63.025	
105.00	-41.513	83.757	
106.00	-41.255	105.079	
107.00	-40.898	124.310	
108.00	-40.683	144.655	
109.00	-40.198	164.016	
110.00	-39.924	-178.261	
111.00	-39.646	-159.243	
112.00	-39.468	-141.898	
113.00	-39.294	-122.239	
114.00	-39.071	-106.058	
115.00	-38.810	-86.976	
116.00	-38.627	-69.475	
117.00	-38.414	-50.898	
118.00	-38.089	-33.769	
119.00	-37.821	-15.278	
120.00	-37.559	0.813	
121.00	-37.250	18.017	
122.00	-36.893	35.100	
123.00	-36.613	50.242	
124.00	-36.366	66.655	
125.00	-36.054	82.303	
126.00	-35.968	97.690	
127.00	-35.620	110.506	
128.00	-35.529	127.347	
129.00	-35.284	139.301	
130.00	-35.088	154.522	
131.00	-34.796	166.930	
132.00	-34.555	-177.892	
133.00	-34.303	-167.946	
134.00	-34.106	-154.348	
135.00	-33.949	-144.390	
136.00	-33.613	-130.684	
137.00	-33.476	-120.938	
138.00	-33.295	-108.706	
139.00	-33.109	-96.870	
140.00	-32.923	-86.425	
141.00	-32.735	-75.852	
142.00	-32.483	-66.487	
143.00	-32.326	-56.953	
144.00	-32.140	-47.829	
145.00	-31.982	-38.022	
146.00	-31.741	-31.013	
147.00	-31.607	-22.041	
148.00	-31.430	-15.153	
149.00	-31.192	-6.368	
150.00	-30.978	-1.029	
151.00	-30.856	7.400	
152.00	-30.741	13.625	
153.00	-30.570	19.345	
154.00	-30.452	23.862	
155.00	-30.223	28.644	
156.00	-30.178	34.301	
157.00	-29.971	38.503	
158.00	-29.891	43.044	
159.00	-29.692	44.565	
160.00	-29.674	47.717	
161.00	-29.578	49.885	
162.00	-29.348	54.680	
163.00	-29.323	53.858	
164.00	-29.218	56.172	
165.00	-29.096	57.172	
166.00	-28.982	57.613	
167.00	-28.852	57.944	
168.00	-28.782	58.300	
169.00	-28.697	58.849	
170.00	-28.614	56.593	
171.00	-28.433	56.723	
172.00	-28.381	54.525	
173.00	-28.262	53.046	
174.00	-28.209	50.976	
175.00	-28.076	48.945	
176.00	-27.970	45.892	
177.00	-28.024	42.810	
178.00	-27.931	39.614	
179.00	-27.828	35.389	
180.00	-27.927	32.126	
181.00	-27.763	27.438	
182.00	-27.850	23.046	
183.00	-27.741	16.457	
184.00	-27.771	10.124	
185.00	-27.820	4.029	
186.00	-27.829	-2.851	
187.00	-27.899	-8.832	
188.00	-27.829	-16.846	
189.00	-28.022	-22.694	
190.00	-27.887	-32.328	
191.00	-28.083	-38.549	
192.00	-28.199	-47.299	
193.00	-28.318	-55.906	
194.00	-28.381	-64.223	
195.00	-28.496	-73.932	
196.00	-28.528	-83.281	
197.00	-28.655	-92.837	
198.00	-28.843	-102.950	
199.00	-28.978	-115.082	
200.00	-29.092	-125.503	
201.00	-29.311	-137.174	
202.00	-29.447	-149.428	
203.00	-29.722	-161.214	
204.00	-29.890	-174.532	
205.00	-30.092	172.413	
206.00	-30.245	158.202	
207.00	-30.481	143.406	
208.00	-30.652	129.579	
209.00	-30.861	115.406	
210.00	-31.105	100.439	
211.00	-31.292	85.182	
212.00	-31.492	70.779	
213.00	-31.717	55.125	
214.00	-31.851	39.400	
215.00	-32.106	23.812	
216.00	-32.233	7.149	
217.00	-32.500	-10.155	
218.00	-32.665	-25.722	
219.00	-32.847	-44.200	
220.00	-33.006	-60.879	
221.00	-33.148	-79.160	
222.00	-33.424	-96.686	
223.00	-33.490	-115.419	
224.00	-33.709	-132.981	
225.00	-33.783	-152.550	
226.00	-33.923	-171.632	
227.00	-34.148	169.467	
228.00	-34.252	150.072	
229.00	-34.374	128.586	
230.00	-34.509	110.026	
231.00	-34.594	91.299	
232.00	-34.774	70.821	
233.00	-34.985	50.921	
234.00	-35.124	31.717	
235.00	-35.376	11.743	
236.00	-35.460	-10.142	
237.00	-35.767	-29.662	
238.00	-35.917	-49.962	
239.00	-36.298	-68.927	
240.00	-36.435	-92.534	
241.00	-36.560	-110.674	
242.00	-36.860	-133.315	
243.00	-37.122	-152.141	
244.00	-37.181	-175.441	
245.00	-37.400	164.055	
246.00	-37.775	142.235	
247.00	-37.852	120.192	
248.00	-38.102	101.524	
249.00	-38.305	76.800	
250.00	-38.610	57.618	
251.00	-38.772	38.263	
252.00	-39.076	15.959	
253.00	-39.367	-7.323	
254.00	-39.641	-28.014	
255.00	-39.937	-49.460	
256.00	-40.313	-70.947	
257.00	-40.650	-92.056	
258.00	-41.072	-113.596	
259.00	-41.454	-137.353	
260.00	-41.839	-157.633	
261.00	-42.252	-179.823	
262.00	-42.798	158.591	
263.00	-43.289	136.476	
264.00	-43.603	113.803	
265.00	-44.158	92.311	
266.00	-44.830	69.928	
267.00	-45.371	46.355	
268.00	-45.907	24.768	
269.00	-46.548	-0.255	
270.00	-47.264	-23.084	
271.00	-47.678	-46.180	
272.00	-48.455	-72.526	
273.00	-48.890	-96.121	
274.00	-49.288	-121.112	
275.00	-49.838	-146.754	
276.00	-50.605	-169.262	
277.00	-50.703	166.501	
278.00	-51.088	144.927	
279.00	-51.910	119.320	
280.00	-52.220	99.551	
281.00	-52.804	74.106	
282.00	-53.110	52.220	
283.00	-54.045	29.262	
284.00	-54.661	5.769	
285.00	-55.485	-21.914	
286.00	-56.143	-42.837	
287.00	-56.827	-70.894	
288.00	-57.896	-93.444	
289.00	-57.683	-121.871	
290.00	-58.581	-143.337	
291.00	-58.657	-173.276	
292.00	-58.955	165.346	
293.00	-59.222	139.595	
294.00	-58.892	120.028	
295.00	-59.115	96.698	
296.00	-59.408	78.564	
297.00	-59.360	54.886	
298.00	-60.022	32.300	
299.00	-59.325	10.723	
300.00	-60.966	-9.277	
301.00	-61.298	-20.394	
302.00	-61.480	-45.521	
303.00	-62.189	-66.250	
304.00	-62.106	-74.799	
305.00	-64.000	-102.350	
306.00	-64.112	-114.926	
307.00	-65.015	-126.268	
308.00	-67.454	-143.623	
309.00	-66.960	-158.914	
310.00	-70.396	-169.477	
311.00	-70.625	172.092	
312.00	-73.862	149.468	
313.00	-75.412	157.988	
314.00	-73.608	117.031	
315.00	-73.847	107.298	
316.00	-76.474	118.611	
317.00	-81.007	-173.394	
318.00	-82.156	79.526	
319.00	-80.119	150.801	
320.00	-81.319	-144.798	
321.00	-77.151	-146.660	
322.00	-75.615	-148.886	
323.00	-75.605	-156.699	
324.00	-73.157	-160.353	
325.00	-70.167	-171.987	
326.00	-70.001	-169.739	
327.00	-70.205	-174.843	
328.00	-69.672	166.497	
329.00	-67.308	174.172	
330.00	-69.980	160.478	
331.00	-66.988	150.550	
332.00	-68.850	143.373	
333.00	-69.092	131.328	
334.00	-67.165	132.255	
335.00	-69.654	119.104	
336.00	-68.369	103.865	
337.00	-67.977	90.244	
338.00	-73.114	72.350	
339.00	-70.155	36.477	
340.00	-69.979	22.507	
341.00	-68.929	-7.429	
342.00	-69.648	-31.064	
343.00	-67.999	-51.088	
344.00	-66.102	-52.082	
345.00	-65.258	-70.371	
346.00	-63.627	-80.136	
347.00	-63.825	-85.587	
348.00	-61.693	-93.609	
349.00	-61.895	-91.857	
350.00	-61.093	-100.244	
351.00	-60.970	-104.967	
352.00	-61.464	-105.727	
353.00	-60.638	-107.779	
354.00	-61.975	-101.935	
355.00	-61.272	-110.356	
356.00	-62.923	-113.153	
357.00	-64.155	-107.752	
358.00	-66.419	-101.975	
359.00	-66.223	-106.123	
Frequency	3350.00	MHz	
Channel	test		
Scan Axis name	Azimuth  [deg]		
Scan Axis	Amplitude	Phase	
			
0.00	-69.481	56.034	
1.00	-77.142	118.252	
2.00	-72.971	110.878	
3.00	-72.229	131.615	
4.00	-67.684	140.986	
5.00	-68.814	143.505	
6.00	-69.609	143.771	
7.00	-65.506	165.167	
8.00	-64.523	148.751	
9.00	-63.836	164.281	
10.00	-66.913	174.196	
11.00	-65.960	-179.986	
12.00	-71.884	162.170	
13.00	-68.500	-164.135	
14.00	-69.847	165.482	
15.00	-80.207	143.522	
16.00	-89.085	136.040	
17.00	-77.662	77.654	
18.00	-74.140	58.789	
19.00	-66.686	99.228	
20.00	-66.699	83.253	
21.00	-66.823	86.019	
22.00	-66.632	106.289	
23.00	-65.090	107.821	
24.00	-64.561	109.736	
25.00	-64.339	125.311	
26.00	-67.066	140.493	
27.00	-68.438	154.723	
28.00	-66.351	141.795	
29.00	-68.006	165.495	
30.00	-68.071	171.287	
31.00	-72.098	-175.992	
32.00	-73.743	155.927	
33.00	-69.331	-169.054	
34.00	-76.392	167.376	
35.00	-71.755	140.474	
36.00	-70.937	137.508	
37.00	-69.878	142.052	
38.00	-68.864	138.107	
39.00	-67.475	161.940	
40.00	-68.096	-176.602	
41.00	-66.699	-175.961	
42.00	-64.518	-163.181	
43.00	-63.744	-155.789	
44.00	-65.528	-129.250	
45.00	-63.450	-111.180	
46.00	-64.785	-96.453	
47.00	-67.474	-86.870	
48.00	-65.508	-49.837	
49.00	-67.730	-25.531	
50.00	-65.445	-11.047	
51.00	-65.698	50.532	
52.00	-67.236	69.892	
53.00	-65.402	88.511	
54.00	-65.396	115.208	
55.00	-62.938	142.334	
56.00	-64.580	153.511	
57.00	-61.854	-165.098	
58.00	-61.755	-148.156	
59.00	-61.830	-127.507	
60.00	-61.327	-101.050	
61.00	-60.674	-71.908	
62.00	-59.315	-47.047	
63.00	-59.169	-22.366	
64.00	-58.852	12.757	
65.00	-58.711	39.483	
66.00	-56.655	59.316	
67.00	-57.339	88.313	
68.00	-56.540	101.466	
69.00	-55.584	135.488	
70.00	-55.461	160.698	
71.00	-55.340	-174.640	
72.00	-54.448	-154.117	
73.00	-54.193	-126.565	
74.00	-52.943	-104.838	
75.00	-53.609	-80.050	
76.00	-52.786	-52.768	
77.00	-52.324	-26.531	
78.00	-51.815	-7.595	
79.00	-50.895	14.872	
80.00	-51.245	43.020	
81.00	-50.771	66.192	
82.00	-50.019	89.610	
83.00	-49.590	111.317	
84.00	-48.963	135.423	
85.00	-48.492	158.877	
86.00	-48.666	-177.866	
87.00	-48.230	-154.076	
88.00	-47.911	-129.893	
89.00	-47.948	-104.963	
90.00	-47.350	-78.359	
91.00	-46.937	-57.117	
92.00	-46.357	-32.821	
93.00	-45.900	-10.832	
94.00	-45.209	11.212	
95.00	-44.809	33.129	
96.00	-44.572	53.280	
97.00	-43.988	74.341	
98.00	-43.556	96.850	
99.00	-43.376	116.455	
100.00	-42.924	138.942	
101.00	-42.357	158.371	
102.00	-42.018	-179.462	
103.00	-41.650	-160.505	
104.00	-41.483	-136.774	
105.00	-41.214	-114.726	
106.00	-40.890	-94.694	
107.00	-40.646	-75.473	
108.00	-40.340	-55.346	
109.00	-40.176	-34.439	
110.00	-39.860	-15.647	
111.00	-39.609	4.869	
112.00	-39.360	23.272	
113.00	-39.010	41.911	
114.00	-38.723	59.944	
115.00	-38.494	78.241	
116.00	-38.167	96.291	
117.00	-38.001	115.336	
118.00	-37.519	131.393	
119.00	-37.350	149.536	
120.00	-37.166	166.331	
121.00	-36.777	-176.658	
122.00	-36.473	-159.205	
123.00	-36.298	-143.602	
124.00	-35.984	-127.081	
125.00	-35.850	-111.221	
126.00	-35.485	-94.958	
127.00	-35.275	-81.876	
128.00	-35.031	-64.963	
129.00	-34.750	-53.205	
130.00	-34.597	-37.474	
131.00	-34.311	-24.427	
132.00	-34.030	-8.865	
133.00	-33.835	1.180	
134.00	-33.635	14.988	
135.00	-33.364	24.929	
136.00	-33.108	39.577	
137.00	-32.843	49.299	
138.00	-32.770	62.041	
139.00	-32.414	73.784	
140.00	-32.293	84.879	
141.00	-32.082	95.361	
142.00	-31.961	105.342	
143.00	-31.685	114.635	
144.00	-31.476	124.264	
145.00	-31.278	134.234	
146.00	-31.106	141.250	
147.00	-30.917	149.693	
148.00	-30.609	156.860	
149.00	-30.602	165.948	
150.00	-30.391	172.273	
151.00	-30.208	-179.579	
152.00	-30.060	-173.588	
153.00	-29.886	-167.806	
154.00	-29.795	-162.750	
155.00	-29.730	-157.880	
156.00	-29.484	-152.995	
157.00	-29.398	-148.122	
158.00	-29.273	-144.068	
159.00	-29.140	-142.014	
160.00	-29.046	-139.267	
161.00	-28.961	-137.101	
162.00	-28.847	-132.134	
163.00	-28.706	-132.894	
164.00	-28.508	-131.569	
165.00	-28.483	-129.702	
166.00	-28.451	-128.947	
167.00	-28.220	-128.984	
168.00	-28.066	-128.949	
169.00	-27.983	-128.153	
170.00	-27.807	-130.515	
171.00	-27.644	-130.446	
172.00	-27.585	-132.286	
173.00	-27.494	-133.507	
174.00	-27.326	-135.936	
175.00	-27.375	-137.401	
176.00	-27.151	-141.099	
177.00	-27.176	-143.984	
178.00	-27.060	-147.131	
179.00	-27.026	-151.204	
180.00	-26.900	-155.548	
181.00	-26.980	-159.184	
182.00	-26.883	-164.410	
183.00	-26.938	-169.972	
184.00	-26.981	-176.698	
185.00	-27.056	177.670	
186.00	-26.999	170.385	
187.00	-26.985	164.010	
188.00	-26.988	156.215	
189.00	-27.093	149.639	
190.00	-27.178	141.112	
191.00	-27.234	134.209	
192.00	-27.335	125.421	
193.00	-27.398	115.890	
194.00	-27.475	107.878	
195.00	-27.515	97.954	
196.00	-27.722	89.221	
197.00	-27.782	79.351	
198.00	-27.958	69.095	
199.00	-28.075	56.675	
200.00	-28.316	46.663	
201.00	-28.349	34.161	
202.00	-28.615	22.588	
203.00	-28.826	10.228	
204.00	-29.018	-3.023	
205.00	-29.284	-16.284	
206.00	-29.559	-30.140	
207.00	-29.743	-45.448	
208.00	-29.978	-59.632	
209.00	-30.314	-73.342	
210.00	-30.559	-89.455	
211.00	-30.705	-104.982	
212.00	-30.875	-120.052	
213.00	-31.154	-135.906	
214.00	-31.396	-152.057	
215.00	-31.614	-168.262	
216.00	-31.828	175.752	
217.00	-32.000	157.213	
218.00	-32.255	141.858	
219.00	-32.452	123.067	
220.00	-32.581	105.620	
221.00	-32.742	87.808	
222.00	-32.847	69.068	
223.00	-33.046	50.944	
224.00	-33.151	32.804	
225.00	-33.270	13.528	
226.00	-33.530	-5.128	
227.00	-33.665	-25.542	
228.00	-33.734	-45.109	
229.00	-33.908	-66.362	
230.00	-33.999	-85.966	
231.00	-34.192	-104.289	
232.00	-34.293	-125.609	
233.00	-34.481	-145.859	
234.00	-34.693	-164.605	
235.00	-34.886	174.588	
236.00	-35.043	153.146	
237.00	-35.299	133.041	
238.00	-35.579	112.703	
239.00	-35.768	93.490	
240.00	-35.989	70.375	
241.00	-36.367	52.535	
242.00	-36.413	29.843	
243.00	-36.809	9.094	
244.00	-37.080	-12.143	
245.00	-37.462	-34.491	
246.00	-37.601	-57.219	
247.00	-37.798	-79.553	
248.00	-38.175	-99.355	
249.00	-38.460	-124.877	
250.00	-38.694	-143.276	
251.00	-38.932	-162.991	
252.00	-39.120	172.764	
253.00	-39.563	150.417	
254.00	-39.812	128.115	
255.00	-40.246	106.962	
256.00	-40.475	86.240	
257.00	-40.886	65.847	
258.00	-41.400	42.028	
259.00	-41.883	19.224	
260.00	-42.171	-2.389	
261.00	-42.556	-25.965	
262.00	-43.219	-47.199	
263.00	-43.467	-70.525	
264.00	-44.115	-90.935	
265.00	-44.782	-112.746	
266.00	-45.228	-137.685	
267.00	-45.431	-162.169	
268.00	-46.376	175.041	
269.00	-47.025	153.484	
270.00	-47.601	129.581	
271.00	-48.078	106.803	
272.00	-49.000	82.595	
273.00	-49.245	57.652	
274.00	-50.159	33.555	
275.00	-50.603	7.457	
276.00	-51.914	-13.861	
277.00	-52.353	-42.827	
278.00	-53.085	-69.092	
279.00	-53.814	-91.092	
280.00	-54.914	-114.498	
281.00	-54.802	-137.811	
282.00	-54.944	-166.141	
283.00	-56.817	170.559	
284.00	-56.681	148.270	
285.00	-56.508	120.249	
286.00	-57.824	98.662	
287.00	-58.931	71.519	
288.00	-59.274	49.538	
289.00	-61.323	10.579	
290.00	-60.120	-1.687	
291.00	-60.834	-42.101	
292.00	-60.866	-64.770	
293.00	-61.787	-90.910	
294.00	-61.980	-114.347	
295.00	-61.177	-143.235	
296.00	-61.813	-167.168	
297.00	-61.193	167.132	
298.00	-62.097	147.737	
299.00	-61.728	130.072	
300.00	-60.810	110.058	
301.00	-61.556	97.575	
302.00	-62.584	72.020	
303.00	-62.686	62.665	
304.00	-62.892	55.750	
305.00	-65.637	29.875	
306.00	-65.146	23.218	
307.00	-65.764	5.003	
308.00	-69.235	7.655	
309.00	-68.241	-29.649	
310.00	-67.261	-35.370	
311.00	-70.859	-24.600	
312.00	-71.591	-45.531	
313.00	-69.823	-28.349	
314.00	-69.168	-58.835	
315.00	-70.850	-78.319	
316.00	-69.339	-40.576	
317.00	-68.688	-80.322	
318.00	-70.761	-87.108	
319.00	-70.680	-84.186	
320.00	-70.931	-71.098	
321.00	-69.943	-111.644	
322.00	-77.590	-118.099	
323.00	-76.038	-139.667	
324.00	-75.971	-91.297	
325.00	-78.640	-119.763	
326.00	-80.091	-33.767	
327.00	-77.066	-96.877	
328.00	-73.513	-99.609	
329.00	-73.020	-80.910	
330.00	-81.874	-151.742	
331.00	-73.989	-86.669	
332.00	-72.243	-80.604	
333.00	-74.786	-100.921	
334.00	-72.878	-88.939	
335.00	-73.591	-101.954	
336.00	-74.591	-125.663	
337.00	-73.933	-134.060	
338.00	-89.523	-38.603	
339.00	-79.842	149.978	
340.00	-74.960	77.142	
341.00	-73.041	42.494	
342.00	-69.133	55.442	
343.00	-70.730	69.988	
344.00	-66.101	79.973	
345.00	-66.817	62.667	
346.00	-67.534	44.281	
347.00	-63.203	26.879	
348.00	-63.230	23.430	
349.00	-63.158	23.709	
350.00	-61.695	32.957	
351.00	-61.885	30.111	
352.00	-61.471	8.261	
353.00	-63.804	22.805	
354.00	-62.436	19.256	
355.00	-65.192	14.946	
356.00	-66.749	26.414	
357.00	-66.674	30.294	
358.00	-68.290	37.426	
359.00	-69.968	29.317	
Frequency	3400.00	MHz	
Channel	test		
Scan Axis name	Azimuth  [deg]		
Scan Axis	Amplitude	Phase	
			
0.00	-68.344	-166.429	
1.00	-68.003	-175.697	
2.00	-72.077	-164.047	
3.00	-71.048	-123.470	
4.00	-71.122	-100.148	
5.00	-72.031	-96.924	
6.00	-69.918	-72.003	
7.00	-71.101	-64.515	
8.00	-71.423	-48.941	
9.00	-71.718	-31.276	
10.00	-71.271	-20.252	
11.00	-70.368	-19.516	
12.00	-70.836	8.453	
13.00	-73.095	-7.163	
14.00	-72.503	22.922	
15.00	-74.670	41.105	
16.00	-76.745	46.768	
17.00	-79.924	66.250	
18.00	-78.962	98.650	
19.00	-77.864	-173.409	
20.00	-78.837	165.466	
21.00	-74.871	-110.973	
22.00	-73.280	-153.962	
23.00	-68.262	-123.674	
24.00	-69.132	-115.119	
25.00	-68.384	-98.704	
26.00	-67.479	-95.949	
27.00	-66.689	-93.694	
28.00	-69.766	-80.091	
29.00	-69.783	-67.936	
30.00	-69.169	-67.006	
31.00	-71.227	-65.166	
32.00	-73.112	-61.748	
33.00	-73.420	-77.935	
34.00	-72.298	-66.348	
35.00	-71.070	-79.520	
36.00	-71.867	-95.888	
37.00	-69.484	-85.439	
38.00	-69.344	-86.842	
39.00	-68.772	-63.006	
40.00	-68.701	-40.967	
41.00	-65.061	-21.486	
42.00	-65.189	-6.965	
43.00	-65.465	10.248	
44.00	-64.479	23.511	
45.00	-64.708	40.307	
46.00	-64.703	59.775	
47.00	-64.746	80.836	
48.00	-64.626	99.319	
49.00	-65.333	132.029	
50.00	-65.429	163.679	
51.00	-65.247	-170.737	
52.00	-64.072	-142.284	
53.00	-63.790	-122.538	
54.00	-62.515	-90.000	
55.00	-63.289	-65.742	
56.00	-62.580	-39.613	
57.00	-62.182	-17.951	
58.00	-61.718	16.145	
59.00	-61.441	36.530	
60.00	-60.543	56.811	
61.00	-60.125	90.915	
62.00	-59.309	112.617	
63.00	-59.176	139.203	
64.00	-58.559	166.221	
65.00	-58.213	-171.546	
66.00	-57.603	-150.129	
67.00	-57.483	-122.294	
68.00	-56.594	-94.201	
69.00	-57.180	-66.640	
70.00	-56.245	-45.337	
71.00	-55.365	-22.454	
72.00	-55.442	5.565	
73.00	-54.946	32.443	
74.00	-54.731	57.882	
75.00	-53.848	81.489	
76.00	-53.368	104.885	
77.00	-53.092	129.786	
78.00	-52.777	154.404	
79.00	-52.550	177.395	
80.00	-52.100	-157.451	
81.00	-52.101	-134.481	
82.00	-51.636	-105.302	
83.00	-51.465	-84.959	
84.00	-50.995	-57.386	
85.00	-50.588	-32.094	
86.00	-50.057	-6.204	
87.00	-49.703	18.337	
88.00	-49.149	44.399	
89.00	-48.522	68.585	
90.00	-47.850	92.135	
91.00	-47.569	114.919	
92.00	-46.927	137.810	
93.00	-46.479	159.997	
94.00	-46.014	-177.474	
95.00	-45.482	-155.179	
96.00	-44.999	-135.914	
97.00	-44.624	-112.888	
98.00	-44.277	-92.535	
99.00	-43.756	-73.425	
100.00	-43.687	-50.277	
101.00	-43.323	-30.567	
102.00	-43.009	-7.867	
103.00	-42.663	11.455	
104.00	-42.318	35.992	
105.00	-42.077	57.864	
106.00	-41.765	78.713	
107.00	-41.447	99.611	
108.00	-41.203	120.586	
109.00	-40.908	141.154	
110.00	-40.591	159.560	
111.00	-40.259	179.592	
112.00	-40.071	-161.294	
113.00	-39.803	-141.929	
114.00	-39.465	-124.897	
115.00	-39.242	-104.638	
116.00	-38.993	-87.303	
117.00	-38.679	-68.697	
118.00	-38.306	-51.415	
119.00	-38.142	-32.736	
120.00	-37.791	-16.225	
121.00	-37.550	1.026	
122.00	-37.153	18.405	
123.00	-37.040	35.207	
124.00	-36.750	52.239	
125.00	-36.382	67.387	
126.00	-36.256	84.052	
127.00	-35.919	97.470	
128.00	-35.675	114.459	
129.00	-35.435	126.494	
130.00	-35.174	142.384	
131.00	-34.957	155.618	
132.00	-34.724	171.257	
133.00	-34.433	-178.486	
134.00	-34.202	-164.456	
135.00	-33.968	-154.431	
136.00	-33.795	-139.312	
137.00	-33.614	-129.254	
138.00	-33.317	-116.885	
139.00	-33.198	-103.853	
140.00	-32.895	-93.578	
141.00	-32.766	-81.833	
142.00	-32.508	-71.975	
143.00	-32.421	-61.406	
144.00	-32.162	-51.929	
145.00	-31.862	-42.583	
146.00	-31.785	-34.528	
147.00	-31.576	-25.667	
148.00	-31.365	-18.903	
149.00	-31.299	-9.194	
150.00	-31.097	-3.527	
151.00	-30.869	4.481	
152.00	-30.858	11.106	
153.00	-30.716	16.530	
154.00	-30.613	21.918	
155.00	-30.533	27.175	
156.00	-30.406	32.485	
157.00	-30.291	36.941	
158.00	-30.132	41.073	
159.00	-30.147	43.744	
160.00	-29.968	45.982	
161.00	-29.809	47.798	
162.00	-29.716	53.404	
163.00	-29.600	52.026	
164.00	-29.504	54.320	
165.00	-29.309	55.028	
166.00	-29.185	55.084	
167.00	-29.036	55.664	
168.00	-28.994	56.085	
169.00	-28.830	56.191	
170.00	-28.729	53.817	
171.00	-28.544	53.843	
172.00	-28.400	51.256	
173.00	-28.364	50.112	
174.00	-28.205	47.782	
175.00	-28.175	46.133	
176.00	-28.112	43.094	
177.00	-27.983	39.488	
178.00	-27.927	36.177	
179.00	-27.862	32.072	
180.00	-27.855	28.310	
181.00	-27.691	23.865	
182.00	-27.777	19.125	
183.00	-27.793	13.087	
184.00	-27.735	6.366	
185.00	-27.641	-0.474	
186.00	-27.724	-7.006	
187.00	-27.834	-12.804	
188.00	-27.697	-21.055	
189.00	-27.824	-27.508	
190.00	-27.933	-35.863	
191.00	-27.933	-43.033	
192.00	-27.985	-52.188	
193.00	-28.053	-61.153	
194.00	-28.069	-69.496	
195.00	-28.245	-78.778	
196.00	-28.321	-88.182	
197.00	-28.384	-98.174	
198.00	-28.592	-108.202	
199.00	-28.657	-120.681	
200.00	-28.836	-130.974	
201.00	-29.008	-142.943	
202.00	-29.203	-154.973	
203.00	-29.416	-167.311	
204.00	-29.741	179.977	
205.00	-29.871	166.287	
206.00	-30.223	152.801	
207.00	-30.396	137.159	
208.00	-30.693	123.282	
209.00	-30.951	108.886	
210.00	-31.168	92.828	
211.00	-31.502	77.923	
212.00	-31.770	62.822	
213.00	-32.009	46.181	
214.00	-32.314	30.177	
215.00	-32.531	13.216	
216.00	-32.816	-3.223	
217.00	-33.063	-22.091	
218.00	-33.266	-38.383	
219.00	-33.449	-57.857	
220.00	-33.699	-75.160	
221.00	-33.881	-93.655	
222.00	-34.037	-112.588	
223.00	-34.168	-131.808	
224.00	-34.293	-150.672	
225.00	-34.375	-170.393	
226.00	-34.667	170.401	
227.00	-34.630	149.546	
228.00	-34.730	129.668	
229.00	-34.804	107.688	
230.00	-35.032	88.927	
231.00	-35.191	70.013	
232.00	-35.265	48.631	
233.00	-35.356	27.932	
234.00	-35.589	9.064	
235.00	-35.742	-12.413	
236.00	-35.921	-33.398	
237.00	-36.239	-54.082	
238.00	-36.429	-74.042	
239.00	-36.697	-94.371	
240.00	-36.822	-118.204	
241.00	-37.222	-135.881	
242.00	-37.369	-158.811	
243.00	-37.743	-178.281	
244.00	-38.134	159.007	
245.00	-38.472	137.418	
246.00	-38.691	114.822	
247.00	-39.044	91.099	
248.00	-39.353	71.457	
249.00	-39.764	46.553	
250.00	-40.054	26.368	
251.00	-40.325	5.161	
252.00	-40.683	-18.313	
253.00	-41.108	-42.216	
254.00	-41.305	-64.954	
255.00	-41.593	-86.950	
256.00	-41.925	-110.070	
257.00	-42.453	-132.922	
258.00	-42.587	-155.364	
259.00	-43.068	-178.646	
260.00	-43.389	158.798	
261.00	-43.891	136.143	
262.00	-44.267	113.274	
263.00	-44.867	91.400	
264.00	-45.278	68.040	
265.00	-45.844	44.718	
266.00	-46.381	21.855	
267.00	-47.163	-1.150	
268.00	-47.685	-23.598	
269.00	-48.327	-48.129	
270.00	-49.115	-71.232	
271.00	-49.668	-94.036	
272.00	-50.523	-120.172	
273.00	-51.302	-144.696	
274.00	-52.171	-171.584	
275.00	-53.075	162.224	
276.00	-53.464	136.974	
277.00	-54.130	110.464	
278.00	-54.798	84.430	
279.00	-55.524	60.977	
280.00	-55.944	38.853	
281.00	-56.694	7.269	
282.00	-57.396	-13.912	
283.00	-58.134	-37.958	
284.00	-59.094	-66.469	
285.00	-59.797	-90.140	
286.00	-60.514	-117.977	
287.00	-61.657	-148.720	
288.00	-63.108	-171.554	
289.00	-62.145	154.255	
290.00	-63.219	131.975	
291.00	-63.717	101.325	
292.00	-63.463	65.038	
293.00	-63.103	53.015	
294.00	-64.264	25.627	
295.00	-65.143	-4.462	
296.00	-65.200	-15.972	
297.00	-65.292	-42.136	
298.00	-65.745	-69.895	
299.00	-67.893	-84.964	
300.00	-67.613	-118.798	
301.00	-68.225	-139.006	
302.00	-69.534	-166.350	
303.00	-70.865	178.816	
304.00	-74.681	173.225	
305.00	-73.795	144.339	
306.00	-79.430	126.282	
307.00	-82.248	143.159	
308.00	-82.046	130.060	
309.00	-80.225	-177.471	
310.00	-74.663	-153.585	
311.00	-74.695	174.017	
312.00	-70.416	161.721	
313.00	-70.272	138.800	
314.00	-68.187	130.516	
315.00	-70.839	121.592	
316.00	-65.989	106.247	
317.00	-67.013	94.315	
318.00	-68.225	77.027	
319.00	-67.969	72.264	
320.00	-69.004	49.772	
321.00	-73.074	49.739	
322.00	-74.403	8.700	
323.00	-73.440	19.442	
324.00	-73.325	-50.965	
325.00	-82.240	-88.309	
326.00	-72.169	-121.416	
327.00	-72.331	-140.423	
328.00	-72.904	-142.263	
329.00	-68.414	-161.557	
330.00	-66.841	168.708	
331.00	-66.780	158.748	
332.00	-67.035	141.666	
333.00	-65.487	128.214	
334.00	-65.521	121.422	
335.00	-64.181	103.590	
336.00	-65.203	96.491	
337.00	-63.916	89.408	
338.00	-66.388	78.944	
339.00	-67.245	78.074	
340.00	-67.685	77.183	
341.00	-69.007	71.584	
342.00	-69.774	73.504	
343.00	-76.685	101.704	
344.00	-75.382	114.967	
345.00	-71.987	157.643	
346.00	-68.720	162.880	
347.00	-68.127	165.900	
348.00	-63.973	168.927	
349.00	-62.428	171.183	
350.00	-63.002	170.257	
351.00	-61.646	172.087	
352.00	-61.266	173.212	
353.00	-60.686	170.927	
354.00	-61.591	167.510	
355.00	-61.660	170.417	
356.00	-62.263	170.807	
357.00	-64.306	175.161	
358.00	-64.272	177.609	
359.00	-67.780	-174.824	
Frequency	3450.00	MHz	
Channel	test		
Scan Axis name	Azimuth  [deg]		
Scan Axis	Amplitude	Phase	
			
0.00	-66.810	-68.713	
1.00	-69.996	-74.518	
2.00	-68.460	-49.125	
3.00	-69.420	-40.513	
4.00	-74.017	-29.192	
5.00	-73.780	-4.272	
6.00	-71.462	26.096	
7.00	-72.703	25.072	
8.00	-74.246	29.201	
9.00	-71.406	71.461	
10.00	-69.367	66.382	
11.00	-74.872	63.241	
12.00	-71.465	62.356	
13.00	-73.017	75.856	
14.00	-71.872	79.693	
15.00	-71.337	73.843	
16.00	-74.459	41.104	
17.00	-79.033	97.133	
18.00	-75.902	59.664	
19.00	-78.142	51.271	
20.00	-79.538	26.378	
21.00	-80.796	38.980	
22.00	-75.226	40.645	
23.00	-75.295	52.225	
24.00	-76.823	27.982	
25.00	-77.609	64.296	
26.00	-74.393	3.091	
27.00	-74.554	53.712	
28.00	-79.028	64.633	
29.00	-76.117	35.611	
30.00	-74.782	0.468	
31.00	-73.936	4.997	
32.00	-68.445	25.340	
33.00	-74.743	2.471	
34.00	-68.002	25.294	
35.00	-69.726	12.791	
36.00	-68.947	40.560	
37.00	-66.882	38.005	
38.00	-66.012	56.436	
39.00	-65.163	82.438	
40.00	-66.030	80.857	
41.00	-65.452	97.942	
42.00	-64.846	119.070	
43.00	-63.013	132.663	
44.00	-63.496	168.729	
45.00	-63.944	179.607	
46.00	-64.357	-152.933	
47.00	-65.148	-120.798	
48.00	-64.053	-115.020	
49.00	-64.774	-82.810	
50.00	-63.399	-63.092	
51.00	-63.993	-44.941	
52.00	-63.503	-7.837	
53.00	-63.289	12.998	
54.00	-62.106	40.252	
55.00	-61.580	62.572	
56.00	-61.114	84.896	
57.00	-61.240	109.218	
58.00	-60.067	136.712	
59.00	-60.789	165.036	
60.00	-60.424	-174.509	
61.00	-60.449	-151.278	
62.00	-60.400	-122.930	
63.00	-61.208	-92.634	
64.00	-60.276	-64.185	
65.00	-60.196	-37.470	
66.00	-59.564	-17.467	
67.00	-59.883	12.799	
68.00	-59.224	37.968	
69.00	-58.395	69.237	
70.00	-58.711	90.135	
71.00	-57.198	118.777	
72.00	-57.345	148.034	
73.00	-56.256	172.298	
74.00	-55.950	-163.018	
75.00	-56.082	-136.929	
76.00	-55.615	-111.048	
77.00	-54.815	-89.368	
78.00	-54.752	-61.886	
79.00	-54.883	-38.635	
80.00	-54.361	-11.941	
81.00	-53.987	16.062	
82.00	-53.597	41.863	
83.00	-52.939	67.574	
84.00	-52.315	93.891	
85.00	-51.805	118.300	
86.00	-51.099	145.204	
87.00	-50.224	170.452	
88.00	-50.067	-165.529	
89.00	-49.236	-143.890	
90.00	-48.825	-118.817	
91.00	-48.432	-96.792	
92.00	-47.978	-75.879	
93.00	-47.305	-51.775	
94.00	-47.316	-31.954	
95.00	-46.679	-6.872	
96.00	-46.305	12.322	
97.00	-45.925	35.329	
98.00	-45.697	57.212	
99.00	-45.528	77.717	
100.00	-44.846	100.467	
101.00	-44.571	121.860	
102.00	-44.328	143.319	
103.00	-44.248	162.458	
104.00	-43.766	-173.665	
105.00	-43.601	-150.192	
106.00	-43.314	-129.568	
107.00	-43.115	-108.661	
108.00	-42.972	-87.067	
109.00	-42.740	-66.582	
110.00	-42.513	-46.677	
111.00	-41.965	-25.683	
112.00	-41.830	-7.302	
113.00	-41.593	12.939	
114.00	-41.318	30.152	
115.00	-41.055	49.782	
116.00	-40.704	67.628	
117.00	-40.552	86.907	
118.00	-40.275	104.720	
119.00	-40.009	123.293	
120.00	-39.718	140.873	
121.00	-39.494	158.884	
122.00	-39.196	176.134	
123.00	-38.927	-167.060	
124.00	-38.536	-149.737	
125.00	-38.369	-133.773	
126.00	-38.137	-117.645	
127.00	-37.825	-103.967	
128.00	-37.585	-86.850	
129.00	-37.380	-74.735	
130.00	-37.237	-57.436	
131.00	-36.971	-43.950	
132.00	-36.702	-28.403	
133.00	-36.431	-17.562	
134.00	-36.192	-3.001	
135.00	-35.976	8.124	
136.00	-35.740	23.208	
137.00	-35.438	33.744	
138.00	-35.150	46.939	
139.00	-34.886	59.658	
140.00	-34.638	70.244	
141.00	-34.460	81.643	
142.00	-34.203	92.521	
143.00	-34.029	102.086	
144.00	-33.785	112.107	
145.00	-33.604	122.189	
146.00	-33.425	129.729	
147.00	-33.277	139.287	
148.00	-33.042	146.532	
149.00	-32.871	155.777	
150.00	-32.796	162.384	
151.00	-32.685	171.297	
152.00	-32.526	177.741	
153.00	-32.393	-176.408	
154.00	-32.233	-171.602	
155.00	-32.203	-165.680	
156.00	-32.109	-160.464	
157.00	-32.013	-156.090	
158.00	-31.827	-151.914	
159.00	-31.774	-149.832	
160.00	-31.729	-147.362	
161.00	-31.531	-145.686	
162.00	-31.460	-140.156	
163.00	-31.294	-141.724	
164.00	-31.222	-139.414	
165.00	-31.142	-138.123	
166.00	-30.957	-138.485	
167.00	-30.733	-138.315	
168.00	-30.679	-137.956	
169.00	-30.571	-137.775	
170.00	-30.362	-140.265	
171.00	-30.326	-139.379	
172.00	-30.107	-142.500	
173.00	-29.981	-143.837	
174.00	-29.834	-146.021	
175.00	-29.746	-147.528	
176.00	-29.651	-150.983	
177.00	-29.543	-154.398	
178.00	-29.477	-157.459	
179.00	-29.447	-161.741	
180.00	-29.328	-165.414	
181.00	-29.268	-169.564	
182.00	-29.338	-174.513	
183.00	-29.231	178.830	
184.00	-29.282	172.347	
185.00	-29.298	165.920	
186.00	-29.337	158.729	
187.00	-29.300	152.273	
188.00	-29.340	144.608	
189.00	-29.421	137.978	
190.00	-29.417	128.465	
191.00	-29.402	121.140	
192.00	-29.530	112.421	
193.00	-29.603	103.021	
194.00	-29.723	94.913	
195.00	-29.759	85.147	
196.00	-29.848	75.448	
197.00	-29.822	65.113	
198.00	-29.961	54.642	
199.00	-30.109	42.686	
200.00	-30.207	31.911	
201.00	-30.453	20.261	
202.00	-30.535	7.864	
203.00	-30.721	-4.658	
204.00	-31.005	-17.716	
205.00	-31.121	-31.243	
206.00	-31.417	-45.219	
207.00	-31.749	-60.176	
208.00	-32.003	-74.164	
209.00	-32.346	-88.363	
210.00	-32.568	-103.959	
211.00	-32.811	-119.716	
212.00	-33.083	-134.969	
213.00	-33.497	-150.757	
214.00	-33.682	-167.604	
215.00	-34.048	176.045	
216.00	-34.189	158.395	
217.00	-34.531	139.781	
218.00	-34.812	123.723	
219.00	-34.989	104.082	
220.00	-35.228	86.285	
221.00	-35.332	66.728	
222.00	-35.551	48.347	
223.00	-35.753	29.655	
224.00	-35.924	9.916	
225.00	-36.167	-9.035	
226.00	-36.268	-29.464	
227.00	-36.484	-50.035	
228.00	-36.597	-70.256	
229.00	-36.763	-93.149	
230.00	-36.916	-112.527	
231.00	-37.005	-131.961	
232.00	-37.214	-152.891	
233.00	-37.355	-173.997	
234.00	-37.621	166.773	
235.00	-37.700	143.733	
236.00	-37.946	123.098	
237.00	-38.158	101.898	
238.00	-38.388	81.300	
239.00	-38.684	60.921	
240.00	-39.030	37.014	
241.00	-39.243	18.873	
242.00	-39.592	-4.313	
243.00	-39.922	-24.359	
244.00	-40.269	-48.108	
245.00	-40.787	-70.567	
246.00	-41.003	-93.043	
247.00	-41.390	-117.123	
248.00	-41.648	-136.386	
249.00	-42.074	-163.025	
250.00	-42.323	176.045	
251.00	-42.782	155.277	
252.00	-42.982	130.972	
253.00	-43.643	107.044	
254.00	-43.807	84.613	
255.00	-44.157	61.304	
256.00	-44.518	38.147	
257.00	-44.884	13.539	
258.00	-45.296	-8.524	
259.00	-45.814	-32.262	
260.00	-46.086	-56.646	
261.00	-46.806	-79.963	
262.00	-46.964	-102.591	
263.00	-47.461	-125.824	
264.00	-47.905	-148.487	
265.00	-48.380	-171.943	
266.00	-48.562	165.087	
267.00	-49.478	140.998	
268.00	-49.994	120.185	
269.00	-50.660	96.976	
270.00	-51.437	74.939	
271.00	-52.719	51.128	
272.00	-53.516	24.245	
273.00	-54.691	2.317	
274.00	-55.546	-23.759	
275.00	-55.989	-49.170	
276.00	-57.532	-69.300	
277.00	-58.218	-110.527	
278.00	-58.948	-132.267	
279.00	-60.073	-159.295	
280.00	-61.383	177.051	
281.00	-61.377	151.418	
282.00	-62.544	125.660	
283.00	-62.205	92.466	
284.00	-65.098	80.277	
285.00	-65.143	56.426	
286.00	-66.696	16.691	
287.00	-69.361	-26.973	
288.00	-71.264	-77.907	
289.00	-73.929	-70.973	
290.00	-72.343	-142.270	
291.00	-69.836	-159.488	
292.00	-72.383	-172.039	
293.00	-70.158	148.219	
294.00	-69.718	108.447	
295.00	-69.115	95.862	
296.00	-69.319	78.470	
297.00	-66.171	49.098	
298.00	-68.337	26.615	
299.00	-66.517	1.005	
300.00	-70.467	15.726	
301.00	-71.319	17.403	
302.00	-76.092	-37.555	
303.00	-76.503	-36.772	
304.00	-81.427	-43.321	
305.00	-81.968	135.235	
306.00	-77.969	35.379	
307.00	-77.485	18.831	
308.00	-74.549	-5.989	
309.00	-77.572	-15.685	
310.00	-73.331	-41.192	
311.00	-72.050	-53.653	
312.00	-69.212	-107.941	
313.00	-68.114	-122.757	
314.00	-65.600	-138.232	
315.00	-67.614	-146.354	
316.00	-68.660	-168.923	
317.00	-66.822	-168.421	
318.00	-66.436	156.599	
319.00	-68.036	143.592	
320.00	-69.114	145.475	
321.00	-69.988	120.371	
322.00	-69.873	104.053	
323.00	-68.282	81.430	
324.00	-68.743	51.389	
325.00	-69.168	15.796	
326.00	-70.905	-19.802	
327.00	-71.616	-38.342	
328.00	-68.530	-41.282	
329.00	-67.667	-73.794	
330.00	-68.115	-93.240	
331.00	-65.324	-108.413	
332.00	-64.601	-126.908	
333.00	-64.422	-135.301	
334.00	-63.923	-132.974	
335.00	-63.292	-162.613	
336.00	-61.781	-166.226	
337.00	-64.294	-174.904	
338.00	-64.041	171.625	
339.00	-63.544	154.801	
340.00	-65.545	156.707	
341.00	-65.418	139.698	
342.00	-71.261	131.046	
343.00	-69.111	114.355	
344.00	-74.019	95.381	
345.00	-78.731	29.937	
346.00	-75.395	-19.204	
347.00	-67.866	-55.732	
348.00	-66.203	-65.469	
349.00	-64.766	-73.035	
350.00	-63.383	-73.903	
351.00	-63.334	-66.174	
352.00	-60.970	-72.716	
353.00	-63.137	-69.030	
354.00	-61.528	-75.577	
355.00	-62.536	-72.642	
356.00	-61.646	-72.202	
357.00	-62.439	-77.002	
358.00	-63.913	-75.138	
359.00	-64.145	-66.464	
Frequency	3500.00	MHz	
Channel	test		
Scan Axis name	Azimuth  [deg]		
Scan Axis	Amplitude	Phase	
			
0.00	-68.044	58.466	
1.00	-71.812	54.573	
2.00	-74.097	58.850	
3.00	-77.229	26.980	
4.00	-73.465	36.346	
5.00	-73.998	23.111	
6.00	-76.145	10.299	
7.00	-74.564	1.779	
8.00	-73.398	-1.242	
9.00	-71.974	15.651	
10.00	-72.440	13.939	
11.00	-70.642	21.829	
12.00	-72.594	37.908	
13.00	-71.929	48.143	
14.00	-71.630	55.181	
15.00	-70.203	69.106	
16.00	-71.438	97.415	
17.00	-70.822	107.782	
18.00	-70.056	115.344	
19.00	-69.323	141.469	
20.00	-72.026	150.899	
21.00	-69.299	163.731	
22.00	-70.087	-174.650	
23.00	-67.115	-157.400	
24.00	-67.706	-146.533	
25.00	-69.519	-123.025	
26.00	-67.852	-110.385	
27.00	-66.984	-97.685	
28.00	-68.418	-78.062	
29.00	-67.968	-60.853	
30.00	-67.728	-38.869	
31.00	-68.387	-10.501	
32.00	-69.393	1.604	
33.00	-69.282	6.452	
34.00	-66.838	36.220	
35.00	-68.882	57.645	
36.00	-69.914	89.147	
37.00	-68.537	103.068	
38.00	-70.671	99.993	
39.00	-68.033	138.177	
40.00	-70.661	147.546	
41.00	-70.609	-165.712	
42.00	-72.340	-124.367	
43.00	-71.350	-110.908	
44.00	-72.283	-72.483	
45.00	-72.716	-48.711	
46.00	-70.709	-34.282	
47.00	-68.080	-4.137	
48.00	-68.852	24.098	
49.00	-68.285	42.995	
50.00	-68.866	74.335	
51.00	-69.881	88.282	
52.00	-71.452	128.485	
53.00	-71.112	145.568	
54.00	-70.387	164.909	
55.00	-68.921	-154.578	
56.00	-70.627	-129.754	
57.00	-69.105	-96.431	
58.00	-68.447	-59.007	
59.00	-69.925	-30.853	
60.00	-70.161	1.130	
61.00	-68.176	26.411	
62.00	-66.498	69.220	
63.00	-66.945	85.425	
64.00	-64.515	110.674	
65.00	-63.135	143.513	
66.00	-63.711	165.053	
67.00	-62.676	-170.893	
68.00	-62.716	-139.057	
69.00	-61.269	-111.615	
70.00	-61.153	-84.171	
71.00	-60.256	-61.479	
72.00	-60.784	-34.286	
73.00	-59.898	-9.039	
74.00	-58.526	12.513	
75.00	-57.817	37.464	
76.00	-57.877	66.868	
77.00	-57.653	87.732	
78.00	-56.966	113.605	
79.00	-56.984	139.260	
80.00	-56.799	168.958	
81.00	-56.718	-167.985	
82.00	-55.893	-141.746	
83.00	-55.695	-114.134	
84.00	-54.960	-89.534	
85.00	-54.613	-65.415	
86.00	-54.069	-42.028	
87.00	-53.575	-16.752	
88.00	-53.465	8.535	
89.00	-52.824	32.036	
90.00	-52.639	55.887	
91.00	-52.060	81.165	
92.00	-51.615	103.022	
93.00	-51.301	126.507	
94.00	-51.011	148.487	
95.00	-50.558	171.851	
96.00	-50.349	-164.844	
97.00	-49.998	-139.868	
98.00	-49.486	-119.576	
99.00	-49.107	-98.308	
100.00	-48.848	-75.039	
101.00	-48.639	-54.517	
102.00	-48.232	-33.332	
103.00	-47.953	-11.218	
104.00	-47.809	14.151	
105.00	-47.653	37.521	
106.00	-47.507	59.632	
107.00	-47.004	80.226	
108.00	-46.716	102.001	
109.00	-46.533	123.778	
110.00	-46.394	144.702	
111.00	-46.133	166.232	
112.00	-45.873	-173.845	
113.00	-45.445	-152.334	
114.00	-45.077	-134.925	
115.00	-44.710	-113.408	
116.00	-44.253	-95.102	
117.00	-43.933	-75.240	
118.00	-43.527	-58.284	
119.00	-43.104	-39.207	
120.00	-42.839	-20.619	
121.00	-42.582	-3.485	
122.00	-42.159	14.199	
123.00	-41.942	31.591	
124.00	-41.606	48.971	
125.00	-41.314	65.486	
126.00	-40.932	82.643	
127.00	-40.642	96.551	
128.00	-40.359	113.664	
129.00	-40.107	126.743	
130.00	-39.665	142.642	
131.00	-39.412	156.627	
132.00	-39.153	172.534	
133.00	-38.866	-177.150	
134.00	-38.651	-161.885	
135.00	-38.238	-152.154	
136.00	-37.968	-137.167	
137.00	-37.663	-126.100	
138.00	-37.402	-113.711	
139.00	-37.192	-100.355	
140.00	-36.960	-89.384	
141.00	-36.767	-78.024	
142.00	-36.415	-69.297	
143.00	-36.232	-57.975	
144.00	-36.003	-48.822	
145.00	-35.847	-38.401	
146.00	-35.577	-31.049	
147.00	-35.484	-20.992	
148.00	-35.316	-13.600	
149.00	-35.036	-4.466	
150.00	-34.987	2.855	
151.00	-34.772	10.709	
152.00	-34.683	17.582	
153.00	-34.534	23.697	
154.00	-34.407	28.606	
155.00	-34.368	34.236	
156.00	-34.304	39.966	
157.00	-34.225	44.614	
158.00	-34.261	49.517	
159.00	-34.059	50.524	
160.00	-34.059	53.486	
161.00	-33.980	55.383	
162.00	-33.855	60.561	
163.00	-33.778	58.549	
164.00	-33.711	60.583	
165.00	-33.649	61.580	
166.00	-33.564	61.474	
167.00	-33.380	61.797	
168.00	-33.282	61.360	
169.00	-33.104	61.085	
170.00	-33.049	59.181	
171.00	-32.814	58.639	
172.00	-32.624	55.524	
173.00	-32.494	54.038	
174.00	-32.381	51.946	
175.00	-32.175	49.755	
176.00	-32.084	46.744	
177.00	-32.032	43.447	
178.00	-31.823	39.919	
179.00	-31.786	36.021	
180.00	-31.721	31.870	
181.00	-31.659	28.536	
182.00	-31.632	23.374	
183.00	-31.684	17.017	
184.00	-31.700	10.696	
185.00	-31.749	4.540	
186.00	-31.791	-2.549	
187.00	-31.805	-9.004	
188.00	-31.777	-16.901	
189.00	-31.910	-23.754	
190.00	-31.917	-33.253	
191.00	-31.943	-40.538	
192.00	-32.110	-49.378	
193.00	-32.137	-59.127	
194.00	-32.175	-67.856	
195.00	-32.306	-77.746	
196.00	-32.391	-87.430	
197.00	-32.472	-97.838	
198.00	-32.538	-108.701	
199.00	-32.649	-121.191	
200.00	-32.832	-131.826	
201.00	-32.936	-143.886	
202.00	-33.086	-156.555	
203.00	-33.326	-168.471	
204.00	-33.426	177.684	
205.00	-33.665	164.375	
206.00	-33.886	150.098	
207.00	-34.144	135.197	
208.00	-34.372	120.512	
209.00	-34.656	106.440	
210.00	-34.902	90.659	
211.00	-35.169	75.014	
212.00	-35.535	60.331	
213.00	-35.877	44.138	
214.00	-36.225	27.890	
215.00	-36.601	11.128	
216.00	-36.825	-5.780	
217.00	-37.140	-25.292	
218.00	-37.342	-41.763	
219.00	-37.689	-61.463	
220.00	-37.893	-79.929	
221.00	-38.283	-98.819	
222.00	-38.498	-118.322	
223.00	-38.740	-137.541	
224.00	-38.975	-157.275	
225.00	-39.104	-177.841	
226.00	-39.255	161.152	
227.00	-39.480	140.703	
228.00	-39.568	119.318	
229.00	-39.648	96.444	
230.00	-39.849	75.992	
231.00	-39.798	56.425	
232.00	-40.020	34.624	
233.00	-40.064	12.873	
234.00	-40.214	-6.049	
235.00	-40.468	-29.055	
236.00	-40.602	-49.878	
237.00	-40.786	-71.827	
238.00	-41.078	-91.176	
239.00	-41.489	-110.681	
240.00	-41.647	-135.808	
241.00	-42.055	-154.259	
242.00	-42.358	-176.611	
243.00	-42.589	162.785	
244.00	-42.925	139.460	
245.00	-43.322	117.551	
246.00	-43.765	94.945	
247.00	-44.115	70.912	
248.00	-44.466	52.180	
249.00	-44.992	26.065	
250.00	-45.417	5.536	
251.00	-45.925	-15.403	
252.00	-46.410	-40.001	
253.00	-46.930	-63.933	
254.00	-47.331	-86.621	
255.00	-47.971	-110.791	
256.00	-48.310	-134.643	
257.00	-48.751	-158.214	
258.00	-49.332	178.996	
259.00	-50.294	153.681	
260.00	-50.474	129.692	
261.00	-51.094	105.314	
262.00	-51.629	80.063	
263.00	-51.939	56.219	
264.00	-52.886	33.306	
265.00	-53.314	8.915	
266.00	-54.001	-19.375	
267.00	-54.489	-42.428	
268.00	-55.119	-65.265	
269.00	-55.595	-92.246	
270.00	-56.592	-116.232	
271.00	-56.694	-142.075	
272.00	-57.581	-168.679	
273.00	-58.443	163.210	
274.00	-58.639	140.436	
275.00	-58.962	111.339	
276.00	-59.608	90.202	
277.00	-60.065	58.264	
278.00	-60.674	36.760	
279.00	-61.416	10.011	
280.00	-63.428	-8.368	
281.00	-63.485	-37.611	
282.00	-66.045	-67.425	
283.00	-66.628	-99.076	
284.00	-66.153	-126.455	
285.00	-67.564	-148.189	
286.00	-69.999	-170.144	
287.00	-68.248	145.701	
288.00	-66.841	104.256	
289.00	-67.800	95.672	
290.00	-72.261	89.779	
291.00	-69.672	59.506	
292.00	-72.810	22.927	
293.00	-73.002	-17.430	
294.00	-75.033	-39.440	
295.00	-77.035	-80.129	
296.00	-76.402	-106.558	
297.00	-75.419	-169.007	
298.00	-71.738	-145.397	
299.00	-77.439	-169.631	
300.00	-78.246	164.095	
301.00	-76.220	141.194	
302.00	-74.955	150.550	
303.00	-88.948	160.236	
304.00	-83.743	159.047	
305.00	-78.417	-165.508	
306.00	-80.007	174.716	
307.00	-73.471	171.559	
308.00	-72.344	159.492	
309.00	-73.359	141.390	
310.00	-69.962	133.013	
311.00	-69.263	121.874	
312.00	-70.759	97.669	
313.00	-69.220	84.830	
314.00	-72.131	74.699	
315.00	-68.912	60.382	
316.00	-69.581	40.029	
317.00	-71.476	16.730	
318.00	-70.824	-6.147	
319.00	-73.249	-11.397	
320.00	-73.252	-24.198	
321.00	-77.923	-24.883	
322.00	-89.731	-132.532	
323.00	-77.821	-95.893	
324.00	-79.204	-165.649	
325.00	-77.151	144.293	
326.00	-75.167	120.618	
327.00	-72.185	92.702	
328.00	-70.609	72.949	
329.00	-70.395	65.251	
330.00	-66.902	51.022	
331.00	-67.386	31.709	
332.00	-66.604	17.599	
333.00	-65.683	9.327	
334.00	-65.206	3.098	
335.00	-65.302	-16.137	
336.00	-65.978	-21.595	
337.00	-64.627	-36.363	
338.00	-65.616	-42.401	
339.00	-66.793	-56.691	
340.00	-66.877	-73.358	
341.00	-69.642	-77.236	
342.00	-69.663	-96.739	
343.00	-71.053	-135.067	
344.00	-72.619	-159.131	
345.00	-74.579	175.536	
346.00	-72.661	170.028	
347.00	-69.072	141.335	
348.00	-67.586	129.384	
349.00	-66.264	115.601	
350.00	-67.388	102.556	
351.00	-66.079	97.978	
352.00	-64.312	89.060	
353.00	-63.772	88.460	
354.00	-63.276	80.818	
355.00	-66.057	81.949	
356.00	-63.984	77.654	
357.00	-65.795	76.385	
358.00	-68.481	70.977	
359.00	-67.550	72.007	
Frequency	3550.00	MHz	
Channel	test		
Scan Axis name	Azimuth  [deg]		
Scan Axis	Amplitude	Phase	
			
0.00	-68.704	-134.558	
1.00	-71.833	-128.438	
2.00	-73.042	-140.782	
3.00	-78.857	-97.307	
4.00	-76.280	-61.837	
5.00	-80.759	4.739	
6.00	-73.842	19.356	
7.00	-71.836	22.887	
8.00	-71.112	33.197	
9.00	-69.721	41.374	
10.00	-70.274	57.969	
11.00	-70.783	54.048	
12.00	-68.881	70.320	
13.00	-68.604	71.037	
14.00	-70.499	92.137	
15.00	-71.501	96.674	
16.00	-71.655	109.510	
17.00	-73.671	111.501	
18.00	-76.032	92.242	
19.00	-83.081	162.635	
20.00	-87.194	-141.726	
21.00	-76.977	-26.901	
22.00	-74.721	-61.928	
23.00	-73.194	-28.828	
24.00	-69.657	-20.249	
25.00	-67.833	1.498	
26.00	-66.503	-6.004	
27.00	-64.940	17.691	
28.00	-65.579	20.202	
29.00	-66.009	33.213	
30.00	-65.979	48.515	
31.00	-65.590	59.817	
32.00	-67.346	58.189	
33.00	-66.618	77.320	
34.00	-67.710	79.727	
35.00	-68.516	78.420	
36.00	-68.937	88.060	
37.00	-68.973	92.232	
38.00	-67.713	102.961	
39.00	-68.238	95.665	
40.00	-66.919	106.505	
41.00	-65.455	109.414	
42.00	-65.962	123.283	
43.00	-66.117	133.864	
44.00	-64.830	147.564	
45.00	-64.650	164.540	
46.00	-66.188	177.050	
47.00	-65.327	-145.026	
48.00	-65.854	-123.913	
49.00	-65.571	-111.670	
50.00	-65.882	-85.508	
51.00	-64.829	-57.469	
52.00	-64.237	-32.501	
53.00	-63.698	-9.741	
54.00	-62.356	14.747	
55.00	-62.992	38.765	
56.00	-61.477	64.050	
57.00	-61.642	88.444	
58.00	-61.551	110.908	
59.00	-60.815	135.708	
60.00	-61.367	153.706	
61.00	-60.336	-178.573	
62.00	-60.741	-149.388	
63.00	-59.983	-119.450	
64.00	-59.439	-91.425	
65.00	-59.478	-66.209	
66.00	-58.479	-38.206	
67.00	-57.980	-12.652	
68.00	-57.336	9.009	
69.00	-56.657	36.822	
70.00	-56.243	61.544	
71.00	-55.746	88.468	
72.00	-55.430	109.632	
73.00	-55.486	136.406	
74.00	-55.212	161.417	
75.00	-54.886	-173.263	
76.00	-54.659	-147.744	
77.00	-54.491	-121.681	
78.00	-54.499	-97.103	
79.00	-54.173	-70.018	
80.00	-53.950	-41.515	
81.00	-53.466	-16.410	
82.00	-53.578	11.566	
83.00	-53.020	35.237	
84.00	-52.813	61.705	
85.00	-52.303	87.727	
86.00	-52.034	114.029	
87.00	-51.724	139.734	
88.00	-51.124	165.085	
89.00	-50.425	-168.933	
90.00	-50.154	-142.885	
91.00	-49.496	-118.572	
92.00	-49.013	-93.360	
93.00	-48.455	-73.184	
94.00	-48.060	-49.103	
95.00	-47.684	-24.736	
96.00	-47.459	-4.528	
97.00	-46.935	20.395	
98.00	-46.672	40.938	
99.00	-46.241	62.753	
100.00	-46.097	85.138	
101.00	-45.713	106.974	
102.00	-45.610	130.133	
103.00	-45.262	151.639	
104.00	-45.178	176.479	
105.00	-44.974	-158.428	
106.00	-44.669	-136.301	
107.00	-44.368	-114.203	
108.00	-43.979	-91.840	
109.00	-43.602	-68.919	
110.00	-43.340	-49.536	
111.00	-42.988	-27.167	
112.00	-42.558	-7.160	
113.00	-42.241	13.317	
114.00	-41.748	30.565	
115.00	-41.393	51.372	
116.00	-41.171	70.421	
117.00	-40.731	89.596	
118.00	-40.374	106.717	
119.00	-40.065	125.998	
120.00	-39.828	144.844	
121.00	-39.602	162.791	
122.00	-39.241	-179.184	
123.00	-38.949	-161.689	
124.00	-38.710	-142.691	
125.00	-38.307	-127.481	
126.00	-38.106	-109.450	
127.00	-37.796	-94.809	
128.00	-37.476	-77.918	
129.00	-37.286	-64.680	
130.00	-36.938	-48.046	
131.00	-36.660	-33.953	
132.00	-36.428	-17.462	
133.00	-36.212	-6.508	
134.00	-35.925	8.819	
135.00	-35.666	19.430	
136.00	-35.478	35.107	
137.00	-35.200	45.400	
138.00	-34.961	58.450	
139.00	-34.693	71.542	
140.00	-34.530	83.008	
141.00	-34.370	95.105	
142.00	-34.110	104.881	
143.00	-33.942	115.969	
144.00	-33.811	126.392	
145.00	-33.528	136.209	
146.00	-33.332	143.916	
147.00	-33.084	153.081	
148.00	-32.986	161.145	
149.00	-32.840	170.893	
150.00	-32.718	177.530	
151.00	-32.523	-173.968	
152.00	-32.439	-166.901	
153.00	-32.388	-160.843	
154.00	-32.266	-155.596	
155.00	-32.184	-150.245	
156.00	-32.048	-144.593	
157.00	-31.938	-140.158	
158.00	-31.935	-135.127	
159.00	-31.860	-133.433	
160.00	-31.798	-130.645	
161.00	-31.707	-128.565	
162.00	-31.645	-123.032	
163.00	-31.604	-124.585	
164.00	-31.427	-122.861	
165.00	-31.348	-122.178	
166.00	-31.192	-122.604	
167.00	-31.083	-121.715	
168.00	-30.997	-122.124	
169.00	-30.846	-122.551	
170.00	-30.606	-125.388	
171.00	-30.438	-125.148	
172.00	-30.298	-127.888	
173.00	-30.099	-130.140	
174.00	-30.042	-131.560	
175.00	-29.841	-133.846	
176.00	-29.670	-137.489	
177.00	-29.604	-140.601	
178.00	-29.483	-143.895	
179.00	-29.383	-148.055	
180.00	-29.303	-152.279	
181.00	-29.274	-155.596	
182.00	-29.255	-161.085	
183.00	-29.238	-167.632	
184.00	-29.225	-174.108	
185.00	-29.324	179.485	
186.00	-29.345	172.353	
187.00	-29.400	165.843	
188.00	-29.442	158.150	
189.00	-29.544	150.878	
190.00	-29.645	141.734	
191.00	-29.624	133.695	
192.00	-29.753	124.517	
193.00	-29.938	115.145	
194.00	-29.956	106.175	
195.00	-29.995	95.458	
196.00	-30.121	85.598	
197.00	-30.223	75.254	
198.00	-30.396	64.744	
199.00	-30.413	51.029	
200.00	-30.627	40.579	
201.00	-30.709	27.747	
202.00	-30.841	15.035	
203.00	-31.030	2.378	
204.00	-31.163	-11.527	
205.00	-31.308	-25.545	
206.00	-31.582	-39.406	
207.00	-31.745	-55.266	
208.00	-31.973	-69.499	
209.00	-32.142	-83.879	
210.00	-32.403	-99.728	
211.00	-32.708	-114.655	
212.00	-33.037	-129.723	
213.00	-33.290	-145.651	
214.00	-33.565	-162.226	
215.00	-33.919	-178.885	
216.00	-34.231	164.787	
217.00	-34.511	145.135	
218.00	-34.909	129.444	
219.00	-35.208	109.492	
220.00	-35.437	91.053	
221.00	-35.840	72.480	
222.00	-36.151	53.533	
223.00	-36.412	33.227	
224.00	-36.644	13.503	
225.00	-37.009	-6.481	
226.00	-37.244	-26.899	
227.00	-37.586	-48.566	
228.00	-37.808	-70.058	
229.00	-38.141	-93.438	
230.00	-38.341	-113.988	
231.00	-38.557	-134.490	
232.00	-38.793	-157.257	
233.00	-39.054	-179.537	
234.00	-39.231	160.013	
235.00	-39.419	135.734	
236.00	-39.679	114.693	
237.00	-39.951	91.348	
238.00	-40.129	70.210	
239.00	-40.347	48.309	
240.00	-40.580	24.096	
241.00	-40.829	3.784	
242.00	-41.093	-19.111	
243.00	-41.447	-40.376	
244.00	-41.605	-64.458	
245.00	-41.958	-87.706	
246.00	-42.351	-109.313	
247.00	-42.653	-134.515	
248.00	-42.935	-154.516	
249.00	-43.322	-179.992	
250.00	-43.693	159.128	
251.00	-44.216	138.631	
252.00	-44.633	113.987	
253.00	-45.160	89.609	
254.00	-45.732	66.866	
255.00	-46.197	42.440	
256.00	-46.618	18.776	
257.00	-47.120	-7.116	
258.00	-47.627	-30.252	
259.00	-48.381	-56.185	
260.00	-48.783	-79.713	
261.00	-49.089	-105.886	
262.00	-49.732	-130.457	
263.00	-50.149	-153.554	
264.00	-50.826	-177.125	
265.00	-51.652	159.941	
266.00	-52.171	134.361	
267.00	-53.609	111.716	
268.00	-54.329	83.376	
269.00	-55.379	59.129	
270.00	-56.621	30.681	
271.00	-57.720	1.823	
272.00	-58.883	-26.271	
273.00	-60.058	-58.245	
274.00	-61.197	-92.894	
275.00	-60.885	-125.022	
276.00	-61.546	-157.645	
277.00	-61.484	172.598	
278.00	-60.767	141.549	
279.00	-61.226	111.027	
280.00	-60.672	92.122	
281.00	-61.353	64.158	
282.00	-61.865	38.076	
283.00	-62.348	7.547	
284.00	-63.352	-23.092	
285.00	-63.314	-43.387	
286.00	-63.472	-79.515	
287.00	-63.523	-109.710	
288.00	-63.777	-142.154	
289.00	-63.185	-168.246	
290.00	-63.428	164.039	
291.00	-63.227	135.935	
292.00	-62.438	108.554	
293.00	-62.465	87.623	
294.00	-61.794	65.539	
295.00	-61.795	38.838	
296.00	-62.158	21.233	
297.00	-62.342	-5.352	
298.00	-62.945	-20.939	
299.00	-63.357	-45.467	
300.00	-65.436	-74.847	
301.00	-64.585	-96.754	
302.00	-67.129	-118.403	
303.00	-66.771	-148.743	
304.00	-66.758	-170.544	
305.00	-69.424	154.716	
306.00	-72.195	142.762	
307.00	-71.331	103.373	
308.00	-75.178	95.030	
309.00	-75.546	40.690	
310.00	-75.940	-0.840	
311.00	-75.797	-14.929	
312.00	-74.263	-42.429	
313.00	-76.281	-82.632	
314.00	-72.304	-117.074	
315.00	-68.857	-133.135	
316.00	-70.760	-149.657	
317.00	-69.486	-175.994	
318.00	-67.899	170.708	
319.00	-69.000	149.559	
320.00	-69.660	137.187	
321.00	-70.519	118.927	
322.00	-70.847	127.085	
323.00	-72.829	118.517	
324.00	-77.122	114.894	
325.00	-81.041	119.329	
326.00	-83.932	171.795	
327.00	-73.069	-165.385	
328.00	-71.402	-166.329	
329.00	-68.564	177.037	
330.00	-68.073	173.663	
331.00	-65.377	160.231	
332.00	-65.537	151.109	
333.00	-64.564	140.010	
334.00	-63.295	138.199	
335.00	-63.279	124.544	
336.00	-62.958	115.829	
337.00	-64.236	111.186	
338.00	-63.998	102.659	
339.00	-64.381	91.745	
340.00	-65.815	84.173	
341.00	-67.601	73.391	
342.00	-71.978	45.743	
343.00	-76.044	33.234	
344.00	-79.178	21.219	
345.00	-76.541	-51.247	
346.00	-76.503	-88.573	
347.00	-70.027	-106.552	
348.00	-68.912	-123.572	
349.00	-66.332	-128.315	
350.00	-65.660	-127.484	
351.00	-64.337	-138.868	
352.00	-65.442	-138.595	
353.00	-64.054	-148.250	
354.00	-63.763	-141.273	
355.00	-63.677	-145.329	
356.00	-63.731	-147.848	
357.00	-65.325	-144.813	
358.00	-66.089	-148.084	
359.00	-65.408	-134.156	
Frequency	3575.00	MHz	
Channel	test		
Scan Axis name	Azimuth  [deg]		
Scan Axis	Amplitude	Phase	
			
0.00	-67.303	91.294	
1.00	-70.402	75.104	
2.00	-77.559	83.239	
3.00	-82.273	62.017	
4.00	-79.779	118.977	
5.00	-78.628	-176.159	
6.00	-77.091	-154.813	
7.00	-74.947	-146.945	
8.00	-72.811	-102.247	
9.00	-72.245	-99.086	
10.00	-70.495	-92.416	
11.00	-73.523	-100.039	
12.00	-73.050	-106.687	
13.00	-72.819	-77.646	
14.00	-75.390	-70.465	
15.00	-75.641	-121.393	
16.00	-74.490	-112.486	
17.00	-76.000	-120.022	
18.00	-70.073	-122.059	
19.00	-71.176	-126.459	
20.00	-71.079	-127.212	
21.00	-75.109	-112.765	
22.00	-71.069	-126.715	
23.00	-71.121	-106.947	
24.00	-67.204	-121.568	
25.00	-67.953	-102.443	
26.00	-67.616	-103.140	
27.00	-69.530	-96.343	
28.00	-70.290	-96.038	
29.00	-66.268	-78.030	
30.00	-69.175	-82.280	
31.00	-67.836	-87.352	
32.00	-70.775	-64.253	
33.00	-68.487	-70.836	
34.00	-71.100	-89.877	
35.00	-69.743	-82.207	
36.00	-71.288	-86.318	
37.00	-73.883	-79.389	
38.00	-69.179	-90.653	
39.00	-70.852	-36.567	
40.00	-65.765	-58.105	
41.00	-65.691	-38.670	
42.00	-66.824	-16.351	
43.00	-66.028	3.948	
44.00	-66.462	21.477	
45.00	-66.532	45.683	
46.00	-65.031	54.770	
47.00	-65.554	92.840	
48.00	-64.379	114.513	
49.00	-63.831	145.686	
50.00	-62.804	160.007	
51.00	-62.846	-176.194	
52.00	-62.658	-143.815	
53.00	-61.184	-124.045	
54.00	-61.882	-95.667	
55.00	-62.211	-68.083	
56.00	-61.392	-44.742	
57.00	-61.061	-29.703	
58.00	-60.247	-8.307	
59.00	-61.683	22.821	
60.00	-59.961	45.376	
61.00	-59.872	78.382	
62.00	-60.751	106.445	
63.00	-59.500	132.081	
64.00	-59.116	159.612	
65.00	-60.295	-175.508	
66.00	-58.534	-151.179	
67.00	-57.195	-120.177	
68.00	-57.451	-103.125	
69.00	-57.381	-76.961	
70.00	-56.185	-51.263	
71.00	-56.268	-23.223	
72.00	-55.716	-1.239	
73.00	-56.477	27.266	
74.00	-55.652	50.110	
75.00	-55.245	73.940	
76.00	-55.451	104.654	
77.00	-54.979	133.457	
78.00	-54.381	156.053	
79.00	-54.764	-176.049	
80.00	-54.535	-145.138	
81.00	-54.922	-120.362	
82.00	-54.712	-89.398	
83.00	-54.056	-66.561	
84.00	-53.257	-42.032	
85.00	-52.597	-13.419	
86.00	-52.211	11.295	
87.00	-51.753	40.158	
88.00	-51.177	63.615	
89.00	-50.855	87.804	
90.00	-49.970	113.982	
91.00	-49.584	137.148	
92.00	-49.574	160.381	
93.00	-48.874	-177.685	
94.00	-48.842	-154.904	
95.00	-48.349	-131.145	
96.00	-48.542	-110.182	
97.00	-47.646	-85.022	
98.00	-47.832	-63.883	
99.00	-47.142	-40.694	
100.00	-47.431	-18.391	
101.00	-47.029	5.032	
102.00	-46.859	28.027	
103.00	-46.300	50.242	
104.00	-46.194	75.307	
105.00	-46.235	98.743	
106.00	-45.544	124.291	
107.00	-45.336	146.652	
108.00	-44.978	167.886	
109.00	-44.691	-168.841	
110.00	-44.096	-150.734	
111.00	-43.883	-128.798	
112.00	-43.526	-110.368	
113.00	-43.293	-88.699	
114.00	-42.961	-71.095	
115.00	-42.476	-50.136	
116.00	-42.123	-32.263	
117.00	-41.813	-11.512	
118.00	-41.649	5.930	
119.00	-41.523	24.732	
120.00	-40.952	43.467	
121.00	-40.714	62.071	
122.00	-40.262	80.076	
123.00	-39.957	97.185	
124.00	-39.551	115.428	
125.00	-39.213	133.355	
126.00	-39.032	149.703	
127.00	-38.723	164.374	
128.00	-38.414	-178.643	
129.00	-38.177	-163.726	
130.00	-37.707	-148.150	
131.00	-37.471	-134.228	
132.00	-37.143	-117.281	
133.00	-36.965	-106.111	
134.00	-36.553	-90.897	
135.00	-36.327	-80.303	
136.00	-36.073	-64.076	
137.00	-35.777	-52.722	
138.00	-35.575	-39.137	
139.00	-35.278	-25.386	
140.00	-35.106	-13.522	
141.00	-34.869	-2.440	
142.00	-34.690	8.539	
143.00	-34.532	20.578	
144.00	-34.319	29.329	
145.00	-34.027	39.916	
146.00	-33.806	47.724	
147.00	-33.746	57.781	
148.00	-33.659	66.128	
149.00	-33.462	75.723	
150.00	-33.308	82.049	
151.00	-33.213	91.061	
152.00	-33.166	98.316	
153.00	-33.009	103.755	
154.00	-32.982	109.550	
155.00	-32.936	114.928	
156.00	-32.743	119.992	
157.00	-32.771	125.053	
158.00	-32.600	128.842	
159.00	-32.614	130.500	
160.00	-32.525	133.647	
161.00	-32.495	135.453	
162.00	-32.305	140.601	
163.00	-32.250	138.855	
164.00	-32.095	140.843	
165.00	-31.915	140.858	
166.00	-31.838	141.388	
167.00	-31.721	141.730	
168.00	-31.527	140.772	
169.00	-31.378	140.700	
170.00	-31.117	138.458	
171.00	-31.012	138.262	
172.00	-30.770	135.132	
173.00	-30.765	134.147	
174.00	-30.652	132.365	
175.00	-30.380	129.676	
176.00	-30.266	126.685	
177.00	-30.211	123.521	
178.00	-30.027	119.826	
179.00	-30.041	115.826	
180.00	-29.993	111.825	
181.00	-29.860	107.841	
182.00	-29.934	102.715	
183.00	-29.986	96.160	
184.00	-29.893	89.433	
185.00	-30.000	82.448	
186.00	-30.031	75.255	
187.00	-30.141	68.763	
188.00	-30.196	61.196	
189.00	-30.294	53.311	
190.00	-30.389	43.637	
191.00	-30.587	36.252	
192.00	-30.648	26.703	
193.00	-30.636	16.452	
194.00	-30.796	7.861	
195.00	-30.841	-3.249	
196.00	-30.907	-13.592	
197.00	-31.105	-24.142	
198.00	-31.146	-35.498	
199.00	-31.199	-48.627	
200.00	-31.331	-60.050	
201.00	-31.346	-72.419	
202.00	-31.445	-85.453	
203.00	-31.577	-98.304	
204.00	-31.674	-112.028	
205.00	-31.852	-125.642	
206.00	-32.135	-139.761	
207.00	-32.247	-155.255	
208.00	-32.454	-170.156	
209.00	-32.637	176.332	
210.00	-32.810	159.978	
211.00	-33.053	145.104	
212.00	-33.290	129.782	
213.00	-33.658	114.369	
214.00	-33.962	97.456	
215.00	-34.182	80.757	
216.00	-34.481	64.834	
217.00	-34.845	45.472	
218.00	-35.124	29.554	
219.00	-35.538	10.446	
220.00	-35.883	-7.453	
221.00	-36.134	-26.371	
222.00	-36.417	-45.486	
223.00	-36.624	-64.756	
224.00	-37.094	-84.666	
225.00	-37.240	-104.810	
226.00	-37.659	-124.990	
227.00	-37.964	-145.608	
228.00	-38.275	-167.003	
229.00	-38.708	170.406	
230.00	-38.950	149.860	
231.00	-39.381	130.442	
232.00	-39.769	106.525	
233.00	-40.082	84.254	
234.00	-40.638	64.295	
235.00	-40.764	39.310	
236.00	-41.366	17.696	
237.00	-41.570	-5.093	
238.00	-41.955	-26.721	
239.00	-42.305	-50.146	
240.00	-42.804	-74.486	
241.00	-42.892	-95.772	
242.00	-43.233	-119.605	
243.00	-43.655	-141.653	
244.00	-43.926	-165.436	
245.00	-44.371	169.059	
246.00	-44.518	145.704	
247.00	-44.988	119.971	
248.00	-45.276	99.510	
249.00	-45.236	73.320	
250.00	-45.992	51.974	
251.00	-46.462	31.227	
252.00	-47.009	5.365	
253.00	-47.493	-20.107	
254.00	-48.172	-42.301	
255.00	-48.699	-66.676	
256.00	-49.120	-92.132	
257.00	-49.898	-117.314	
258.00	-50.423	-144.757	
259.00	-50.623	-167.615	
260.00	-51.767	165.706	
261.00	-52.133	140.618	
262.00	-52.491	112.489	
263.00	-52.906	88.971	
264.00	-53.646	64.455	
265.00	-55.125	39.815	
266.00	-54.428	12.771	
267.00	-55.969	-11.978	
268.00	-57.137	-29.909	
269.00	-57.938	-59.900	
270.00	-60.309	-94.194	
271.00	-61.782	-122.361	
272.00	-62.544	-159.330	
273.00	-62.683	161.105	
274.00	-63.325	123.910	
275.00	-62.161	81.881	
276.00	-62.850	53.010	
277.00	-61.647	21.152	
278.00	-61.344	-3.223	
279.00	-60.103	-29.459	
280.00	-60.748	-55.972	
281.00	-61.236	-86.123	
282.00	-59.854	-116.367	
283.00	-60.483	-133.949	
284.00	-60.856	-167.081	
285.00	-59.475	163.278	
286.00	-59.925	144.061	
287.00	-60.463	116.209	
288.00	-59.708	90.096	
289.00	-61.308	61.392	
290.00	-61.274	43.104	
291.00	-60.339	17.181	
292.00	-60.197	-11.376	
293.00	-60.400	-43.437	
294.00	-60.349	-69.061	
295.00	-60.388	-89.118	
296.00	-60.360	-108.747	
297.00	-60.909	-134.332	
298.00	-60.593	-154.787	
299.00	-61.680	178.794	
300.00	-63.941	160.749	
301.00	-62.195	138.994	
302.00	-64.337	109.563	
303.00	-68.149	81.424	
304.00	-66.239	59.568	
305.00	-65.925	20.360	
306.00	-71.624	-19.531	
307.00	-68.981	-57.292	
308.00	-69.072	-94.311	
309.00	-68.878	-116.400	
310.00	-66.320	-145.545	
311.00	-64.313	-165.426	
312.00	-63.039	162.916	
313.00	-63.783	152.434	
314.00	-61.721	115.126	
315.00	-62.841	103.422	
316.00	-61.622	81.015	
317.00	-62.816	70.669	
318.00	-61.751	36.000	
319.00	-62.305	32.337	
320.00	-61.813	9.840	
321.00	-63.993	-5.375	
322.00	-64.269	-10.720	
323.00	-64.673	-39.069	
324.00	-65.404	-51.044	
325.00	-68.963	-60.180	
326.00	-70.397	-78.433	
327.00	-71.833	-103.367	
328.00	-77.498	-94.341	
329.00	-87.252	-77.805	
330.00	-75.108	36.304	
331.00	-71.820	38.212	
332.00	-66.974	26.108	
333.00	-69.142	26.290	
334.00	-65.475	25.835	
335.00	-66.903	20.427	
336.00	-64.143	-8.720	
337.00	-63.537	-11.382	
338.00	-64.207	-16.505	
339.00	-63.780	-29.357	
340.00	-63.818	-30.662	
341.00	-63.926	-37.805	
342.00	-66.901	-85.134	
343.00	-68.367	-56.258	
344.00	-72.758	-72.820	
345.00	-71.783	-77.459	
346.00	-73.031	-173.629	
347.00	-93.029	101.402	
348.00	-72.930	162.024	
349.00	-67.919	100.534	
350.00	-65.792	123.811	
351.00	-65.897	124.347	
352.00	-65.760	108.166	
353.00	-64.160	100.764	
354.00	-64.734	88.495	
355.00	-64.820	96.788	
356.00	-64.690	81.862	
357.00	-64.348	95.289	
358.00	-66.045	87.972	
359.00	-66.733	96.117	
Frequency	3600.00	MHz	
Channel	test		
Scan Axis name	Azimuth  [deg]		
Scan Axis	Amplitude	Phase	
			
0.00	-66.859	-31.904	
1.00	-69.615	-44.341	
2.00	-68.842	-33.693	
3.00	-71.808	-49.858	
4.00	-73.529	-20.498	
5.00	-74.722	-29.534	
6.00	-74.805	-18.541	
7.00	-90.757	17.238	
8.00	-82.706	-87.612	
9.00	-86.155	81.107	
10.00	-83.608	114.274	
11.00	-87.782	112.427	
12.00	-79.369	87.006	
13.00	-79.601	110.515	
14.00	-71.453	93.663	
15.00	-70.603	96.229	
16.00	-67.576	96.957	
17.00	-68.913	106.980	
18.00	-67.358	116.235	
19.00	-66.782	113.825	
20.00	-65.628	119.616	
21.00	-64.007	119.176	
22.00	-64.591	127.001	
23.00	-64.545	136.104	
24.00	-64.772	148.618	
25.00	-64.213	153.193	
26.00	-64.997	158.602	
27.00	-65.391	179.504	
28.00	-66.918	-177.803	
29.00	-65.968	-161.732	
30.00	-67.787	-152.659	
31.00	-70.365	-136.456	
32.00	-74.889	-136.172	
33.00	-76.139	-113.972	
34.00	-80.787	-156.881	
35.00	-86.161	53.664	
36.00	-78.947	80.104	
37.00	-78.461	91.531	
38.00	-73.576	117.980	
39.00	-72.793	149.532	
40.00	-74.299	-178.587	
41.00	-72.870	172.100	
42.00	-73.150	-135.482	
43.00	-73.463	-114.298	
44.00	-70.183	-72.642	
45.00	-69.518	-34.620	
46.00	-67.959	-17.260	
47.00	-66.280	11.201	
48.00	-65.058	37.885	
49.00	-62.751	49.270	
50.00	-62.908	79.804	
51.00	-61.764	93.630	
52.00	-60.552	117.698	
53.00	-60.450	138.111	
54.00	-60.695	156.381	
55.00	-60.105	-174.304	
56.00	-61.006	-151.843	
57.00	-60.675	-133.649	
58.00	-60.206	-101.095	
59.00	-60.764	-70.776	
60.00	-59.975	-48.150	
61.00	-59.378	-18.910	
62.00	-58.875	7.598	
63.00	-58.518	37.566	
64.00	-58.031	65.631	
65.00	-57.915	88.915	
66.00	-56.930	113.632	
67.00	-56.784	140.267	
68.00	-55.655	162.613	
69.00	-55.535	-170.740	
70.00	-55.599	-149.723	
71.00	-55.614	-123.802	
72.00	-55.967	-97.033	
73.00	-55.379	-69.583	
74.00	-55.498	-42.039	
75.00	-55.077	-13.334	
76.00	-54.926	10.036	
77.00	-54.995	39.746	
78.00	-54.672	65.715	
79.00	-53.833	91.212	
80.00	-53.888	120.489	
81.00	-53.434	145.703	
82.00	-52.889	173.825	
83.00	-52.582	-163.481	
84.00	-52.461	-135.408	
85.00	-51.881	-109.187	
86.00	-51.438	-83.777	
87.00	-51.001	-57.018	
88.00	-50.705	-31.992	
89.00	-50.265	-5.399	
90.00	-49.992	18.481	
91.00	-49.588	43.291	
92.00	-49.185	67.137	
93.00	-48.864	90.061	
94.00	-48.504	114.929	
95.00	-48.511	139.114	
96.00	-48.019	160.542	
97.00	-47.811	-175.725	
98.00	-47.511	-152.962	
99.00	-47.121	-131.135	
100.00	-47.004	-107.441	
101.00	-46.897	-84.337	
102.00	-46.439	-59.568	
103.00	-46.329	-37.262	
104.00	-46.091	-12.197	
105.00	-45.614	13.252	
106.00	-45.300	35.463	
107.00	-44.989	59.358	
108.00	-44.649	81.212	
109.00	-44.203	103.303	
110.00	-44.022	123.030	
111.00	-43.605	144.006	
112.00	-43.309	164.056	
113.00	-43.005	-175.404	
114.00	-42.662	-157.038	
115.00	-42.485	-136.240	
116.00	-42.131	-116.887	
117.00	-41.735	-96.852	
118.00	-41.413	-79.091	
119.00	-41.208	-58.982	
120.00	-40.823	-40.224	
121.00	-40.584	-21.470	
122.00	-40.168	-3.858	
123.00	-39.909	14.106	
124.00	-39.589	33.256	
125.00	-39.190	49.390	
126.00	-38.878	66.814	
127.00	-38.613	82.235	
128.00	-38.325	99.650	
129.00	-37.904	112.669	
130.00	-37.561	129.552	
131.00	-37.297	144.142	
132.00	-37.027	160.594	
133.00	-36.790	171.854	
134.00	-36.488	-172.698	
135.00	-36.229	-161.586	
136.00	-35.884	-146.077	
137.00	-35.560	-134.853	
138.00	-35.292	-121.822	
139.00	-35.003	-107.942	
140.00	-34.763	-96.403	
141.00	-34.524	-84.593	
142.00	-34.261	-74.780	
143.00	-34.093	-62.936	
144.00	-33.872	-53.548	
145.00	-33.609	-43.276	
146.00	-33.474	-34.936	
147.00	-33.256	-25.146	
148.00	-33.145	-16.871	
149.00	-32.936	-7.151	
150.00	-32.759	-0.347	
151.00	-32.665	8.628	
152.00	-32.498	15.564	
153.00	-32.367	21.757	
154.00	-32.229	27.297	
155.00	-32.198	33.362	
156.00	-32.146	39.448	
157.00	-31.991	43.700	
158.00	-31.954	48.626	
159.00	-31.881	50.163	
160.00	-31.863	53.440	
161.00	-31.900	55.732	
162.00	-31.729	60.504	
163.00	-31.838	59.640	
164.00	-31.652	61.495	
165.00	-31.637	61.807	
166.00	-31.559	61.418	
167.00	-31.536	62.428	
168.00	-31.433	61.267	
169.00	-31.242	60.090	
170.00	-31.205	57.960	
171.00	-31.011	57.356	
172.00	-30.849	53.732	
173.00	-30.697	51.763	
174.00	-30.452	49.017	
175.00	-30.247	46.232	
176.00	-30.182	42.943	
177.00	-29.931	38.848	
178.00	-29.958	36.282	
179.00	-29.709	31.135	
180.00	-29.524	26.597	
181.00	-29.453	23.069	
182.00	-29.436	17.646	
183.00	-29.361	11.045	
184.00	-29.384	5.112	
185.00	-29.333	-1.853	
186.00	-29.339	-8.728	
187.00	-29.374	-15.268	
188.00	-29.480	-22.197	
189.00	-29.528	-29.872	
190.00	-29.589	-39.132	
191.00	-29.690	-46.245	
192.00	-29.775	-55.645	
193.00	-29.964	-64.959	
194.00	-30.081	-73.701	
195.00	-30.126	-84.289	
196.00	-30.275	-94.388	
197.00	-30.376	-104.924	
198.00	-30.549	-116.022	
199.00	-30.702	-128.945	
200.00	-30.853	-140.609	
201.00	-30.990	-153.035	
202.00	-31.182	-165.873	
203.00	-31.292	-179.479	
204.00	-31.489	166.430	
205.00	-31.751	152.905	
206.00	-31.939	137.966	
207.00	-32.218	123.008	
208.00	-32.484	107.761	
209.00	-32.628	93.128	
210.00	-32.856	76.506	
211.00	-33.113	60.769	
212.00	-33.553	46.155	
213.00	-33.734	29.152	
214.00	-34.028	12.695	
215.00	-34.334	-4.478	
216.00	-34.579	-21.424	
217.00	-34.986	-40.557	
218.00	-35.190	-57.077	
219.00	-35.541	-77.052	
220.00	-35.796	-94.977	
221.00	-36.028	-114.277	
222.00	-36.372	-133.556	
223.00	-36.630	-153.050	
224.00	-37.001	-172.551	
225.00	-37.221	166.911	
226.00	-37.516	146.259	
227.00	-37.785	124.781	
228.00	-38.057	103.488	
229.00	-38.406	80.778	
230.00	-38.599	60.192	
231.00	-38.982	40.089	
232.00	-39.234	17.396	
233.00	-39.416	-5.177	
234.00	-39.763	-25.158	
235.00	-40.022	-49.813	
236.00	-40.379	-70.207	
237.00	-40.770	-93.890	
238.00	-40.904	-114.283	
239.00	-41.263	-136.707	
240.00	-41.656	-161.320	
241.00	-42.131	178.027	
242.00	-42.310	154.296	
243.00	-42.756	132.426	
244.00	-43.030	107.743	
245.00	-43.528	83.255	
246.00	-43.739	61.702	
247.00	-44.126	34.603	
248.00	-44.465	13.919	
249.00	-44.833	-12.182	
250.00	-45.004	-33.596	
251.00	-45.455	-54.547	
252.00	-45.853	-78.287	
253.00	-46.346	-104.360	
254.00	-46.948	-126.484	
255.00	-47.394	-149.935	
256.00	-48.047	-173.014	
257.00	-48.774	163.149	
258.00	-49.609	138.098	
259.00	-50.004	113.595	
260.00	-50.687	86.983	
261.00	-51.281	61.622	
262.00	-51.811	38.902	
263.00	-52.258	12.847	
264.00	-53.076	-9.096	
265.00	-53.956	-34.628	
266.00	-54.568	-60.071	
267.00	-55.457	-86.403	
268.00	-56.471	-103.503	
269.00	-57.834	-133.611	
270.00	-58.576	-155.067	
271.00	-60.415	179.953	
272.00	-62.234	156.242	
273.00	-65.887	126.700	
274.00	-67.917	97.760	
275.00	-72.444	59.931	
276.00	-73.841	-9.050	
277.00	-75.572	-66.096	
278.00	-72.363	-100.477	
279.00	-69.159	-138.892	
280.00	-66.923	-168.027	
281.00	-66.817	156.602	
282.00	-66.513	130.701	
283.00	-66.381	109.739	
284.00	-66.461	73.555	
285.00	-65.308	39.166	
286.00	-65.152	27.964	
287.00	-64.581	-6.455	
288.00	-63.972	-31.539	
289.00	-63.337	-66.773	
290.00	-63.109	-95.980	
291.00	-62.452	-118.516	
292.00	-61.444	-143.874	
293.00	-61.569	-161.503	
294.00	-61.277	175.105	
295.00	-61.313	151.430	
296.00	-60.698	131.581	
297.00	-60.848	108.336	
298.00	-61.667	82.414	
299.00	-62.383	68.367	
300.00	-62.874	32.439	
301.00	-65.335	17.023	
302.00	-64.947	-7.442	
303.00	-68.430	-44.409	
304.00	-69.068	-75.664	
305.00	-67.716	-120.262	
306.00	-69.237	-150.836	
307.00	-69.175	162.484	
308.00	-66.687	141.330	
309.00	-66.250	109.980	
310.00	-64.707	88.523	
311.00	-64.712	61.793	
312.00	-63.951	42.390	
313.00	-63.103	12.408	
314.00	-62.701	-1.594	
315.00	-62.093	-23.317	
316.00	-60.946	-42.301	
317.00	-60.510	-59.096	
318.00	-60.428	-82.201	
319.00	-59.543	-97.836	
320.00	-59.845	-114.169	
321.00	-59.863	-129.605	
322.00	-59.907	-149.502	
323.00	-61.143	-167.438	
324.00	-61.261	-179.909	
325.00	-63.407	164.024	
326.00	-64.109	145.033	
327.00	-65.424	120.994	
328.00	-67.256	97.030	
329.00	-68.904	74.929	
330.00	-70.634	37.024	
331.00	-68.683	-11.650	
332.00	-66.770	-25.992	
333.00	-64.977	-41.286	
334.00	-64.595	-76.516	
335.00	-63.211	-85.864	
336.00	-63.659	-97.456	
337.00	-62.397	-107.936	
338.00	-62.530	-119.083	
339.00	-62.273	-131.491	
340.00	-62.329	-140.658	
341.00	-62.670	-156.064	
342.00	-63.215	-169.691	
343.00	-63.664	-179.003	
344.00	-66.082	166.946	
345.00	-68.160	146.222	
346.00	-69.331	129.059	
347.00	-68.681	97.794	
348.00	-70.754	82.912	
349.00	-70.221	50.918	
350.00	-68.957	40.451	
351.00	-68.220	33.016	
352.00	-68.363	24.781	
353.00	-66.451	-1.357	
354.00	-66.221	-1.954	
355.00	-65.968	-10.950	
356.00	-66.252	-11.465	
357.00	-64.966	-15.116	
358.00	-65.128	-22.259	
359.00	-67.845	-29.254	
Frequency	3625.00	MHz	
Channel	test		
Scan Axis name	Azimuth  [deg]		
Scan Axis	Amplitude	Phase	
			
0.00	-65.393	-170.205	
1.00	-64.610	-176.764	
2.00	-66.622	167.172	
3.00	-65.775	165.909	
4.00	-66.846	168.004	
5.00	-67.042	154.651	
6.00	-68.752	160.226	
7.00	-70.445	150.286	
8.00	-70.664	159.848	
9.00	-73.038	168.794	
10.00	-74.405	163.386	
11.00	-81.530	179.908	
12.00	-75.896	-91.155	
13.00	-74.676	-96.746	
14.00	-75.833	-77.736	
15.00	-69.037	-62.903	
16.00	-66.432	-63.746	
17.00	-65.528	-56.756	
18.00	-63.148	-38.417	
19.00	-62.826	-42.473	
20.00	-62.386	-28.637	
21.00	-61.958	-23.172	
22.00	-61.009	-12.406	
23.00	-60.625	-3.290	
24.00	-60.902	12.814	
25.00	-60.441	18.792	
26.00	-60.064	30.603	
27.00	-60.214	43.575	
28.00	-60.632	60.512	
29.00	-61.583	74.391	
30.00	-61.919	83.598	
31.00	-62.352	99.799	
32.00	-62.996	106.261	
33.00	-63.776	127.989	
34.00	-64.763	136.486	
35.00	-64.919	156.365	
36.00	-67.080	165.884	
37.00	-68.117	-175.570	
38.00	-69.731	-174.024	
39.00	-67.923	-162.759	
40.00	-71.544	-164.164	
41.00	-68.894	-173.057	
42.00	-68.093	-152.339	
43.00	-66.955	-147.104	
44.00	-65.594	-143.871	
45.00	-63.816	-122.531	
46.00	-62.238	-108.948	
47.00	-61.613	-101.614	
48.00	-60.156	-78.678	
49.00	-59.876	-64.572	
50.00	-59.827	-46.182	
51.00	-59.773	-23.119	
52.00	-58.811	-2.589	
53.00	-59.072	23.518	
54.00	-58.805	41.507	
55.00	-58.792	67.193	
56.00	-58.428	94.190	
57.00	-57.916	124.090	
58.00	-58.050	146.566	
59.00	-57.702	177.247	
60.00	-57.481	-159.045	
61.00	-57.181	-127.293	
62.00	-56.691	-99.933	
63.00	-55.964	-78.353	
64.00	-55.201	-51.578	
65.00	-55.199	-26.843	
66.00	-54.585	-5.067	
67.00	-54.555	23.698	
68.00	-54.295	48.341	
69.00	-54.038	71.379	
70.00	-54.170	96.824	
71.00	-53.938	123.391	
72.00	-54.211	150.593	
73.00	-54.223	178.848	
74.00	-53.988	-151.840	
75.00	-53.677	-126.026	
76.00	-53.321	-99.092	
77.00	-53.026	-74.147	
78.00	-52.932	-46.216	
79.00	-52.364	-20.042	
80.00	-52.186	8.853	
81.00	-51.710	33.702	
82.00	-51.477	60.421	
83.00	-51.321	86.422	
84.00	-51.070	112.352	
85.00	-50.902	140.171	
86.00	-50.563	165.317	
87.00	-50.259	-166.862	
88.00	-49.988	-138.573	
89.00	-49.574	-112.919	
90.00	-48.911	-88.396	
91.00	-48.256	-62.140	
92.00	-47.879	-37.142	
93.00	-47.498	-14.752	
94.00	-47.025	9.316	
95.00	-46.769	32.619	
96.00	-46.477	54.596	
97.00	-46.257	79.177	
98.00	-46.112	100.837	
99.00	-45.918	123.909	
100.00	-45.606	148.577	
101.00	-45.484	171.238	
102.00	-45.226	-164.967	
103.00	-44.916	-141.216	
104.00	-44.604	-116.323	
105.00	-44.256	-91.133	
106.00	-43.932	-68.165	
107.00	-43.477	-45.342	
108.00	-43.276	-22.973	
109.00	-42.945	-0.878	
110.00	-42.649	18.765	
111.00	-42.323	41.509	
112.00	-42.089	61.218	
113.00	-41.746	82.688	
114.00	-41.440	101.555	
115.00	-41.205	123.727	
116.00	-40.817	142.625	
117.00	-40.513	163.791	
118.00	-40.049	-179.082	
119.00	-39.804	-158.685	
120.00	-39.511	-138.243	
121.00	-39.071	-120.252	
122.00	-38.683	-102.552	
123.00	-38.275	-85.347	
124.00	-37.909	-66.095	
125.00	-37.620	-50.117	
126.00	-37.263	-32.368	
127.00	-36.955	-16.731	
128.00	-36.670	0.819	
129.00	-36.380	14.236	
130.00	-36.024	31.387	
131.00	-35.721	45.751	
132.00	-35.504	62.969	
133.00	-35.156	73.920	
134.00	-34.884	89.639	
135.00	-34.588	100.658	
136.00	-34.285	116.390	
137.00	-33.947	127.944	
138.00	-33.734	141.038	
139.00	-33.497	155.278	
140.00	-33.194	166.287	
141.00	-33.013	178.575	
142.00	-32.738	-171.692	
143.00	-32.523	-159.925	
144.00	-32.278	-150.467	
145.00	-32.148	-139.760	
146.00	-31.856	-131.721	
147.00	-31.792	-121.809	
148.00	-31.632	-113.242	
149.00	-31.394	-103.991	
150.00	-31.270	-96.639	
151.00	-31.093	-88.060	
152.00	-30.959	-80.994	
153.00	-30.823	-75.248	
154.00	-30.667	-69.616	
155.00	-30.584	-64.346	
156.00	-30.450	-58.629	
157.00	-30.417	-53.742	
158.00	-30.274	-49.441	
159.00	-30.215	-47.645	
160.00	-30.147	-44.467	
161.00	-30.126	-42.256	
162.00	-30.016	-36.990	
163.00	-29.982	-38.178	
164.00	-29.864	-35.427	
165.00	-29.799	-35.045	
166.00	-29.639	-35.306	
167.00	-29.536	-33.998	
168.00	-29.431	-34.889	
169.00	-29.312	-35.122	
170.00	-29.262	-37.178	
171.00	-29.068	-37.640	
172.00	-28.945	-40.691	
173.00	-28.860	-42.384	
174.00	-28.728	-44.778	
175.00	-28.595	-47.599	
176.00	-28.549	-50.949	
177.00	-28.430	-54.867	
178.00	-28.304	-58.597	
179.00	-28.295	-62.886	
180.00	-28.153	-67.854	
181.00	-28.101	-71.713	
182.00	-28.140	-77.463	
183.00	-28.066	-84.593	
184.00	-28.085	-91.198	
185.00	-28.114	-98.236	
186.00	-28.162	-105.421	
187.00	-28.121	-112.591	
188.00	-28.226	-120.008	
189.00	-28.282	-127.938	
190.00	-28.290	-137.690	
191.00	-28.512	-144.651	
192.00	-28.495	-154.854	
193.00	-28.564	-165.017	
194.00	-28.554	-174.447	
195.00	-28.665	175.125	
196.00	-28.743	164.774	
197.00	-28.852	154.176	
198.00	-28.873	142.564	
199.00	-29.044	129.957	
200.00	-29.099	118.236	
201.00	-29.192	105.831	
202.00	-29.268	92.609	
203.00	-29.394	79.693	
204.00	-29.472	65.591	
205.00	-29.710	52.614	
206.00	-29.850	37.650	
207.00	-30.030	22.494	
208.00	-30.324	8.345	
209.00	-30.478	-6.131	
210.00	-30.751	-21.904	
211.00	-31.081	-36.614	
212.00	-31.313	-52.139	
213.00	-31.634	-68.308	
214.00	-32.053	-84.380	
215.00	-32.379	-101.199	
216.00	-32.727	-117.850	
217.00	-33.181	-136.785	
218.00	-33.552	-153.167	
219.00	-33.862	-173.566	
220.00	-34.289	168.753	
221.00	-34.682	149.370	
222.00	-34.929	129.269	
223.00	-35.353	109.780	
224.00	-35.691	89.787	
225.00	-35.977	68.601	
226.00	-36.344	47.470	
227.00	-36.620	26.173	
228.00	-36.951	4.439	
229.00	-37.284	-18.843	
230.00	-37.569	-39.711	
231.00	-37.877	-60.294	
232.00	-38.222	-84.000	
233.00	-38.476	-107.045	
234.00	-38.833	-127.418	
235.00	-39.055	-153.016	
236.00	-39.428	-173.785	
237.00	-39.659	161.078	
238.00	-40.012	140.808	
239.00	-40.306	117.893	
240.00	-40.567	93.543	
241.00	-40.963	71.985	
242.00	-41.269	48.262	
243.00	-41.724	25.182	
244.00	-42.060	1.663	
245.00	-42.410	-23.427	
246.00	-42.733	-45.969	
247.00	-43.107	-74.452	
248.00	-43.399	-94.595	
249.00	-43.758	-122.408	
250.00	-44.079	-143.521	
251.00	-44.318	-165.219	
252.00	-44.562	169.837	
253.00	-44.932	144.768	
254.00	-45.555	121.353	
255.00	-46.177	98.920	
256.00	-46.551	74.980	
257.00	-47.131	51.086	
258.00	-47.844	26.619	
259.00	-48.618	1.072	
260.00	-49.432	-24.958	
261.00	-49.731	-50.539	
262.00	-50.688	-76.185	
263.00	-51.068	-101.945	
264.00	-51.702	-126.364	
265.00	-52.315	-153.174	
266.00	-53.095	-176.157	
267.00	-53.749	160.224	
268.00	-54.793	138.527	
269.00	-56.179	113.336	
270.00	-57.771	90.962	
271.00	-59.387	65.751	
272.00	-62.137	33.656	
273.00	-64.657	6.850	
274.00	-69.713	-46.025	
275.00	-69.018	-104.791	
276.00	-68.900	-150.378	
277.00	-65.363	162.870	
278.00	-64.243	142.057	
279.00	-63.495	109.759	
280.00	-62.826	89.993	
281.00	-62.449	56.535	
282.00	-62.203	27.510	
283.00	-62.008	5.811	
284.00	-62.706	-27.781	
285.00	-61.520	-53.242	
286.00	-62.344	-80.763	
287.00	-62.211	-111.796	
288.00	-62.456	-138.949	
289.00	-62.188	-166.145	
290.00	-61.353	158.679	
291.00	-61.539	133.605	
292.00	-60.291	106.033	
293.00	-60.022	81.806	
294.00	-59.996	55.552	
295.00	-60.036	32.150	
296.00	-59.278	11.693	
297.00	-59.682	-17.814	
298.00	-59.977	-39.164	
299.00	-59.600	-60.379	
300.00	-60.404	-81.366	
301.00	-62.444	-101.480	
302.00	-62.596	-124.873	
303.00	-65.202	-146.941	
304.00	-66.455	176.673	
305.00	-67.835	137.341	
306.00	-70.777	99.600	
307.00	-67.498	52.675	
308.00	-66.289	12.191	
309.00	-64.454	-11.213	
310.00	-63.015	-43.758	
311.00	-62.061	-66.706	
312.00	-61.103	-93.729	
313.00	-60.171	-111.411	
314.00	-59.660	-128.435	
315.00	-58.862	-153.894	
316.00	-57.827	-172.938	
317.00	-57.673	168.056	
318.00	-57.123	144.149	
319.00	-56.933	127.186	
320.00	-56.783	108.415	
321.00	-56.221	89.865	
322.00	-56.807	72.719	
323.00	-57.219	61.602	
324.00	-57.756	45.015	
325.00	-58.706	24.805	
326.00	-59.592	3.671	
327.00	-60.844	-14.353	
328.00	-61.839	-40.794	
329.00	-63.118	-66.202	
330.00	-63.162	-94.985	
331.00	-62.803	-124.135	
332.00	-62.515	-146.878	
333.00	-61.705	-168.125	
334.00	-60.387	177.803	
335.00	-60.214	165.512	
336.00	-60.248	145.290	
337.00	-59.345	135.739	
338.00	-60.237	120.494	
339.00	-60.657	106.931	
340.00	-61.499	94.306	
341.00	-61.590	77.166	
342.00	-62.393	65.056	
343.00	-63.287	49.859	
344.00	-64.755	27.246	
345.00	-65.063	8.071	
346.00	-65.662	-13.440	
347.00	-65.149	-32.080	
348.00	-63.845	-50.877	
349.00	-65.233	-67.524	
350.00	-63.693	-80.855	
351.00	-64.009	-89.228	
352.00	-63.569	-97.763	
353.00	-63.136	-105.156	
354.00	-63.012	-109.481	
355.00	-62.924	-121.479	
356.00	-63.064	-127.077	
357.00	-64.261	-132.619	
358.00	-63.893	-138.351	
359.00	-64.287	-144.428	
Frequency	3650.00	MHz	
Channel	test		
Scan Axis name	Azimuth  [deg]		
Scan Axis	Amplitude	Phase	
			
0.00	-74.254	102.168	
1.00	-74.931	65.920	
2.00	-78.203	82.681	
3.00	-77.613	46.433	
4.00	-73.799	10.665	
5.00	-77.207	-4.486	
6.00	-75.481	7.909	
7.00	-75.851	16.078	
8.00	-73.507	-31.434	
9.00	-75.288	31.112	
10.00	-73.502	31.997	
11.00	-80.757	125.997	
12.00	-77.718	148.181	
13.00	-75.261	168.501	
14.00	-75.310	163.249	
15.00	-74.190	173.209	
16.00	-71.299	172.997	
17.00	-69.589	172.062	
18.00	-69.677	160.034	
19.00	-65.946	171.087	
20.00	-66.517	-166.518	
21.00	-65.772	-154.563	
22.00	-66.949	-136.013	
23.00	-65.060	-143.545	
24.00	-64.417	-124.163	
25.00	-67.828	-116.860	
26.00	-65.120	-104.969	
27.00	-65.697	-90.168	
28.00	-64.374	-74.786	
29.00	-66.849	-58.919	
30.00	-65.360	-59.599	
31.00	-63.917	-41.376	
32.00	-65.677	-40.341	
33.00	-64.032	-25.249	
34.00	-66.562	-26.807	
35.00	-65.758	-3.152	
36.00	-64.775	-16.087	
37.00	-64.692	6.624	
38.00	-64.544	9.365	
39.00	-64.115	26.099	
40.00	-64.191	35.826	
41.00	-61.990	52.734	
42.00	-61.421	74.566	
43.00	-61.804	83.310	
44.00	-61.052	101.448	
45.00	-59.489	110.355	
46.00	-59.852	123.962	
47.00	-59.362	140.290	
48.00	-59.120	162.619	
49.00	-59.951	-178.818	
50.00	-58.669	-160.443	
51.00	-59.742	-142.648	
52.00	-59.716	-113.813	
53.00	-59.762	-98.689	
54.00	-60.668	-77.905	
55.00	-60.382	-54.595	
56.00	-59.800	-19.139	
57.00	-58.762	1.090	
58.00	-60.471	34.162	
59.00	-60.355	67.099	
60.00	-59.762	77.381	
61.00	-59.610	116.975	
62.00	-59.353	140.167	
63.00	-58.631	163.747	
64.00	-57.617	-159.493	
65.00	-57.976	-144.771	
66.00	-58.113	-112.646	
67.00	-57.582	-88.956	
68.00	-57.604	-63.546	
69.00	-56.857	-28.662	
70.00	-57.377	-10.612	
71.00	-56.622	21.498	
72.00	-56.452	46.352	
73.00	-56.004	73.308	
74.00	-56.612	99.202	
75.00	-55.506	124.895	
76.00	-55.234	147.728	
77.00	-55.967	171.963	
78.00	-56.174	-158.485	
79.00	-55.740	-127.477	
80.00	-54.909	-100.291	
81.00	-56.264	-76.765	
82.00	-55.395	-46.263	
83.00	-55.071	-19.052	
84.00	-54.849	12.194	
85.00	-54.354	35.180	
86.00	-53.453	64.697	
87.00	-53.212	88.696	
88.00	-53.490	114.731	
89.00	-52.184	142.082	
90.00	-52.255	166.582	
91.00	-51.240	-165.466	
92.00	-50.848	-145.227	
93.00	-50.821	-119.269	
94.00	-50.413	-96.369	
95.00	-50.952	-72.044	
96.00	-50.228	-49.726	
97.00	-49.945	-24.029	
98.00	-50.052	-1.195	
99.00	-49.671	23.359	
100.00	-49.299	47.932	
101.00	-48.752	69.440	
102.00	-48.523	93.048	
103.00	-48.345	115.829	
104.00	-48.204	141.666	
105.00	-47.760	166.394	
106.00	-47.345	-169.589	
107.00	-47.250	-147.056	
108.00	-46.598	-124.238	
109.00	-46.404	-100.716	
110.00	-46.242	-80.071	
111.00	-45.903	-58.347	
112.00	-45.706	-37.284	
113.00	-45.579	-15.985	
114.00	-44.930	3.523	
115.00	-44.423	24.945	
116.00	-44.037	44.988	
117.00	-43.674	65.093	
118.00	-43.442	84.477	
119.00	-42.994	103.530	
120.00	-42.566	123.180	
121.00	-42.141	140.736	
122.00	-41.822	158.414	
123.00	-41.546	176.695	
124.00	-41.253	-162.819	
125.00	-40.886	-147.858	
126.00	-40.524	-129.505	
127.00	-40.299	-113.683	
128.00	-39.941	-96.256	
129.00	-39.684	-82.614	
130.00	-39.198	-66.517	
131.00	-39.004	-50.720	
132.00	-38.626	-33.770	
133.00	-38.271	-23.448	
134.00	-37.977	-7.742	
135.00	-37.699	3.612	
136.00	-37.369	18.903	
137.00	-37.076	30.703	
138.00	-36.786	43.312	
139.00	-36.534	57.674	
140.00	-36.219	69.277	
141.00	-35.945	81.258	
142.00	-35.768	91.524	
143.00	-35.533	103.402	
144.00	-35.283	112.856	
145.00	-35.015	123.541	
146.00	-34.769	132.062	
147.00	-34.611	141.864	
148.00	-34.421	150.259	
149.00	-34.127	159.986	
150.00	-33.983	167.573	
151.00	-33.865	176.182	
152.00	-33.650	-177.021	
153.00	-33.529	-170.956	
154.00	-33.479	-164.866	
155.00	-33.372	-159.284	
156.00	-33.213	-153.149	
157.00	-33.084	-149.240	
158.00	-33.141	-143.577	
159.00	-33.180	-141.489	
160.00	-32.977	-138.464	
161.00	-32.924	-136.314	
162.00	-32.862	-130.552	
163.00	-32.846	-132.308	
164.00	-32.846	-128.665	
165.00	-32.724	-129.008	
166.00	-32.645	-129.020	
167.00	-32.660	-127.466	
168.00	-32.534	-128.836	
169.00	-32.526	-129.437	
170.00	-32.329	-132.216	
171.00	-32.224	-132.479	
172.00	-32.089	-135.727	
173.00	-31.989	-138.016	
174.00	-32.017	-139.905	
175.00	-31.686	-143.647	
176.00	-31.567	-147.661	
177.00	-31.424	-151.729	
178.00	-31.324	-155.445	
179.00	-31.293	-160.202	
180.00	-31.129	-164.391	
181.00	-31.016	-168.938	
182.00	-30.893	-175.414	
183.00	-30.873	178.215	
184.00	-30.866	171.956	
185.00	-30.722	164.157	
186.00	-30.864	157.585	
187.00	-30.717	150.133	
188.00	-30.822	143.186	
189.00	-30.824	135.506	
190.00	-30.897	126.353	
191.00	-30.960	118.984	
192.00	-30.934	108.877	
193.00	-31.002	99.507	
194.00	-31.137	90.847	
195.00	-31.227	80.612	
196.00	-31.318	70.172	
197.00	-31.441	59.482	
198.00	-31.646	48.690	
199.00	-31.755	35.997	
200.00	-31.869	24.288	
201.00	-32.004	11.670	
202.00	-32.262	-1.105	
203.00	-32.377	-14.333	
204.00	-32.659	-28.457	
205.00	-32.823	-42.466	
206.00	-32.974	-57.953	
207.00	-33.317	-72.551	
208.00	-33.495	-88.157	
209.00	-33.725	-102.399	
210.00	-34.117	-118.779	
211.00	-34.314	-134.954	
212.00	-34.666	-150.785	
213.00	-34.904	-167.131	
214.00	-35.241	176.238	
215.00	-35.506	158.436	
216.00	-35.888	142.103	
217.00	-36.303	122.620	
218.00	-36.685	105.672	
219.00	-36.794	85.527	
220.00	-37.264	67.322	
221.00	-37.526	48.149	
222.00	-37.809	28.403	
223.00	-38.143	8.554	
224.00	-38.601	-11.291	
225.00	-38.904	-31.990	
226.00	-39.093	-52.757	
227.00	-39.360	-74.824	
228.00	-39.716	-96.729	
229.00	-39.922	-119.389	
230.00	-40.309	-139.931	
231.00	-40.557	-160.707	
232.00	-40.817	176.026	
233.00	-41.213	153.469	
234.00	-41.739	133.246	
235.00	-42.107	107.763	
236.00	-42.380	87.286	
237.00	-42.821	62.040	
238.00	-43.238	41.918	
239.00	-43.583	19.941	
240.00	-43.945	-5.862	
241.00	-44.435	-28.095	
242.00	-44.891	-51.495	
243.00	-45.507	-73.586	
244.00	-45.902	-97.990	
245.00	-46.052	-124.324	
246.00	-46.893	-147.555	
247.00	-47.360	-174.204	
248.00	-47.712	163.715	
249.00	-47.932	133.265	
250.00	-48.278	110.630	
251.00	-48.846	89.160	
252.00	-49.389	62.491	
253.00	-49.463	35.812	
254.00	-49.582	9.479	
255.00	-49.858	-14.843	
256.00	-50.828	-40.262	
257.00	-50.865	-65.223	
258.00	-51.379	-88.139	
259.00	-51.770	-113.807	
260.00	-52.877	-142.223	
261.00	-53.448	-166.499	
262.00	-53.733	166.965	
263.00	-54.715	140.984	
264.00	-54.837	117.592	
265.00	-54.865	91.055	
266.00	-55.631	64.207	
267.00	-55.735	34.328	
268.00	-56.596	13.522	
269.00	-57.153	-8.148	
270.00	-59.088	-36.522	
271.00	-59.146	-56.875	
272.00	-62.414	-83.668	
273.00	-63.470	-105.916	
274.00	-65.103	-135.604	
275.00	-64.753	-169.766	
276.00	-66.669	143.710	
277.00	-69.966	60.350	
278.00	-68.488	52.284	
279.00	-68.258	16.547	
280.00	-66.987	-5.210	
281.00	-64.461	-12.502	
282.00	-66.741	-70.475	
283.00	-65.723	-99.666	
284.00	-67.575	-122.694	
285.00	-67.466	-166.683	
286.00	-67.992	157.949	
287.00	-67.675	142.116	
288.00	-66.681	97.264	
289.00	-67.682	92.155	
290.00	-67.397	67.791	
291.00	-65.215	23.381	
292.00	-64.254	-0.945	
293.00	-66.066	-29.479	
294.00	-64.635	-65.317	
295.00	-63.724	-84.707	
296.00	-64.468	-116.570	
297.00	-64.020	-136.402	
298.00	-62.417	-164.404	
299.00	-63.329	-174.579	
300.00	-63.306	155.847	
301.00	-63.692	130.446	
302.00	-64.366	120.237	
303.00	-67.382	88.997	
304.00	-67.251	76.372	
305.00	-68.254	45.425	
306.00	-68.039	27.500	
307.00	-71.010	-20.274	
308.00	-71.680	-36.062	
309.00	-71.035	-89.346	
310.00	-73.904	-149.066	
311.00	-71.323	-155.677	
312.00	-68.719	167.680	
313.00	-68.732	129.828	
314.00	-67.264	105.679	
315.00	-65.642	73.415	
316.00	-67.642	45.742	
317.00	-68.009	31.999	
318.00	-63.882	5.235	
319.00	-63.640	-9.932	
320.00	-63.309	-33.877	
321.00	-63.720	-60.910	
322.00	-63.153	-81.303	
323.00	-61.838	-89.650	
324.00	-62.935	-109.970	
325.00	-63.249	-117.485	
326.00	-63.015	-136.061	
327.00	-66.404	-177.369	
328.00	-64.727	175.204	
329.00	-63.535	158.054	
330.00	-65.302	138.702	
331.00	-63.153	100.839	
332.00	-64.093	84.260	
333.00	-63.566	70.301	
334.00	-63.036	51.193	
335.00	-62.910	40.319	
336.00	-62.171	19.302	
337.00	-62.963	5.757	
338.00	-63.416	-13.086	
339.00	-62.588	-20.443	
340.00	-62.830	-35.959	
341.00	-65.361	-52.693	
342.00	-64.013	-60.710	
343.00	-65.635	-89.739	
344.00	-66.855	-93.190	
345.00	-66.416	-121.963	
346.00	-64.799	-129.891	
347.00	-66.982	-162.898	
348.00	-67.297	-163.846	
349.00	-69.006	-177.989	
350.00	-66.491	154.293	
351.00	-67.226	150.398	
352.00	-65.537	156.432	
353.00	-64.069	138.039	
354.00	-63.797	131.907	
355.00	-64.853	123.840	
356.00	-65.390	119.253	
357.00	-70.207	113.501	
358.00	-67.787	118.476	
359.00	-72.339	109.378	
Frequency	3675.00	MHz	
Channel	test		
Scan Axis name	Azimuth  [deg]		
Scan Axis	Amplitude	Phase	
			
0.00	-71.955	-19.855	
1.00	-72.882	-31.261	
2.00	-80.781	-101.575	
3.00	-78.396	-64.368	
4.00	-75.130	-85.336	
5.00	-72.742	-97.690	
6.00	-72.409	-105.040	
7.00	-70.885	-90.640	
8.00	-69.953	-92.769	
9.00	-71.303	-82.991	
10.00	-71.286	-69.907	
11.00	-73.204	-61.806	
12.00	-71.992	-54.110	
13.00	-71.372	-24.064	
14.00	-73.680	-8.235	
15.00	-70.212	6.040	
16.00	-68.627	25.757	
17.00	-68.349	36.623	
18.00	-66.735	55.066	
19.00	-66.928	63.264	
20.00	-66.407	70.968	
21.00	-65.736	88.509	
22.00	-65.776	88.798	
23.00	-65.573	108.130	
24.00	-64.400	109.478	
25.00	-65.267	116.338	
26.00	-64.444	133.993	
27.00	-66.218	148.362	
28.00	-65.649	160.021	
29.00	-65.461	177.643	
30.00	-65.332	-176.907	
31.00	-65.631	-163.396	
32.00	-66.172	-168.671	
33.00	-66.537	-157.738	
34.00	-65.563	-152.119	
35.00	-64.780	-134.010	
36.00	-65.075	-138.684	
37.00	-64.809	-120.892	
38.00	-64.660	-107.762	
39.00	-63.285	-105.311	
40.00	-62.550	-89.077	
41.00	-61.308	-81.878	
42.00	-60.532	-61.707	
43.00	-60.081	-45.547	
44.00	-59.961	-31.812	
45.00	-59.695	-12.193	
46.00	-59.836	3.158	
47.00	-59.180	20.834	
48.00	-59.893	46.571	
49.00	-59.918	57.160	
50.00	-59.619	83.800	
51.00	-59.506	101.048	
52.00	-60.097	126.717	
53.00	-59.803	152.143	
54.00	-60.692	173.343	
55.00	-60.719	-152.946	
56.00	-61.201	-127.186	
57.00	-60.734	-104.426	
58.00	-60.013	-76.616	
59.00	-59.362	-40.265	
60.00	-59.246	-16.484	
61.00	-58.604	12.166	
62.00	-58.111	41.577	
63.00	-57.946	61.575	
64.00	-57.876	87.665	
65.00	-57.280	120.130	
66.00	-56.976	138.935	
67.00	-57.285	165.681	
68.00	-56.953	-167.527	
69.00	-56.841	-140.779	
70.00	-56.779	-114.258	
71.00	-56.776	-87.311	
72.00	-57.132	-62.220	
73.00	-56.239	-33.041	
74.00	-55.980	-4.269	
75.00	-55.671	21.899	
76.00	-55.734	47.596	
77.00	-55.775	74.879	
78.00	-55.513	102.498	
79.00	-55.419	127.647	
80.00	-55.557	157.232	
81.00	-55.242	-172.268	
82.00	-55.246	-145.248	
83.00	-55.019	-117.429	
84.00	-54.435	-88.711	
85.00	-54.445	-61.259	
86.00	-53.886	-31.694	
87.00	-53.394	-7.022	
88.00	-52.694	21.501	
89.00	-52.288	48.136	
90.00	-52.061	74.518	
91.00	-51.513	97.476	
92.00	-50.989	123.385	
93.00	-50.566	146.125	
94.00	-50.085	168.536	
95.00	-50.016	-164.610	
96.00	-49.425	-143.945	
97.00	-49.322	-117.192	
98.00	-49.354	-95.837	
99.00	-48.839	-72.520	
100.00	-48.791	-47.776	
101.00	-48.539	-24.303	
102.00	-48.204	-0.446	
103.00	-47.862	24.710	
104.00	-47.517	50.070	
105.00	-47.069	74.274	
106.00	-46.774	97.846	
107.00	-46.436	121.840	
108.00	-46.218	142.566	
109.00	-46.040	167.311	
110.00	-45.626	-172.944	
111.00	-45.334	-150.064	
112.00	-44.832	-128.527	
113.00	-44.491	-106.566	
114.00	-44.048	-88.045	
115.00	-43.650	-65.668	
116.00	-43.216	-46.610	
117.00	-42.817	-26.604	
118.00	-42.401	-8.744	
119.00	-41.998	11.508	
120.00	-41.716	31.532	
121.00	-41.231	49.381	
122.00	-40.968	68.155	
123.00	-40.466	85.120	
124.00	-40.259	105.349	
125.00	-39.872	121.539	
126.00	-39.631	140.424	
127.00	-39.275	155.338	
128.00	-38.973	173.566	
129.00	-38.478	-172.917	
130.00	-38.071	-155.889	
131.00	-37.907	-140.973	
132.00	-37.539	-123.873	
133.00	-37.281	-112.518	
134.00	-36.830	-97.165	
135.00	-36.661	-85.326	
136.00	-36.353	-69.765	
137.00	-36.042	-58.465	
138.00	-35.645	-45.585	
139.00	-35.449	-31.334	
140.00	-35.262	-19.197	
141.00	-34.989	-7.073	
142.00	-34.737	3.060	
143.00	-34.533	14.850	
144.00	-34.308	24.594	
145.00	-34.040	35.022	
146.00	-33.847	43.504	
147.00	-33.639	52.656	
148.00	-33.465	61.103	
149.00	-33.305	70.212	
150.00	-33.141	77.917	
151.00	-32.997	86.125	
152.00	-32.841	92.683	
153.00	-32.683	98.348	
154.00	-32.520	103.910	
155.00	-32.495	109.300	
156.00	-32.360	115.245	
157.00	-32.315	120.116	
158.00	-32.156	124.396	
159.00	-32.066	126.097	
160.00	-31.916	129.160	
161.00	-31.821	131.522	
162.00	-31.659	136.627	
163.00	-31.613	135.786	
164.00	-31.484	138.504	
165.00	-31.346	138.823	
166.00	-31.143	138.829	
167.00	-31.030	140.228	
168.00	-30.939	139.558	
169.00	-30.772	138.980	
170.00	-30.711	137.653	
171.00	-30.591	137.161	
172.00	-30.452	134.277	
173.00	-30.333	132.376	
174.00	-30.231	130.476	
175.00	-30.131	127.878	
176.00	-30.099	124.103	
177.00	-30.028	120.530	
178.00	-29.968	116.730	
179.00	-29.906	112.052	
180.00	-29.895	107.554	
181.00	-29.918	103.316	
182.00	-29.918	97.001	
183.00	-29.945	89.928	
184.00	-29.909	82.634	
185.00	-29.939	75.111	
186.00	-29.965	67.542	
187.00	-30.059	60.471	
188.00	-30.050	52.470	
189.00	-30.070	43.544	
190.00	-30.115	33.861	
191.00	-30.166	25.609	
192.00	-30.268	15.959	
193.00	-30.334	5.687	
194.00	-30.345	-3.674	
195.00	-30.294	-14.710	
196.00	-30.376	-24.907	
197.00	-30.443	-35.943	
198.00	-30.474	-47.443	
199.00	-30.546	-60.300	
200.00	-30.604	-71.989	
201.00	-30.708	-84.367	
202.00	-30.753	-97.556	
203.00	-30.836	-110.729	
204.00	-30.999	-124.480	
205.00	-31.071	-137.999	
206.00	-31.344	-152.443	
207.00	-31.496	-167.360	
208.00	-31.777	177.850	
209.00	-32.037	163.946	
210.00	-32.227	147.536	
211.00	-32.584	132.685	
212.00	-32.898	117.386	
213.00	-33.231	101.550	
214.00	-33.654	85.284	
215.00	-33.918	67.756	
216.00	-34.526	52.535	
217.00	-34.845	32.115	
218.00	-35.238	15.840	
219.00	-35.735	-3.963	
220.00	-36.213	-22.032	
221.00	-36.689	-41.652	
222.00	-37.057	-62.181	
223.00	-37.488	-82.346	
224.00	-38.012	-102.370	
225.00	-38.315	-124.327	
226.00	-38.721	-146.405	
227.00	-39.114	-168.882	
228.00	-39.466	168.543	
229.00	-39.812	144.421	
230.00	-40.105	123.096	
231.00	-40.313	101.563	
232.00	-40.647	76.979	
233.00	-40.977	54.609	
234.00	-41.252	33.912	
235.00	-41.457	7.544	
236.00	-41.919	-13.552	
237.00	-42.316	-38.932	
238.00	-42.456	-60.379	
239.00	-42.863	-83.758	
240.00	-43.088	-108.976	
241.00	-43.405	-129.930	
242.00	-43.948	-152.502	
243.00	-44.177	-176.208	
244.00	-44.676	158.892	
245.00	-45.142	133.542	
246.00	-45.439	111.214	
247.00	-46.004	83.430	
248.00	-46.601	62.020	
249.00	-46.816	33.486	
250.00	-47.410	9.888	
251.00	-47.760	-12.694	
252.00	-48.391	-37.471	
253.00	-48.768	-65.761	
254.00	-49.302	-90.642	
255.00	-49.706	-115.865	
256.00	-50.152	-142.289	
257.00	-50.858	-167.287	
258.00	-51.225	165.079	
259.00	-52.130	137.741	
260.00	-51.987	112.603	
261.00	-52.856	84.482	
262.00	-53.497	56.380	
263.00	-53.627	29.833	
264.00	-54.279	5.005	
265.00	-54.997	-21.917	
266.00	-55.392	-49.418	
267.00	-55.672	-75.315	
268.00	-56.589	-102.347	
269.00	-57.327	-125.792	
270.00	-58.739	-154.770	
271.00	-59.014	177.865	
272.00	-60.534	148.157	
273.00	-61.777	118.631	
274.00	-63.216	86.776	
275.00	-63.428	46.389	
276.00	-63.991	13.071	
277.00	-64.416	-23.124	
278.00	-64.982	-47.488	
279.00	-63.684	-83.021	
280.00	-63.311	-114.100	
281.00	-62.765	-143.252	
282.00	-63.307	-169.854	
283.00	-62.474	163.079	
284.00	-62.988	131.655	
285.00	-63.270	107.643	
286.00	-64.665	72.439	
287.00	-64.020	31.959	
288.00	-65.127	11.779	
289.00	-65.097	-19.486	
290.00	-65.436	-58.220	
291.00	-64.520	-79.920	
292.00	-65.498	-111.758	
293.00	-63.306	-136.619	
294.00	-63.020	-164.063	
295.00	-62.129	166.700	
296.00	-62.302	138.443	
297.00	-61.269	116.314	
298.00	-61.891	92.417	
299.00	-61.552	67.489	
300.00	-62.001	44.919	
301.00	-62.053	15.494	
302.00	-63.087	-5.370	
303.00	-62.954	-25.133	
304.00	-64.473	-55.280	
305.00	-64.742	-86.319	
306.00	-65.606	-107.277	
307.00	-66.140	-145.319	
308.00	-65.796	-173.718	
309.00	-65.377	155.790	
310.00	-65.918	117.724	
311.00	-65.830	94.713	
312.00	-66.467	73.610	
313.00	-65.711	49.341	
314.00	-66.902	23.512	
315.00	-65.166	-5.042	
316.00	-65.311	-34.070	
317.00	-64.916	-54.860	
318.00	-63.945	-90.718	
319.00	-64.343	-111.783	
320.00	-63.468	-131.250	
321.00	-62.289	-151.710	
322.00	-63.436	-169.487	
323.00	-63.003	162.362	
324.00	-62.312	141.685	
325.00	-63.030	125.528	
326.00	-62.287	107.306	
327.00	-63.726	84.669	
328.00	-63.827	69.624	
329.00	-63.345	37.770	
330.00	-62.698	26.719	
331.00	-62.543	1.414	
332.00	-63.440	-18.550	
333.00	-62.935	-28.173	
334.00	-62.713	-48.492	
335.00	-63.112	-63.782	
336.00	-63.467	-80.527	
337.00	-63.836	-97.135	
338.00	-64.505	-115.462	
339.00	-65.518	-132.077	
340.00	-64.126	-151.842	
341.00	-65.736	-168.126	
342.00	-65.050	169.083	
343.00	-64.743	148.435	
344.00	-65.587	132.221	
345.00	-65.711	107.977	
346.00	-64.978	107.078	
347.00	-64.288	84.857	
348.00	-65.769	71.013	
349.00	-64.898	60.949	
350.00	-64.344	49.398	
351.00	-65.229	48.152	
352.00	-63.510	33.089	
353.00	-64.285	31.442	
354.00	-63.880	20.260	
355.00	-64.362	24.925	
356.00	-66.636	13.200	
357.00	-66.595	14.847	
358.00	-68.787	8.365	
359.00	-68.684	4.083	
Frequency	3700.00	MHz	
Channel	test		
Scan Axis name	Azimuth  [deg]		
Scan Axis	Amplitude	Phase	
			
0.00	-73.495	-113.545	
1.00	-78.813	-126.128	
2.00	-76.758	-172.742	
3.00	-74.663	169.381	
4.00	-74.127	136.041	
5.00	-74.067	132.914	
6.00	-72.633	136.126	
7.00	-71.286	150.837	
8.00	-70.613	147.508	
9.00	-70.893	162.183	
10.00	-72.065	161.472	
11.00	-71.041	172.801	
12.00	-74.606	-168.044	
13.00	-71.599	-156.335	
14.00	-72.583	-151.956	
15.00	-72.787	-131.338	
16.00	-71.819	-81.857	
17.00	-71.088	-75.635	
18.00	-71.563	-67.475	
19.00	-71.520	-41.079	
20.00	-69.918	-37.241	
21.00	-70.729	-17.347	
22.00	-68.652	0.220	
23.00	-68.366	0.273	
24.00	-68.222	22.835	
25.00	-69.294	15.057	
26.00	-68.421	26.964	
27.00	-67.987	34.638	
28.00	-68.041	54.804	
29.00	-68.806	79.137	
30.00	-67.432	69.771	
31.00	-67.628	88.266	
32.00	-67.722	87.357	
33.00	-67.459	100.821	
34.00	-68.370	99.084	
35.00	-67.182	114.618	
36.00	-67.090	110.770	
37.00	-66.118	135.269	
38.00	-66.151	139.991	
39.00	-64.143	154.817	
40.00	-64.111	165.099	
41.00	-63.264	-171.829	
42.00	-62.588	-163.901	
43.00	-62.427	-142.893	
44.00	-62.052	-127.689	
45.00	-61.880	-107.577	
46.00	-61.646	-90.120	
47.00	-62.154	-76.127	
48.00	-61.169	-52.249	
49.00	-61.499	-35.289	
50.00	-61.398	-12.704	
51.00	-62.358	9.353	
52.00	-61.817	34.308	
53.00	-62.383	60.927	
54.00	-63.079	79.574	
55.00	-62.500	108.886	
56.00	-63.917	138.431	
57.00	-62.839	172.317	
58.00	-62.226	-163.077	
59.00	-62.313	-129.010	
60.00	-61.159	-104.177	
61.00	-60.921	-72.848	
62.00	-59.596	-54.820	
63.00	-59.906	-25.924	
64.00	-59.763	0.402	
65.00	-59.447	25.712	
66.00	-59.424	49.853	
67.00	-59.168	78.892	
68.00	-58.926	103.791	
69.00	-59.463	133.428	
70.00	-58.902	161.984	
71.00	-58.559	-172.538	
72.00	-57.904	-146.996	
73.00	-57.831	-120.721	
74.00	-57.800	-92.318	
75.00	-58.025	-68.165	
76.00	-57.877	-41.687	
77.00	-58.340	-13.391	
78.00	-58.831	18.083	
79.00	-58.193	46.956	
80.00	-58.353	78.290	
81.00	-57.572	102.422	
82.00	-57.300	135.251	
83.00	-56.999	160.990	
84.00	-56.581	-170.156	
85.00	-56.327	-143.510	
86.00	-55.490	-115.682	
87.00	-54.959	-86.783	
88.00	-54.427	-59.832	
89.00	-53.998	-33.782	
90.00	-53.532	-7.694	
91.00	-52.835	17.804	
92.00	-53.058	41.978	
93.00	-52.441	65.955	
94.00	-52.271	88.824	
95.00	-52.050	114.996	
96.00	-51.686	137.098	
97.00	-51.442	165.658	
98.00	-51.260	-175.265	
99.00	-51.058	-150.266	
100.00	-50.686	-124.924	
101.00	-50.487	-102.020	
102.00	-50.226	-76.747	
103.00	-49.873	-52.065	
104.00	-49.655	-25.821	
105.00	-49.250	-1.855	
106.00	-48.855	23.453	
107.00	-48.519	46.119	
108.00	-48.308	69.074	
109.00	-47.960	93.825	
110.00	-47.448	113.444	
111.00	-47.046	136.287	
112.00	-46.650	157.479	
113.00	-46.205	178.752	
114.00	-45.861	-163.420	
115.00	-45.570	-142.584	
116.00	-45.143	-122.157	
117.00	-44.798	-102.838	
118.00	-44.481	-84.449	
119.00	-44.212	-65.241	
120.00	-43.724	-44.660	
121.00	-43.503	-25.588	
122.00	-43.185	-7.822	
123.00	-42.689	9.203	
124.00	-42.507	29.426	
125.00	-42.095	46.108	
126.00	-41.751	64.474	
127.00	-41.333	79.956	
128.00	-41.013	97.500	
129.00	-40.718	111.640	
130.00	-40.293	128.327	
131.00	-39.917	142.615	
132.00	-39.588	158.951	
133.00	-39.301	169.738	
134.00	-38.907	-174.654	
135.00	-38.670	-163.287	
136.00	-38.402	-147.502	
137.00	-38.034	-135.992	
138.00	-37.713	-123.528	
139.00	-37.459	-108.953	
140.00	-37.199	-97.550	
141.00	-36.910	-85.097	
142.00	-36.644	-74.827	
143.00	-36.328	-63.534	
144.00	-36.080	-53.863	
145.00	-35.841	-43.603	
146.00	-35.696	-34.168	
147.00	-35.340	-25.523	
148.00	-35.138	-16.958	
149.00	-34.971	-7.380	
150.00	-34.834	0.675	
151.00	-34.617	8.570	
152.00	-34.447	15.698	
153.00	-34.307	21.563	
154.00	-34.202	27.838	
155.00	-34.101	33.337	
156.00	-33.946	39.625	
157.00	-33.874	44.154	
158.00	-33.836	49.438	
159.00	-33.754	51.210	
160.00	-33.677	54.480	
161.00	-33.632	56.681	
162.00	-33.570	62.248	
163.00	-33.555	61.109	
164.00	-33.444	63.711	
165.00	-33.433	64.217	
166.00	-33.424	64.344	
167.00	-33.184	64.743	
168.00	-33.183	63.802	
169.00	-33.009	62.478	
170.00	-32.986	60.968	
171.00	-32.868	59.982	
172.00	-32.713	56.715	
173.00	-32.606	54.650	
174.00	-32.472	52.365	
175.00	-32.342	49.003	
176.00	-32.122	44.761	
177.00	-32.078	41.174	
178.00	-31.947	37.250	
179.00	-31.914	32.704	
180.00	-31.813	27.937	
181.00	-31.696	23.602	
182.00	-31.619	16.899	
183.00	-31.644	10.516	
184.00	-31.621	3.730	
185.00	-31.645	-3.377	
186.00	-31.551	-10.999	
187.00	-31.608	-18.182	
188.00	-31.552	-26.101	
189.00	-31.645	-34.000	
190.00	-31.747	-42.974	
191.00	-31.785	-51.252	
192.00	-31.869	-60.478	
193.00	-31.948	-70.887	
194.00	-32.026	-79.919	
195.00	-32.215	-89.739	
196.00	-32.213	-100.903	
197.00	-32.410	-111.316	
198.00	-32.529	-123.027	
199.00	-32.574	-136.333	
200.00	-32.738	-148.439	
201.00	-32.906	-161.008	
202.00	-33.235	-173.844	
203.00	-33.301	172.443	
204.00	-33.411	157.374	
205.00	-33.570	143.126	
206.00	-33.879	128.030	
207.00	-34.062	112.468	
208.00	-34.321	96.519	
209.00	-34.544	82.059	
210.00	-34.837	65.476	
211.00	-35.085	49.148	
212.00	-35.461	33.890	
213.00	-35.664	16.900	
214.00	-35.984	-0.303	
215.00	-36.315	-17.683	
216.00	-36.540	-34.918	
217.00	-36.817	-55.353	
218.00	-37.215	-71.323	
219.00	-37.491	-91.412	
220.00	-37.817	-109.818	
221.00	-38.128	-129.530	
222.00	-38.418	-148.660	
223.00	-38.721	-168.535	
224.00	-39.166	171.658	
225.00	-39.432	150.929	
226.00	-39.814	130.172	
227.00	-40.083	108.261	
228.00	-40.529	87.107	
229.00	-40.746	63.292	
230.00	-41.251	43.552	
231.00	-41.621	22.832	
232.00	-41.948	-1.094	
233.00	-42.304	-23.657	
234.00	-42.772	-43.241	
235.00	-43.228	-69.775	
236.00	-43.709	-88.564	
237.00	-44.132	-115.306	
238.00	-44.637	-136.554	
239.00	-45.027	-160.140	
240.00	-45.580	175.589	
241.00	-46.091	152.762	
242.00	-46.607	129.749	
243.00	-47.138	105.146	
244.00	-47.558	81.173	
245.00	-48.174	54.866	
246.00	-48.888	33.330	
247.00	-49.524	3.941	
248.00	-49.990	-17.108	
249.00	-50.625	-45.407	
250.00	-51.302	-69.155	
251.00	-51.796	-92.729	
252.00	-52.649	-120.832	
253.00	-53.157	-149.223	
254.00	-53.584	-175.931	
255.00	-54.028	159.917	
256.00	-54.964	130.689	
257.00	-55.884	102.952	
258.00	-56.221	74.996	
259.00	-56.827	46.220	
260.00	-57.855	18.605	
261.00	-58.162	-8.955	
262.00	-58.865	-46.369	
263.00	-59.768	-68.709	
264.00	-59.749	-97.942	
265.00	-60.441	-131.260	
266.00	-60.766	-160.933	
267.00	-61.288	170.374	
268.00	-60.512	145.966	
269.00	-62.076	115.707	
270.00	-63.097	86.180	
271.00	-63.191	56.280	
272.00	-63.474	16.328	
273.00	-63.939	-16.113	
274.00	-64.347	-43.831	
275.00	-63.828	-80.323	
276.00	-63.300	-115.683	
277.00	-63.181	-141.361	
278.00	-62.149	-172.663	
279.00	-61.931	160.702	
280.00	-61.608	134.695	
281.00	-61.335	105.188	
282.00	-61.467	86.249	
283.00	-62.345	58.122	
284.00	-62.365	31.272	
285.00	-62.753	2.873	
286.00	-62.489	-25.176	
287.00	-65.625	-57.827	
288.00	-63.809	-86.251	
289.00	-65.166	-113.512	
290.00	-64.371	-145.602	
291.00	-65.411	-177.640	
292.00	-64.371	147.603	
293.00	-63.672	121.379	
294.00	-64.086	98.435	
295.00	-64.374	67.825	
296.00	-63.617	43.090	
297.00	-63.068	14.466	
298.00	-63.088	-12.308	
299.00	-62.936	-39.705	
300.00	-63.319	-61.294	
301.00	-62.909	-84.636	
302.00	-63.742	-107.996	
303.00	-64.133	-134.359	
304.00	-63.886	-160.757	
305.00	-64.476	164.759	
306.00	-65.226	143.523	
307.00	-65.115	106.800	
308.00	-65.752	89.818	
309.00	-65.926	58.407	
310.00	-65.319	34.032	
311.00	-65.364	9.225	
312.00	-65.669	-13.071	
313.00	-65.173	-42.143	
314.00	-66.251	-62.792	
315.00	-66.103	-93.951	
316.00	-66.476	-112.055	
317.00	-67.036	-139.853	
318.00	-68.196	-167.247	
319.00	-64.486	169.666	
320.00	-67.514	134.670	
321.00	-66.603	122.128	
322.00	-65.948	92.317	
323.00	-67.963	76.802	
324.00	-66.439	47.779	
325.00	-66.525	26.466	
326.00	-66.516	2.774	
327.00	-65.918	-17.281	
328.00	-65.577	-35.410	
329.00	-64.819	-52.105	
330.00	-64.957	-72.146	
331.00	-64.833	-97.171	
332.00	-64.537	-112.796	
333.00	-64.053	-128.738	
334.00	-63.361	-149.378	
335.00	-63.719	-162.663	
336.00	-64.147	176.571	
337.00	-65.056	164.475	
338.00	-65.369	146.051	
339.00	-64.792	139.718	
340.00	-66.901	129.260	
341.00	-67.327	104.181	
342.00	-68.106	70.734	
343.00	-70.200	64.882	
344.00	-69.053	31.293	
345.00	-68.730	17.639	
346.00	-68.681	-4.267	
347.00	-68.706	-20.552	
348.00	-68.081	-41.316	
349.00	-65.783	-45.911	
350.00	-65.538	-58.398	
351.00	-64.896	-64.922	
352.00	-64.863	-80.118	
353.00	-64.802	-80.689	
354.00	-65.020	-88.907	
355.00	-65.776	-84.587	
356.00	-66.919	-103.539	
357.00	-65.528	-106.296	
358.00	-68.453	-102.105	
359.00	-69.851	-98.639	
Frequency	3750.00	MHz	
Channel	test		
Scan Axis name	Azimuth  [deg]		
Scan Axis	Amplitude	Phase	
			
0.00	-73.777	-6.369	
1.00	-73.943	-52.648	
2.00	-72.484	-95.973	
3.00	-73.529	-103.525	
4.00	-72.341	-103.141	
5.00	-70.945	-96.035	
6.00	-70.546	-112.223	
7.00	-71.628	-78.855	
8.00	-69.400	-89.173	
9.00	-70.959	-82.973	
10.00	-72.710	-68.647	
11.00	-69.568	-51.382	
12.00	-71.901	-22.046	
13.00	-70.387	-18.248	
14.00	-69.605	2.039	
15.00	-68.637	27.707	
16.00	-68.367	45.842	
17.00	-67.359	59.571	
18.00	-65.453	74.458	
19.00	-68.010	74.570	
20.00	-65.568	89.711	
21.00	-65.320	102.963	
22.00	-65.324	110.580	
23.00	-64.277	127.881	
24.00	-65.571	137.852	
25.00	-64.993	141.482	
26.00	-66.113	152.589	
27.00	-66.813	174.405	
28.00	-68.434	168.500	
29.00	-70.904	-176.165	
30.00	-72.732	-168.636	
31.00	-74.211	-149.677	
32.00	-73.662	-160.662	
33.00	-74.759	-152.527	
34.00	-73.890	-161.719	
35.00	-73.087	-156.927	
36.00	-70.796	-164.431	
37.00	-72.457	-119.911	
38.00	-68.251	-114.450	
39.00	-66.330	-98.314	
40.00	-65.896	-82.858	
41.00	-63.974	-69.670	
42.00	-63.391	-43.267	
43.00	-61.636	-26.749	
44.00	-61.827	-4.303	
45.00	-61.168	4.043	
46.00	-60.572	25.092	
47.00	-59.793	46.779	
48.00	-60.259	63.093	
49.00	-60.588	81.753	
50.00	-60.955	108.800	
51.00	-61.099	126.487	
52.00	-61.331	146.409	
53.00	-62.945	-177.207	
54.00	-62.597	-159.128	
55.00	-62.312	-121.307	
56.00	-62.106	-94.252	
57.00	-62.145	-69.258	
58.00	-61.218	-39.798	
59.00	-62.143	-12.087	
60.00	-60.862	14.430	
61.00	-60.991	41.349	
62.00	-61.058	70.000	
63.00	-60.985	103.942	
64.00	-60.608	128.600	
65.00	-60.932	159.190	
66.00	-60.142	-177.121	
67.00	-58.976	-146.131	
68.00	-59.622	-113.698	
69.00	-58.898	-91.483	
70.00	-58.832	-65.423	
71.00	-57.908	-38.663	
72.00	-58.771	-10.099	
73.00	-58.704	16.525	
74.00	-58.488	44.722	
75.00	-59.166	74.270	
76.00	-59.444	96.510	
77.00	-59.303	133.843	
78.00	-60.045	164.697	
79.00	-59.482	-162.345	
80.00	-58.569	-131.522	
81.00	-58.419	-97.302	
82.00	-57.498	-69.585	
83.00	-57.033	-42.373	
84.00	-55.947	-13.648	
85.00	-55.101	15.096	
86.00	-54.958	42.099	
87.00	-54.077	65.794	
88.00	-53.928	95.979	
89.00	-53.129	118.565	
90.00	-52.656	145.410	
91.00	-52.461	170.811	
92.00	-52.296	-161.715	
93.00	-51.535	-140.932	
94.00	-51.385	-114.995	
95.00	-50.844	-87.133	
96.00	-50.548	-66.734	
97.00	-50.098	-39.504	
98.00	-49.819	-17.120	
99.00	-49.548	8.835	
100.00	-49.225	34.928	
101.00	-49.104	57.287	
102.00	-48.483	81.634	
103.00	-48.007	107.856	
104.00	-47.602	131.384	
105.00	-47.426	157.800	
106.00	-47.101	-179.706	
107.00	-46.532	-155.805	
108.00	-46.069	-134.536	
109.00	-45.613	-111.003	
110.00	-45.419	-89.628	
111.00	-45.042	-68.182	
112.00	-44.683	-46.494	
113.00	-44.253	-25.508	
114.00	-43.808	-7.215	
115.00	-43.647	15.519	
116.00	-43.330	35.879	
117.00	-42.903	55.550	
118.00	-42.393	73.635	
119.00	-42.219	94.959	
120.00	-41.745	114.387	
121.00	-41.446	133.885	
122.00	-40.914	151.572	
123.00	-40.610	169.871	
124.00	-40.214	-170.994	
125.00	-39.867	-154.219	
126.00	-39.472	-136.256	
127.00	-39.175	-120.945	
128.00	-38.719	-103.328	
129.00	-38.442	-90.053	
130.00	-38.131	-71.938	
131.00	-37.810	-57.930	
132.00	-37.391	-41.493	
133.00	-37.175	-30.044	
134.00	-36.822	-14.887	
135.00	-36.521	-3.429	
136.00	-36.243	12.625	
137.00	-35.868	23.459	
138.00	-35.671	36.920	
139.00	-35.399	51.639	
140.00	-35.155	63.127	
141.00	-34.868	75.022	
142.00	-34.628	85.042	
143.00	-34.419	97.282	
144.00	-34.166	107.057	
145.00	-33.927	117.278	
146.00	-33.834	126.492	
147.00	-33.604	135.553	
148.00	-33.369	144.244	
149.00	-33.163	153.415	
150.00	-33.048	161.433	
151.00	-32.843	169.685	
152.00	-32.717	176.771	
153.00	-32.629	-177.438	
154.00	-32.488	-170.686	
155.00	-32.339	-166.250	
156.00	-32.330	-159.478	
157.00	-32.146	-155.209	
158.00	-32.114	-150.094	
159.00	-32.007	-148.607	
160.00	-32.003	-145.216	
161.00	-31.982	-142.645	
162.00	-31.790	-138.271	
163.00	-31.723	-139.616	
164.00	-31.743	-136.380	
165.00	-31.631	-136.715	
166.00	-31.680	-135.870	
167.00	-31.518	-135.017	
168.00	-31.460	-136.584	
169.00	-31.331	-137.429	
170.00	-31.161	-139.765	
171.00	-31.187	-140.257	
172.00	-31.026	-143.580	
173.00	-30.825	-146.161	
174.00	-30.727	-148.461	
175.00	-30.710	-151.024	
176.00	-30.606	-154.963	
177.00	-30.468	-159.265	
178.00	-30.299	-163.635	
179.00	-30.224	-168.353	
180.00	-30.197	-172.926	
181.00	-30.091	-177.569	
182.00	-30.137	176.167	
183.00	-30.052	168.811	
184.00	-30.009	161.720	
185.00	-30.019	154.428	
186.00	-30.043	147.016	
187.00	-30.012	139.468	
188.00	-30.052	131.822	
189.00	-30.128	123.599	
190.00	-30.113	113.816	
191.00	-30.187	105.679	
192.00	-30.250	96.440	
193.00	-30.273	85.727	
194.00	-30.413	77.039	
195.00	-30.466	66.233	
196.00	-30.603	56.172	
197.00	-30.675	44.706	
198.00	-30.800	33.223	
199.00	-30.881	19.903	
200.00	-31.103	8.153	
201.00	-31.320	-4.446	
202.00	-31.465	-18.030	
203.00	-31.617	-31.913	
204.00	-31.837	-46.528	
205.00	-32.085	-60.412	
206.00	-32.280	-76.469	
207.00	-32.526	-92.060	
208.00	-32.796	-108.119	
209.00	-33.010	-123.100	
210.00	-33.337	-139.413	
211.00	-33.673	-155.489	
212.00	-33.969	-171.587	
213.00	-34.279	171.456	
214.00	-34.685	154.209	
215.00	-34.944	136.345	
216.00	-35.265	118.856	
217.00	-35.603	98.899	
218.00	-35.872	81.956	
219.00	-36.260	61.507	
220.00	-36.544	42.944	
221.00	-36.824	22.809	
222.00	-37.187	3.647	
223.00	-37.509	-16.114	
224.00	-37.738	-37.058	
225.00	-38.078	-57.767	
226.00	-38.623	-78.222	
227.00	-38.895	-99.683	
228.00	-39.341	-121.739	
229.00	-39.648	-145.737	
230.00	-40.202	-166.019	
231.00	-40.605	173.412	
232.00	-41.052	149.840	
233.00	-41.501	126.934	
234.00	-41.941	106.684	
235.00	-42.526	80.540	
236.00	-42.912	60.415	
237.00	-43.542	33.405	
238.00	-44.082	12.473	
239.00	-44.758	-10.491	
240.00	-45.339	-35.665	
241.00	-45.890	-59.403	
242.00	-46.380	-84.024	
243.00	-47.047	-109.422	
244.00	-47.557	-134.454	
245.00	-48.467	-159.923	
246.00	-48.862	175.889	
247.00	-49.727	145.435	
248.00	-50.500	123.204	
249.00	-51.167	94.850	
250.00	-52.028	69.766	
251.00	-52.888	44.116	
252.00	-53.294	16.372	
253.00	-54.680	-13.404	
254.00	-55.212	-46.033	
255.00	-56.435	-72.496	
256.00	-56.734	-100.924	
257.00	-57.183	-136.699	
258.00	-57.592	-170.150	
259.00	-58.405	158.385	
260.00	-58.570	134.377	
261.00	-58.039	100.773	
262.00	-58.318	70.279	
263.00	-57.978	37.439	
264.00	-58.301	7.423	
265.00	-58.067	-25.450	
266.00	-59.476	-54.047	
267.00	-58.496	-82.995	
268.00	-58.681	-112.226	
269.00	-58.891	-136.662	
270.00	-59.102	-167.799	
271.00	-59.357	161.859	
272.00	-59.090	126.580	
273.00	-59.785	98.167	
274.00	-58.901	64.662	
275.00	-59.397	35.252	
276.00	-58.670	10.100	
277.00	-58.300	-17.906	
278.00	-58.160	-44.607	
279.00	-58.282	-77.110	
280.00	-58.587	-95.185	
281.00	-58.552	-126.603	
282.00	-58.402	-158.295	
283.00	-58.649	179.696	
284.00	-58.843	155.506	
285.00	-59.566	118.466	
286.00	-59.525	98.388	
287.00	-61.112	72.074	
288.00	-60.847	44.541	
289.00	-60.481	15.082	
290.00	-61.487	-13.591	
291.00	-61.485	-43.155	
292.00	-61.000	-73.846	
293.00	-62.507	-103.750	
294.00	-61.680	-132.693	
295.00	-62.879	-154.298	
296.00	-61.841	177.525	
297.00	-62.823	151.008	
298.00	-62.119	119.867	
299.00	-61.934	86.580	
300.00	-62.324	60.215	
301.00	-62.043	32.065	
302.00	-62.481	0.261	
303.00	-63.939	-25.892	
304.00	-63.028	-57.840	
305.00	-63.309	-79.416	
306.00	-63.738	-119.435	
307.00	-62.091	-144.470	
308.00	-62.113	-162.657	
309.00	-61.513	164.546	
310.00	-59.701	141.699	
311.00	-60.784	115.552	
312.00	-60.248	95.635	
313.00	-60.681	72.463	
314.00	-60.172	49.188	
315.00	-60.602	31.129	
316.00	-60.871	3.850	
317.00	-61.200	-18.921	
318.00	-62.556	-41.840	
319.00	-64.119	-68.423	
320.00	-62.332	-84.239	
321.00	-63.332	-111.882	
322.00	-62.735	-142.569	
323.00	-62.704	-159.027	
324.00	-61.680	-179.155	
325.00	-62.357	155.555	
326.00	-61.988	132.777	
327.00	-61.944	113.632	
328.00	-61.173	95.767	
329.00	-61.670	75.986	
330.00	-62.017	57.290	
331.00	-60.764	37.413	
332.00	-62.011	26.261	
333.00	-61.988	10.313	
334.00	-61.583	-4.451	
335.00	-61.901	-19.947	
336.00	-63.184	-34.700	
337.00	-63.576	-49.767	
338.00	-63.210	-65.922	
339.00	-64.867	-78.412	
340.00	-66.981	-95.701	
341.00	-68.838	-123.366	
342.00	-68.008	-140.150	
343.00	-72.304	-146.552	
344.00	-70.600	-176.080	
345.00	-71.301	133.345	
346.00	-69.810	106.610	
347.00	-69.829	97.871	
348.00	-66.877	83.048	
349.00	-66.194	72.359	
350.00	-65.225	63.063	
351.00	-64.564	61.367	
352.00	-65.543	58.887	
353.00	-65.682	40.478	
354.00	-66.384	40.489	
355.00	-66.521	34.466	
356.00	-68.534	24.540	
357.00	-69.161	28.715	
358.00	-70.117	2.891	
359.00	-73.624	-0.705	
Frequency	3800.00	MHz	
Channel	test		
Scan Axis name	Azimuth  [deg]		
Scan Axis	Amplitude	Phase	
			
0.00	-77.531	99.299	
1.00	-76.113	37.901	
2.00	-70.451	25.007	
3.00	-69.805	14.208	
4.00	-66.737	28.166	
5.00	-65.730	14.256	
6.00	-65.155	23.146	
7.00	-64.414	25.847	
8.00	-64.233	47.169	
9.00	-63.882	45.070	
10.00	-62.761	60.777	
11.00	-63.224	66.367	
12.00	-62.279	84.968	
13.00	-62.842	95.013	
14.00	-62.813	113.043	
15.00	-62.694	122.444	
16.00	-63.586	136.102	
17.00	-63.351	149.880	
18.00	-63.954	165.056	
19.00	-63.881	176.568	
20.00	-65.158	-167.460	
21.00	-65.883	-151.760	
22.00	-67.581	-130.464	
23.00	-68.404	-108.361	
24.00	-68.401	-70.963	
25.00	-70.388	-45.489	
26.00	-67.488	-20.272	
27.00	-68.158	5.885	
28.00	-67.944	20.890	
29.00	-66.984	46.514	
30.00	-65.400	64.194	
31.00	-65.095	76.576	
32.00	-65.343	92.313	
33.00	-65.529	112.652	
34.00	-68.466	124.035	
35.00	-68.560	146.085	
36.00	-70.023	157.028	
37.00	-76.286	177.079	
38.00	-113.311	-87.572	
39.00	-89.161	89.406	
40.00	-70.875	39.920	
41.00	-68.748	70.773	
42.00	-65.301	79.932	
43.00	-64.449	96.067	
44.00	-63.737	115.092	
45.00	-63.085	122.978	
46.00	-62.134	142.116	
47.00	-62.190	158.334	
48.00	-62.760	173.244	
49.00	-62.066	-159.874	
50.00	-63.848	-140.403	
51.00	-64.020	-114.870	
52.00	-65.271	-87.317	
53.00	-65.348	-51.997	
54.00	-65.945	-16.621	
55.00	-64.736	18.745	
56.00	-63.797	43.241	
57.00	-63.661	77.982	
58.00	-62.379	96.537	
59.00	-62.636	129.611	
60.00	-62.236	151.281	
61.00	-62.274	179.909	
62.00	-61.455	-149.175	
63.00	-62.001	-124.535	
64.00	-62.616	-91.119	
65.00	-61.772	-70.086	
66.00	-61.644	-36.498	
67.00	-62.020	-11.977	
68.00	-62.285	18.344	
69.00	-61.856	45.649	
70.00	-61.720	76.586	
71.00	-61.077	104.142	
72.00	-61.682	132.957	
73.00	-61.202	160.686	
74.00	-63.225	-172.244	
75.00	-62.347	-139.444	
76.00	-62.499	-105.755	
77.00	-62.509	-74.655	
78.00	-62.517	-33.220	
79.00	-61.867	0.415	
80.00	-61.402	38.176	
81.00	-59.934	62.112	
82.00	-59.373	96.864	
83.00	-58.213	121.160	
84.00	-57.700	151.637	
85.00	-57.512	179.002	
86.00	-56.612	-153.911	
87.00	-55.240	-125.344	
88.00	-54.777	-98.681	
89.00	-53.797	-70.643	
90.00	-53.319	-45.211	
91.00	-53.182	-18.637	
92.00	-52.365	7.545	
93.00	-51.646	31.544	
94.00	-51.354	56.135	
95.00	-50.851	82.350	
96.00	-50.635	104.328	
97.00	-49.964	132.351	
98.00	-49.577	152.678	
99.00	-49.209	176.879	
100.00	-48.813	-157.628	
101.00	-48.473	-134.212	
102.00	-48.153	-110.883	
103.00	-47.771	-84.739	
104.00	-47.456	-58.755	
105.00	-46.975	-33.237	
106.00	-46.596	-10.074	
107.00	-46.180	14.163	
108.00	-45.713	35.979	
109.00	-45.347	60.675	
110.00	-45.089	80.548	
111.00	-44.790	102.568	
112.00	-44.239	123.758	
113.00	-43.926	145.585	
114.00	-43.539	164.546	
115.00	-43.081	-173.775	
116.00	-42.727	-154.164	
117.00	-42.322	-133.884	
118.00	-41.986	-115.149	
119.00	-41.686	-95.409	
120.00	-41.204	-75.608	
121.00	-40.789	-57.429	
122.00	-40.548	-38.645	
123.00	-40.277	-20.453	
124.00	-39.761	-2.052	
125.00	-39.571	14.851	
126.00	-39.091	32.849	
127.00	-38.836	48.388	
128.00	-38.456	65.373	
129.00	-38.195	79.467	
130.00	-37.768	96.488	
131.00	-37.457	110.586	
132.00	-37.247	127.900	
133.00	-36.891	138.500	
134.00	-36.541	153.481	
135.00	-36.309	165.307	
136.00	-36.105	-178.367	
137.00	-35.839	-166.434	
138.00	-35.498	-154.554	
139.00	-35.203	-139.600	
140.00	-34.991	-128.053	
141.00	-34.757	-115.507	
142.00	-34.476	-105.743	
143.00	-34.391	-92.525	
144.00	-34.117	-83.066	
145.00	-33.888	-72.741	
146.00	-33.659	-63.842	
147.00	-33.466	-54.520	
148.00	-33.309	-45.604	
149.00	-33.093	-36.125	
150.00	-33.000	-27.806	
151.00	-32.901	-19.299	
152.00	-32.679	-12.430	
153.00	-32.659	-6.153	
154.00	-32.488	-0.235	
155.00	-32.395	4.512	
156.00	-32.296	10.869	
157.00	-32.218	15.357	
158.00	-32.243	20.382	
159.00	-32.212	22.217	
160.00	-32.194	25.685	
161.00	-32.125	27.393	
162.00	-32.004	31.986	
163.00	-32.065	31.385	
164.00	-32.048	33.931	
165.00	-31.914	33.410	
166.00	-31.932	33.772	
167.00	-31.828	34.979	
168.00	-31.757	32.993	
169.00	-31.632	32.396	
170.00	-31.474	30.113	
171.00	-31.340	28.628	
172.00	-31.245	25.793	
173.00	-31.199	24.261	
174.00	-31.078	21.553	
175.00	-30.888	17.728	
176.00	-30.723	13.824	
177.00	-30.625	9.785	
178.00	-30.610	6.237	
179.00	-30.517	1.284	
180.00	-30.413	-3.819	
181.00	-30.383	-7.939	
182.00	-30.402	-14.155	
183.00	-30.305	-21.666	
184.00	-30.316	-28.680	
185.00	-30.332	-36.186	
186.00	-30.387	-43.511	
187.00	-30.439	-51.013	
188.00	-30.440	-58.711	
189.00	-30.495	-67.544	
190.00	-30.573	-77.146	
191.00	-30.616	-85.626	
192.00	-30.656	-95.731	
193.00	-30.774	-105.865	
194.00	-30.863	-115.607	
195.00	-30.855	-126.863	
196.00	-31.023	-136.959	
197.00	-31.146	-148.320	
198.00	-31.249	-160.687	
199.00	-31.339	-173.848	
200.00	-31.565	173.931	
201.00	-31.574	160.268	
202.00	-31.836	147.024	
203.00	-31.918	132.831	
204.00	-32.191	118.360	
205.00	-32.262	103.301	
206.00	-32.488	87.526	
207.00	-32.705	72.184	
208.00	-32.927	55.853	
209.00	-33.226	41.705	
210.00	-33.452	24.255	
211.00	-33.869	9.020	
212.00	-34.013	-8.201	
213.00	-34.348	-24.567	
214.00	-34.682	-42.194	
215.00	-35.047	-59.839	
216.00	-35.421	-76.524	
217.00	-35.729	-97.335	
218.00	-36.149	-113.855	
219.00	-36.557	-134.098	
220.00	-36.923	-152.547	
221.00	-37.196	-173.505	
222.00	-37.642	166.993	
223.00	-38.072	147.000	
224.00	-38.488	126.005	
225.00	-38.929	105.554	
226.00	-39.319	83.964	
227.00	-39.776	62.100	
228.00	-40.169	38.949	
229.00	-40.727	15.319	
230.00	-41.173	-5.993	
231.00	-41.730	-27.381	
232.00	-42.259	-51.835	
233.00	-42.878	-74.905	
234.00	-43.383	-95.907	
235.00	-44.037	-123.866	
236.00	-44.634	-144.407	
237.00	-45.273	-172.344	
238.00	-45.856	166.595	
239.00	-46.503	142.026	
240.00	-47.078	114.108	
241.00	-47.900	89.749	
242.00	-48.490	65.805	
243.00	-49.493	39.086	
244.00	-50.265	10.577	
245.00	-50.882	-18.251	
246.00	-51.769	-42.001	
247.00	-52.360	-77.222	
248.00	-52.973	-102.620	
249.00	-53.451	-133.359	
250.00	-54.449	-159.069	
251.00	-54.768	174.107	
252.00	-55.193	140.992	
253.00	-56.270	112.108	
254.00	-57.195	78.836	
255.00	-57.819	45.599	
256.00	-57.866	11.608	
257.00	-58.419	-27.116	
258.00	-57.864	-60.185	
259.00	-57.435	-93.879	
260.00	-56.689	-126.193	
261.00	-55.656	-152.332	
262.00	-55.275	178.485	
263.00	-55.038	150.286	
264.00	-54.929	124.340	
265.00	-54.859	97.794	
266.00	-54.504	70.007	
267.00	-54.606	42.873	
268.00	-54.202	17.399	
269.00	-54.608	-11.784	
270.00	-54.730	-38.616	
271.00	-54.483	-68.672	
272.00	-54.613	-99.492	
273.00	-54.928	-126.369	
274.00	-54.500	-155.055	
275.00	-54.582	178.049	
276.00	-54.850	149.356	
277.00	-54.647	124.328	
278.00	-55.009	98.805	
279.00	-54.746	70.108	
280.00	-55.283	47.814	
281.00	-55.549	18.403	
282.00	-56.287	-10.421	
283.00	-56.121	-32.932	
284.00	-56.298	-64.611	
285.00	-57.369	-92.791	
286.00	-57.433	-120.300	
287.00	-58.301	-152.327	
288.00	-58.269	-177.957	
289.00	-58.650	151.858	
290.00	-59.233	127.006	
291.00	-59.484	94.500	
292.00	-59.380	69.081	
293.00	-59.706	36.223	
294.00	-59.958	4.545	
295.00	-59.946	-25.543	
296.00	-59.723	-50.872	
297.00	-59.102	-77.968	
298.00	-59.364	-105.117	
299.00	-59.531	-133.050	
300.00	-59.487	-157.952	
301.00	-60.158	177.182	
302.00	-59.995	149.123	
303.00	-60.926	125.613	
304.00	-61.450	93.538	
305.00	-62.418	71.440	
306.00	-62.649	38.109	
307.00	-63.405	6.003	
308.00	-63.941	-31.055	
309.00	-63.648	-57.649	
310.00	-62.551	-86.305	
311.00	-62.560	-112.016	
312.00	-62.195	-140.276	
313.00	-61.801	-163.376	
314.00	-61.687	171.173	
315.00	-61.405	153.004	
316.00	-61.992	131.884	
317.00	-62.360	107.814	
318.00	-62.605	80.225	
319.00	-62.275	54.431	
320.00	-62.852	23.457	
321.00	-62.667	-1.969	
322.00	-62.329	-29.707	
323.00	-62.058	-50.943	
324.00	-62.288	-71.231	
325.00	-61.183	-97.323	
326.00	-60.235	-120.744	
327.00	-59.890	-142.062	
328.00	-59.089	-160.631	
329.00	-58.549	-175.267	
330.00	-58.119	166.782	
331.00	-58.088	149.375	
332.00	-57.760	134.196	
333.00	-57.480	124.037	
334.00	-58.131	111.351	
335.00	-58.426	97.670	
336.00	-58.612	85.504	
337.00	-59.390	73.573	
338.00	-60.572	65.708	
339.00	-61.397	46.814	
340.00	-62.571	40.696	
341.00	-64.410	24.394	
342.00	-66.847	-2.852	
343.00	-69.851	-23.972	
344.00	-68.237	-62.462	
345.00	-70.240	-103.257	
346.00	-66.995	-126.173	
347.00	-64.595	-141.579	
348.00	-63.605	-151.030	
349.00	-62.382	-166.142	
350.00	-61.552	-168.336	
351.00	-60.262	-168.056	
352.00	-61.599	-174.911	
353.00	-61.315	-178.550	
354.00	-61.918	175.805	
355.00	-62.954	-179.952	
356.00	-64.332	167.110	
357.00	-65.703	174.480	
358.00	-69.319	173.737	
359.00	-72.612	145.695	
