Test Title:	Alpha Wireless Indoor Range						
Date:	21/03/2018						
Time:	15:36						
Operator Name:	FL						
Comment:	Radome height is 74mm 

No wings						
Caib. File Name:	C:\Program Files\Midas 2.01d\Calibration Files\test sigma 180900.cal						
							
[Scan Axis] Name: 	Azimuth  [deg]Start: 	0.000000	Stop	359.000000	Increment	1.000000[Step Axis] Name: 	Start: 	0.000000	Stop	0.000000	Increment	0.000000[Tert] Name: 	None [Forth] Name: 	None  [ Freq.]  (List) 	MHz.	3400.000000	3450.000000	3500.000000	3550.000000	3600.000000	3650.000000	3700.000000	3750.000000	3800.000000	3850.000000	3900.000000	3950.000000	4000.000000	4050.000000	4100.000000	4150.000000	4200.000000
 [Switch]  	None [Channel]  	test			 [ Beam] 	None			
Database:			
First Question			
2nd			
3rd			
4th			
			
Frequency	3400.00	MHz	
Channel	test		
Scan Axis name	Azimuth  [deg]		
Scan Axis	Amplitude	Phase	
			
0.00	-81.638	108.585	
1.00	-81.108	122.568	
2.00	-79.613	121.728	
3.00	-77.921	136.725	
4.00	-77.006	151.835	
5.00	-74.623	158.499	
6.00	-74.340	171.402	
7.00	-72.991	-169.882	
8.00	-72.223	-170.145	
9.00	-70.426	-146.707	
10.00	-70.907	-145.546	
11.00	-69.612	-130.552	
12.00	-68.810	-124.568	
13.00	-68.067	-109.340	
14.00	-67.408	-102.166	
15.00	-66.872	-89.589	
16.00	-66.716	-76.987	
17.00	-66.662	-65.400	
18.00	-66.800	-50.508	
19.00	-67.284	-46.914	
20.00	-68.423	-27.272	
21.00	-69.386	-10.851	
22.00	-70.998	10.828	
23.00	-71.242	29.377	
24.00	-71.397	57.910	
25.00	-71.330	90.588	
26.00	-70.416	120.770	
27.00	-68.889	137.638	
28.00	-67.684	157.510	
29.00	-67.127	151.690	
30.00	-65.470	169.661	
31.00	-65.306	178.197	
32.00	-65.002	-171.720	
33.00	-64.743	-157.079	
34.00	-64.948	-146.485	
35.00	-65.300	-128.219	
36.00	-65.382	-111.834	
37.00	-65.789	-96.946	
38.00	-66.194	-85.917	
39.00	-67.072	-65.589	
40.00	-68.498	-59.996	
41.00	-70.057	-44.320	
42.00	-74.057	-25.531	
43.00	-79.901	-10.101	
44.00	-89.796	-4.660	
45.00	-84.259	164.073	
46.00	-77.249	-155.303	
47.00	-75.858	-121.878	
48.00	-74.065	-102.436	
49.00	-73.259	-83.641	
50.00	-72.322	-58.982	
51.00	-72.305	-35.548	
52.00	-72.900	-10.878	
53.00	-73.155	10.581	
54.00	-73.685	43.987	
55.00	-74.674	47.005	
56.00	-75.541	84.770	
57.00	-78.365	113.236	
58.00	-75.566	170.372	
59.00	-75.338	-163.605	
60.00	-74.793	-135.403	
61.00	-74.565	-99.755	
62.00	-75.024	-69.109	
63.00	-76.275	-39.661	
64.00	-76.331	2.376	
65.00	-77.784	54.042	
66.00	-74.557	111.885	
67.00	-72.571	140.130	
68.00	-69.485	176.435	
69.00	-67.329	-157.355	
70.00	-65.850	-133.693	
71.00	-64.354	-108.379	
72.00	-63.778	-88.106	
73.00	-63.133	-61.725	
74.00	-62.749	-34.792	
75.00	-62.920	-9.415	
76.00	-63.273	18.841	
77.00	-63.749	55.029	
78.00	-63.543	84.693	
79.00	-63.116	119.914	
80.00	-62.626	153.437	
81.00	-61.414	178.935	
82.00	-60.446	-154.240	
83.00	-58.697	-125.725	
84.00	-57.889	-104.319	
85.00	-56.950	-74.280	
86.00	-56.195	-50.625	
87.00	-55.837	-15.083	
88.00	-55.306	0.306	
89.00	-55.094	38.468	
90.00	-54.569	47.844	
91.00	-54.405	86.695	
92.00	-53.926	108.346	
93.00	-53.591	141.359	
94.00	-52.916	162.227	
95.00	-52.637	-176.970	
96.00	-51.795	-142.047	
97.00	-51.533	-129.172	
98.00	-51.076	-91.966	
99.00	-50.642	-78.628	
100.00	-50.380	-45.873	
101.00	-50.036	-23.604	
102.00	-49.755	5.088	
103.00	-49.392	28.648	
104.00	-49.120	57.345	
105.00	-48.786	82.185	
106.00	-48.318	113.909	
107.00	-47.959	133.048	
108.00	-47.509	162.133	
109.00	-47.081	-174.630	
110.00	-46.688	-152.115	
111.00	-46.269	-131.933	
112.00	-45.940	-116.180	
113.00	-45.618	-86.560	
114.00	-45.280	-64.876	
115.00	-45.058	-39.489	
116.00	-44.763	-16.855	
117.00	-44.478	1.112	
118.00	-44.265	22.387	
119.00	-44.039	43.617	
120.00	-43.773	61.910	
121.00	-43.520	83.096	
122.00	-43.249	107.315	
123.00	-42.977	123.997	
124.00	-42.698	143.945	
125.00	-42.392	166.616	
126.00	-42.107	-172.632	
127.00	-41.809	-151.359	
128.00	-41.534	-133.149	
129.00	-41.268	-118.507	
130.00	-41.056	-102.202	
131.00	-40.822	-81.059	
132.00	-40.603	-60.888	
133.00	-40.381	-46.371	
134.00	-40.200	-28.251	
135.00	-39.969	-14.308	
136.00	-39.798	-0.737	
137.00	-39.596	22.407	
138.00	-39.424	24.390	
139.00	-39.304	46.443	
140.00	-39.111	57.831	
141.00	-38.963	71.567	
142.00	-38.818	88.636	
143.00	-38.673	96.888	
144.00	-38.555	110.185	
145.00	-38.408	120.682	
146.00	-38.295	125.965	
147.00	-38.147	144.051	
148.00	-38.041	143.064	
149.00	-37.911	159.777	
150.00	-37.766	163.255	
151.00	-37.672	-176.110	
152.00	-37.508	-166.011	
153.00	-37.397	-160.384	
154.00	-37.264	-155.347	
155.00	-37.146	-153.414	
156.00	-37.015	-147.601	
157.00	-36.865	-128.197	
158.00	-36.717	-125.392	
159.00	-36.564	-112.000	
160.00	-36.427	-114.584	
161.00	-36.299	-100.420	
162.00	-36.136	-102.492	
163.00	-36.013	-96.613	
164.00	-35.860	-90.170	
165.00	-35.712	-94.009	
166.00	-35.565	-85.115	
167.00	-35.418	-90.748	
168.00	-35.296	-83.795	
169.00	-35.165	-87.055	
170.00	-35.038	-88.484	
171.00	-34.920	-86.771	
172.00	-34.812	-92.542	
173.00	-34.704	-78.313	
174.00	-34.606	-90.764	
175.00	-34.540	-81.991	
176.00	-34.481	-90.894	
177.00	-34.416	-96.984	
178.00	-34.381	-93.459	
179.00	-34.362	-113.706	
180.00	-34.375	-97.654	
181.00	-34.368	-111.969	
182.00	-34.359	-113.016	
183.00	-34.397	-116.507	
184.00	-34.434	-129.217	
185.00	-34.466	-126.874	
186.00	-34.517	-138.090	
187.00	-34.580	-143.524	
188.00	-34.640	-157.914	
189.00	-34.698	-155.757	
190.00	-34.748	-167.700	
191.00	-34.819	-168.874	
192.00	-34.882	179.036	
193.00	-34.959	170.063	
194.00	-35.032	160.770	
195.00	-35.130	150.350	
196.00	-35.205	138.461	
197.00	-35.311	129.176	
198.00	-35.403	116.670	
199.00	-35.526	108.635	
200.00	-35.646	94.905	
201.00	-35.767	82.579	
202.00	-35.921	70.444	
203.00	-36.047	54.891	
204.00	-36.177	44.206	
205.00	-36.326	26.411	
206.00	-36.470	16.096	
207.00	-36.619	-1.185	
208.00	-36.761	-12.538	
209.00	-36.944	-30.446	
210.00	-37.103	-44.754	
211.00	-37.290	-64.192	
212.00	-37.469	-80.687	
213.00	-37.652	-97.351	
214.00	-37.881	-122.653	
215.00	-38.070	-140.755	
216.00	-38.351	-156.304	
217.00	-38.598	170.872	
218.00	-38.808	153.725	
219.00	-39.111	145.469	
220.00	-39.310	110.727	
221.00	-39.538	100.514	
222.00	-39.776	71.196	
223.00	-39.957	53.070	
224.00	-40.223	31.415	
225.00	-40.415	13.398	
226.00	-40.659	-10.394	
227.00	-40.823	-33.219	
228.00	-41.038	-54.428	
229.00	-41.239	-77.201	
230.00	-41.454	-95.792	
231.00	-41.671	-118.314	
232.00	-41.946	-139.049	
233.00	-42.136	-165.421	
234.00	-42.406	171.047	
235.00	-42.599	148.432	
236.00	-42.807	128.288	
237.00	-42.996	107.924	
238.00	-43.221	85.069	
239.00	-43.423	57.446	
240.00	-43.624	34.455	
241.00	-43.786	5.577	
242.00	-43.985	-18.331	
243.00	-44.146	-47.174	
244.00	-44.311	-73.500	
245.00	-44.617	-96.219	
246.00	-44.880	-123.877	
247.00	-45.203	-147.358	
248.00	-45.625	-175.222	
249.00	-45.941	159.378	
250.00	-46.410	135.321	
251.00	-46.765	105.145	
252.00	-47.114	82.520	
253.00	-47.413	52.361	
254.00	-47.704	26.707	
255.00	-47.885	-0.112	
256.00	-48.156	-23.185	
257.00	-48.363	-48.993	
258.00	-48.642	-73.891	
259.00	-48.989	-100.385	
260.00	-49.424	-125.123	
261.00	-49.934	-154.367	
262.00	-50.514	179.189	
263.00	-51.115	151.698	
264.00	-51.634	124.140	
265.00	-52.078	96.837	
266.00	-52.332	65.868	
267.00	-52.609	33.398	
268.00	-52.596	3.517	
269.00	-52.674	-28.637	
270.00	-52.787	-58.299	
271.00	-52.975	-87.998	
272.00	-53.357	-114.829	
273.00	-53.717	-143.631	
274.00	-54.443	-170.212	
275.00	-55.035	161.265	
276.00	-55.847	134.861	
277.00	-56.558	104.782	
278.00	-56.994	77.428	
279.00	-57.552	52.698	
280.00	-57.865	17.470	
281.00	-58.037	-4.628	
282.00	-58.201	-35.624	
283.00	-58.367	-58.005	
284.00	-58.694	-82.716	
285.00	-59.100	-106.296	
286.00	-59.787	-134.267	
287.00	-60.624	-163.097	
288.00	-61.442	173.580	
289.00	-62.297	141.279	
290.00	-62.806	109.607	
291.00	-63.114	73.456	
292.00	-63.014	45.576	
293.00	-63.407	14.600	
294.00	-63.290	-14.422	
295.00	-63.224	-49.615	
296.00	-63.417	-73.273	
297.00	-63.777	-94.473	
298.00	-64.599	-118.963	
299.00	-65.217	-144.653	
300.00	-65.991	-166.328	
301.00	-66.910	163.817	
302.00	-68.363	133.956	
303.00	-68.733	109.505	
304.00	-69.526	80.368	
305.00	-70.407	55.915	
306.00	-70.792	18.766	
307.00	-70.634	-8.122	
308.00	-70.666	-38.408	
309.00	-70.330	-56.665	
310.00	-69.472	-88.791	
311.00	-69.175	-102.639	
312.00	-69.080	-124.562	
313.00	-69.484	-130.985	
314.00	-70.163	-149.654	
315.00	-70.817	-166.562	
316.00	-71.502	178.755	
317.00	-73.177	170.822	
318.00	-76.471	154.707	
319.00	-80.032	139.742	
320.00	-86.138	123.098	
321.00	-89.421	63.618	
322.00	-84.613	-15.271	
323.00	-78.726	-34.737	
324.00	-77.716	-51.423	
325.00	-75.942	-59.673	
326.00	-74.579	-65.633	
327.00	-73.808	-81.210	
328.00	-73.635	-87.743	
329.00	-74.642	-90.263	
330.00	-74.870	-95.205	
331.00	-77.199	-110.195	
332.00	-77.657	-112.631	
333.00	-80.348	-103.047	
334.00	-80.668	-113.568	
335.00	-83.175	-96.236	
336.00	-86.233	-74.229	
337.00	-82.110	-60.761	
338.00	-79.590	-66.998	
339.00	-78.005	-58.268	
340.00	-78.509	-70.436	
341.00	-77.861	-72.934	
342.00	-75.818	-78.911	
343.00	-75.078	-90.126	
344.00	-74.845	-101.269	
345.00	-73.788	-108.663	
346.00	-73.951	-114.805	
347.00	-73.113	-115.639	
348.00	-73.005	-128.038	
349.00	-73.922	-132.680	
350.00	-73.812	-138.477	
351.00	-75.492	-148.564	
352.00	-77.694	-155.145	
353.00	-78.559	-153.679	
354.00	-83.219	-169.930	
355.00	-86.004	-171.050	
356.00	-91.666	178.634	
357.00	-88.454	93.128	
358.00	-83.023	81.630	
359.00	-83.863	75.669	
Frequency	3450.00	MHz	
Channel	test		
Scan Axis name	Azimuth  [deg]		
Scan Axis	Amplitude	Phase	
			
0.00	-83.965	111.933	
1.00	-84.389	142.534	
2.00	-82.421	152.977	
3.00	-82.181	-171.427	
4.00	-78.120	-166.042	
5.00	-79.018	-152.767	
6.00	-76.690	-134.361	
7.00	-74.172	-121.131	
8.00	-74.900	-115.079	
9.00	-74.103	-100.124	
10.00	-73.149	-87.213	
11.00	-72.731	-65.439	
12.00	-71.572	-67.993	
13.00	-70.148	-46.783	
14.00	-69.790	-41.914	
15.00	-69.841	-31.329	
16.00	-69.516	-18.012	
17.00	-69.701	-10.832	
18.00	-70.832	3.455	
19.00	-71.227	12.280	
20.00	-73.624	34.785	
21.00	-74.616	43.152	
22.00	-75.225	69.371	
23.00	-76.063	86.441	
24.00	-78.045	118.195	
25.00	-78.543	153.078	
26.00	-76.201	-165.934	
27.00	-76.584	-159.827	
28.00	-74.068	-127.073	
29.00	-72.450	-136.706	
30.00	-71.979	-115.009	
31.00	-71.957	-115.591	
32.00	-72.824	-109.149	
33.00	-73.256	-84.015	
34.00	-75.140	-72.050	
35.00	-75.164	-52.916	
36.00	-76.994	-41.113	
37.00	-76.335	-22.970	
38.00	-77.932	-22.157	
39.00	-85.285	-29.847	
40.00	-85.552	-71.674	
41.00	-80.312	-102.434	
42.00	-75.144	-104.950	
43.00	-73.191	-94.171	
44.00	-71.739	-86.188	
45.00	-70.505	-73.088	
46.00	-69.069	-45.060	
47.00	-68.292	-27.392	
48.00	-68.431	-5.562	
49.00	-68.357	9.315	
50.00	-68.989	28.245	
51.00	-69.255	52.249	
52.00	-69.696	71.564	
53.00	-71.460	92.626	
54.00	-71.444	123.068	
55.00	-72.554	127.948	
56.00	-72.695	164.700	
57.00	-74.171	-174.414	
58.00	-74.769	-134.600	
59.00	-75.250	-115.721	
60.00	-76.767	-75.443	
61.00	-76.307	-57.817	
62.00	-78.121	-44.698	
63.00	-81.789	-53.655	
64.00	-81.538	-83.781	
65.00	-77.289	-107.004	
66.00	-74.875	-93.111	
67.00	-72.169	-81.982	
68.00	-69.590	-60.300	
69.00	-68.439	-41.719	
70.00	-67.005	-14.375	
71.00	-66.298	1.255	
72.00	-65.739	28.557	
73.00	-64.922	55.715	
74.00	-65.109	82.711	
75.00	-64.896	119.271	
76.00	-64.374	151.152	
77.00	-63.207	-169.955	
78.00	-62.137	-142.454	
79.00	-61.032	-115.621	
80.00	-59.977	-89.700	
81.00	-59.223	-73.197	
82.00	-58.336	-49.619	
83.00	-58.021	-24.666	
84.00	-57.463	-6.101	
85.00	-57.350	24.319	
86.00	-57.428	49.293	
87.00	-57.116	87.196	
88.00	-57.153	104.240	
89.00	-56.799	145.513	
90.00	-56.529	155.180	
91.00	-56.144	-163.257	
92.00	-55.574	-141.657	
93.00	-55.201	-106.953	
94.00	-54.610	-88.200	
95.00	-54.399	-65.737	
96.00	-53.873	-32.153	
97.00	-53.637	-18.063	
98.00	-53.384	19.728	
99.00	-53.087	33.876	
100.00	-52.964	67.535	
101.00	-52.761	92.123	
102.00	-52.499	122.930	
103.00	-52.189	148.522	
104.00	-51.674	178.690	
105.00	-51.149	-154.954	
106.00	-50.503	-122.966	
107.00	-50.057	-103.541	
108.00	-49.398	-74.864	
109.00	-49.025	-51.759	
110.00	-48.656	-29.388	
111.00	-48.258	-8.829	
112.00	-47.949	7.145	
113.00	-47.690	38.029	
114.00	-47.376	60.663	
115.00	-47.108	87.023	
116.00	-46.742	110.430	
117.00	-46.397	129.034	
118.00	-46.108	151.005	
119.00	-45.723	172.976	
120.00	-45.378	-168.584	
121.00	-45.014	-147.134	
122.00	-44.662	-122.481	
123.00	-44.332	-105.643	
124.00	-44.003	-85.912	
125.00	-43.678	-63.448	
126.00	-43.362	-42.356	
127.00	-43.092	-21.176	
128.00	-42.781	-2.556	
129.00	-42.581	12.390	
130.00	-42.335	29.105	
131.00	-42.104	50.626	
132.00	-41.900	71.345	
133.00	-41.636	86.105	
134.00	-41.446	105.379	
135.00	-41.176	119.090	
136.00	-41.002	133.261	
137.00	-40.740	156.708	
138.00	-40.533	158.723	
139.00	-40.310	-178.261	
140.00	-40.069	-167.148	
141.00	-39.872	-152.915	
142.00	-39.634	-135.917	
143.00	-39.455	-127.818	
144.00	-39.284	-114.190	
145.00	-39.059	-104.137	
146.00	-38.912	-98.409	
147.00	-38.731	-80.767	
148.00	-38.588	-81.536	
149.00	-38.455	-64.936	
150.00	-38.297	-61.587	
151.00	-38.228	-40.270	
152.00	-38.078	-30.636	
153.00	-37.983	-24.405	
154.00	-37.855	-19.570	
155.00	-37.769	-17.680	
156.00	-37.669	-11.307	
157.00	-37.580	8.262	
158.00	-37.468	11.146	
159.00	-37.379	24.647	
160.00	-37.281	21.794	
161.00	-37.211	36.542	
162.00	-37.101	33.613	
163.00	-37.008	40.052	
164.00	-36.875	45.960	
165.00	-36.752	41.840	
166.00	-36.614	50.616	
167.00	-36.467	44.401	
168.00	-36.363	51.588	
169.00	-36.223	47.369	
170.00	-36.076	46.237	
171.00	-35.943	47.129	
172.00	-35.809	41.929	
173.00	-35.682	55.702	
174.00	-35.547	43.005	
175.00	-35.466	52.220	
176.00	-35.374	42.622	
177.00	-35.279	36.921	
178.00	-35.238	40.487	
179.00	-35.175	19.822	
180.00	-35.193	36.913	
181.00	-35.190	21.584	
182.00	-35.181	21.555	
183.00	-35.207	17.484	
184.00	-35.244	4.984	
185.00	-35.297	7.818	
186.00	-35.346	-3.622	
187.00	-35.448	-9.333	
188.00	-35.491	-23.164	
189.00	-35.590	-21.382	
190.00	-35.661	-33.126	
191.00	-35.755	-34.482	
192.00	-35.819	-46.707	
193.00	-35.917	-55.942	
194.00	-35.995	-65.388	
195.00	-36.062	-76.085	
196.00	-36.148	-88.008	
197.00	-36.220	-97.514	
198.00	-36.295	-110.224	
199.00	-36.386	-118.256	
200.00	-36.494	-132.140	
201.00	-36.579	-144.357	
202.00	-36.712	-156.712	
203.00	-36.812	-172.059	
204.00	-36.950	177.384	
205.00	-37.094	159.443	
206.00	-37.249	149.406	
207.00	-37.412	131.843	
208.00	-37.596	120.730	
209.00	-37.785	102.487	
210.00	-37.971	88.105	
211.00	-38.158	68.323	
212.00	-38.356	51.594	
213.00	-38.582	34.782	
214.00	-38.798	8.664	
215.00	-38.983	-9.266	
216.00	-39.267	-25.529	
217.00	-39.503	-58.661	
218.00	-39.703	-75.056	
219.00	-40.036	-84.240	
220.00	-40.237	-118.992	
221.00	-40.480	-129.360	
222.00	-40.777	-159.392	
223.00	-40.978	-177.617	
224.00	-41.233	160.079	
225.00	-41.451	141.772	
226.00	-41.689	117.323	
227.00	-41.836	94.467	
228.00	-42.055	72.912	
229.00	-42.279	49.591	
230.00	-42.462	30.323	
231.00	-42.658	7.598	
232.00	-42.878	-13.512	
233.00	-43.051	-39.926	
234.00	-43.295	-63.656	
235.00	-43.472	-86.142	
236.00	-43.717	-106.188	
237.00	-43.944	-126.663	
238.00	-44.237	-149.739	
239.00	-44.452	-177.413	
240.00	-44.767	159.309	
241.00	-45.056	129.900	
242.00	-45.309	105.283	
243.00	-45.593	75.677	
244.00	-45.823	48.511	
245.00	-46.106	24.557	
246.00	-46.347	-4.134	
247.00	-46.657	-28.286	
248.00	-46.972	-56.435	
249.00	-47.282	-81.943	
250.00	-47.740	-106.477	
251.00	-48.079	-136.631	
252.00	-48.479	-159.430	
253.00	-48.878	169.837	
254.00	-49.174	143.000	
255.00	-49.374	115.492	
256.00	-49.677	91.261	
257.00	-49.804	64.993	
258.00	-49.930	38.833	
259.00	-50.080	11.259	
260.00	-50.376	-14.019	
261.00	-50.577	-43.332	
262.00	-51.047	-68.449	
263.00	-51.519	-94.920	
264.00	-52.028	-120.189	
265.00	-52.611	-146.062	
266.00	-53.145	-175.317	
267.00	-53.551	152.688	
268.00	-53.963	122.325	
269.00	-54.248	89.810	
270.00	-54.455	58.624	
271.00	-54.729	28.852	
272.00	-55.201	1.805	
273.00	-55.608	-27.425	
274.00	-56.288	-53.691	
275.00	-57.130	-79.895	
276.00	-57.998	-105.232	
277.00	-59.270	-133.528	
278.00	-60.511	-159.026	
279.00	-61.739	175.925	
280.00	-63.023	138.523	
281.00	-64.050	112.442	
282.00	-64.824	74.419	
283.00	-64.642	43.409	
284.00	-65.508	14.805	
285.00	-65.192	-14.550	
286.00	-65.258	-45.553	
287.00	-65.810	-75.771	
288.00	-66.211	-101.680	
289.00	-66.826	-129.598	
290.00	-67.917	-162.172	
291.00	-68.619	161.647	
292.00	-69.222	124.824	
293.00	-69.236	90.237	
294.00	-69.333	57.751	
295.00	-68.130	20.222	
296.00	-67.814	-3.781	
297.00	-67.677	-27.546	
298.00	-68.168	-52.335	
299.00	-68.248	-73.031	
300.00	-68.858	-99.824	
301.00	-69.443	-128.405	
302.00	-71.312	-149.605	
303.00	-71.738	-173.061	
304.00	-73.511	150.733	
305.00	-74.177	127.001	
306.00	-73.793	90.798	
307.00	-73.987	66.212	
308.00	-73.984	34.504	
309.00	-72.281	16.321	
310.00	-71.922	-5.627	
311.00	-71.584	-20.340	
312.00	-71.416	-39.095	
313.00	-72.255	-39.047	
314.00	-71.391	-50.793	
315.00	-71.847	-68.625	
316.00	-72.648	-81.335	
317.00	-72.608	-89.508	
318.00	-73.669	-90.457	
319.00	-73.004	-95.254	
320.00	-74.788	-101.940	
321.00	-77.552	-108.078	
322.00	-78.946	-113.662	
323.00	-81.408	-141.560	
324.00	-89.847	156.436	
325.00	-88.487	90.462	
326.00	-85.443	66.089	
327.00	-80.415	51.537	
328.00	-78.668	40.490	
329.00	-77.216	26.359	
330.00	-76.012	13.065	
331.00	-74.572	4.552	
332.00	-75.189	-15.910	
333.00	-75.230	-24.377	
334.00	-74.669	-25.474	
335.00	-76.368	-54.350	
336.00	-76.453	-65.955	
337.00	-77.844	-76.250	
338.00	-79.827	-92.491	
339.00	-78.372	-102.273	
340.00	-78.063	-111.944	
341.00	-78.410	-112.476	
342.00	-81.677	-121.201	
343.00	-80.516	-120.299	
344.00	-82.334	-115.991	
345.00	-87.316	-117.067	
346.00	-84.639	-73.976	
347.00	-81.251	-47.725	
348.00	-82.850	-43.944	
349.00	-80.963	-34.174	
350.00	-80.980	-7.274	
351.00	-80.421	-18.229	
352.00	-79.025	-7.357	
353.00	-79.656	9.968	
354.00	-79.076	13.813	
355.00	-77.947	33.011	
356.00	-79.032	34.208	
357.00	-77.713	42.241	
358.00	-79.294	45.124	
359.00	-79.111	55.616	
Frequency	3500.00	MHz	
Channel	test		
Scan Axis name	Azimuth  [deg]		
Scan Axis	Amplitude	Phase	
			
0.00	-80.596	-168.235	
1.00	-80.107	-144.244	
2.00	-78.958	-150.170	
3.00	-76.854	-131.850	
4.00	-79.121	-144.269	
5.00	-80.140	-131.982	
6.00	-78.925	-125.369	
7.00	-83.251	-105.047	
8.00	-82.021	-96.625	
9.00	-89.692	-63.203	
10.00	-94.204	-11.620	
11.00	-84.229	69.787	
12.00	-78.722	38.249	
13.00	-77.068	46.204	
14.00	-74.307	55.914	
15.00	-73.323	62.739	
16.00	-73.053	73.583	
17.00	-73.651	76.475	
18.00	-72.109	82.457	
19.00	-72.434	85.285	
20.00	-74.187	95.368	
21.00	-74.155	102.335	
22.00	-75.848	102.443	
23.00	-78.438	119.439	
24.00	-80.024	134.028	
25.00	-82.920	126.417	
26.00	-83.900	100.343	
27.00	-87.623	78.416	
28.00	-86.190	10.227	
29.00	-83.461	-6.862	
30.00	-83.869	-11.388	
31.00	-85.438	23.220	
32.00	-85.738	34.840	
33.00	-84.203	33.655	
34.00	-82.098	54.911	
35.00	-80.279	47.320	
36.00	-81.833	28.216	
37.00	-78.745	20.824	
38.00	-78.996	25.664	
39.00	-77.207	9.106	
40.00	-75.234	19.659	
41.00	-72.410	10.162	
42.00	-69.689	19.485	
43.00	-69.915	33.494	
44.00	-69.004	45.284	
45.00	-67.976	59.922	
46.00	-68.195	83.768	
47.00	-67.650	99.306	
48.00	-67.501	124.355	
49.00	-68.165	137.003	
50.00	-68.891	157.457	
51.00	-71.544	-170.220	
52.00	-72.273	-151.562	
53.00	-72.842	-126.071	
54.00	-73.885	-88.894	
55.00	-74.150	-87.679	
56.00	-73.552	-43.040	
57.00	-72.722	-29.173	
58.00	-73.304	16.294	
59.00	-74.919	41.539	
60.00	-76.528	74.083	
61.00	-79.335	112.457	
62.00	-82.928	123.223	
63.00	-82.902	-99.174	
64.00	-77.425	-77.491	
65.00	-71.849	-35.015	
66.00	-69.431	-12.174	
67.00	-68.242	9.956	
68.00	-66.808	41.018	
69.00	-65.651	62.049	
70.00	-65.056	91.424	
71.00	-64.377	113.062	
72.00	-63.276	140.358	
73.00	-62.669	168.585	
74.00	-62.446	-161.542	
75.00	-62.287	-128.330	
76.00	-61.598	-98.147	
77.00	-61.300	-61.474	
78.00	-60.264	-32.851	
79.00	-59.519	-4.700	
80.00	-58.487	24.409	
81.00	-57.980	41.733	
82.00	-57.431	67.118	
83.00	-56.870	91.934	
84.00	-56.907	113.125	
85.00	-56.505	144.361	
86.00	-56.386	171.967	
87.00	-56.022	-149.920	
88.00	-55.946	-131.864	
89.00	-55.805	-90.291	
90.00	-55.409	-79.264	
91.00	-54.935	-37.104	
92.00	-54.309	-16.449	
93.00	-53.839	19.458	
94.00	-53.370	36.814	
95.00	-53.068	60.664	
96.00	-52.591	94.440	
97.00	-52.591	109.451	
98.00	-52.338	149.204	
99.00	-51.979	163.035	
100.00	-51.653	-161.681	
101.00	-51.335	-138.024	
102.00	-50.928	-107.645	
103.00	-50.549	-82.951	
104.00	-49.992	-53.293	
105.00	-49.676	-28.067	
106.00	-49.128	2.009	
107.00	-48.786	21.676	
108.00	-48.529	50.457	
109.00	-48.334	73.752	
110.00	-48.116	96.265	
111.00	-47.885	117.259	
112.00	-47.734	133.885	
113.00	-47.533	165.435	
114.00	-47.332	-172.192	
115.00	-47.129	-145.433	
116.00	-46.833	-122.207	
117.00	-46.691	-103.173	
118.00	-46.505	-80.976	
119.00	-46.255	-59.033	
120.00	-46.030	-39.718	
121.00	-45.787	-18.270	
122.00	-45.539	6.720	
123.00	-45.182	23.137	
124.00	-44.915	43.637	
125.00	-44.618	65.733	
126.00	-44.392	86.610	
127.00	-44.202	108.043	
128.00	-43.952	126.473	
129.00	-43.714	141.204	
130.00	-43.552	158.368	
131.00	-43.311	-179.848	
132.00	-43.137	-158.986	
133.00	-42.858	-144.359	
134.00	-42.641	-124.464	
135.00	-42.370	-111.238	
136.00	-42.120	-96.054	
137.00	-41.803	-72.275	
138.00	-41.549	-70.274	
139.00	-41.275	-46.052	
140.00	-40.957	-35.106	
141.00	-40.716	-19.698	
142.00	-40.432	-2.418	
143.00	-40.159	6.055	
144.00	-39.923	20.662	
145.00	-39.669	30.739	
146.00	-39.472	37.582	
147.00	-39.237	55.871	
148.00	-39.062	55.632	
149.00	-38.846	73.083	
150.00	-38.679	76.958	
151.00	-38.545	99.705	
152.00	-38.365	109.413	
153.00	-38.245	116.246	
154.00	-38.086	121.395	
155.00	-37.996	124.177	
156.00	-37.897	131.273	
157.00	-37.801	151.275	
158.00	-37.685	154.526	
159.00	-37.590	168.576	
160.00	-37.516	165.880	
161.00	-37.438	-178.710	
162.00	-37.357	178.013	
163.00	-37.281	-174.614	
164.00	-37.164	-168.997	
165.00	-37.076	-173.005	
166.00	-36.974	-164.040	
167.00	-36.879	-170.693	
168.00	-36.772	-163.002	
169.00	-36.672	-168.008	
170.00	-36.558	-168.898	
171.00	-36.442	-168.911	
172.00	-36.346	-173.730	
173.00	-36.213	-160.803	
174.00	-36.083	-173.970	
175.00	-35.984	-164.904	
176.00	-35.888	-175.755	
177.00	-35.772	178.485	
178.00	-35.689	-178.666	
179.00	-35.581	159.754	
180.00	-35.543	177.300	
181.00	-35.478	160.307	
182.00	-35.422	160.676	
183.00	-35.392	155.554	
184.00	-35.340	142.703	
185.00	-35.324	145.509	
186.00	-35.315	133.571	
187.00	-35.314	127.493	
188.00	-35.296	113.816	
189.00	-35.302	115.386	
190.00	-35.309	103.780	
191.00	-35.356	102.471	
192.00	-35.399	90.373	
193.00	-35.458	81.273	
194.00	-35.513	72.068	
195.00	-35.608	61.539	
196.00	-35.706	49.816	
197.00	-35.829	40.331	
198.00	-35.939	27.712	
199.00	-36.096	19.888	
200.00	-36.260	5.558	
201.00	-36.422	-6.602	
202.00	-36.622	-19.398	
203.00	-36.794	-34.871	
204.00	-37.032	-45.961	
205.00	-37.218	-64.462	
206.00	-37.440	-74.757	
207.00	-37.668	-93.147	
208.00	-37.885	-104.684	
209.00	-38.117	-123.577	
210.00	-38.309	-138.422	
211.00	-38.546	-158.923	
212.00	-38.793	-176.274	
213.00	-39.033	166.245	
214.00	-39.258	139.323	
215.00	-39.412	121.050	
216.00	-39.736	103.705	
217.00	-39.927	69.682	
218.00	-40.065	53.703	
219.00	-40.404	43.723	
220.00	-40.580	8.895	
221.00	-40.771	-1.502	
222.00	-41.088	-32.104	
223.00	-41.309	-50.011	
224.00	-41.565	-72.679	
225.00	-41.779	-90.707	
226.00	-42.063	-115.533	
227.00	-42.255	-138.651	
228.00	-42.511	-160.019	
229.00	-42.746	176.812	
230.00	-42.961	156.954	
231.00	-43.179	134.611	
232.00	-43.464	112.982	
233.00	-43.763	87.079	
234.00	-44.147	63.398	
235.00	-44.480	40.790	
236.00	-44.943	19.334	
237.00	-45.256	-1.461	
238.00	-45.635	-26.032	
239.00	-45.919	-54.671	
240.00	-46.255	-79.298	
241.00	-46.618	-109.592	
242.00	-46.829	-135.036	
243.00	-47.048	-165.916	
244.00	-47.276	166.090	
245.00	-47.529	141.916	
246.00	-47.759	112.158	
247.00	-47.981	87.993	
248.00	-48.319	58.917	
249.00	-48.689	33.093	
250.00	-48.979	8.345	
251.00	-49.447	-22.576	
252.00	-49.830	-46.523	
253.00	-50.111	-77.336	
254.00	-50.457	-104.793	
255.00	-50.637	-132.830	
256.00	-50.879	-157.637	
257.00	-51.114	176.275	
258.00	-51.299	148.230	
259.00	-51.437	120.816	
260.00	-51.733	95.032	
261.00	-52.055	65.691	
262.00	-52.527	39.352	
263.00	-52.913	12.517	
264.00	-53.580	-13.618	
265.00	-54.269	-40.444	
266.00	-54.941	-70.647	
267.00	-55.361	-104.591	
268.00	-55.721	-138.236	
269.00	-55.755	-173.530	
270.00	-55.832	154.301	
271.00	-55.898	123.112	
272.00	-55.973	95.667	
273.00	-56.163	66.634	
274.00	-56.732	38.898	
275.00	-57.283	13.882	
276.00	-58.114	-10.120	
277.00	-59.314	-38.746	
278.00	-60.682	-64.664	
279.00	-61.626	-88.744	
280.00	-62.659	-126.080	
281.00	-63.725	-155.339	
282.00	-64.257	170.592	
283.00	-64.873	143.134	
284.00	-64.715	111.200	
285.00	-65.494	83.296	
286.00	-66.434	48.967	
287.00	-67.362	20.850	
288.00	-68.101	-12.982	
289.00	-69.116	-50.665	
290.00	-69.457	-94.504	
291.00	-68.209	-136.044	
292.00	-67.364	-166.267	
293.00	-66.018	163.184	
294.00	-65.324	138.629	
295.00	-64.822	103.870	
296.00	-64.950	80.990	
297.00	-65.022	59.264	
298.00	-65.492	35.007	
299.00	-65.790	11.752	
300.00	-67.037	-10.849	
301.00	-67.498	-40.214	
302.00	-68.241	-70.050	
303.00	-68.879	-93.215	
304.00	-70.134	-120.897	
305.00	-69.905	-153.945	
306.00	-70.733	178.740	
307.00	-70.829	152.136	
308.00	-70.656	123.475	
309.00	-71.114	94.206	
310.00	-71.774	65.500	
311.00	-70.348	51.190	
312.00	-70.451	19.113	
313.00	-70.867	6.455	
314.00	-70.490	-18.982	
315.00	-71.063	-46.275	
316.00	-71.901	-68.922	
317.00	-72.846	-89.404	
318.00	-73.284	-95.624	
319.00	-75.590	-117.126	
320.00	-75.936	-141.607	
321.00	-78.363	179.307	
322.00	-77.403	163.883	
323.00	-76.250	123.148	
324.00	-77.745	116.824	
325.00	-76.103	83.156	
326.00	-75.016	75.795	
327.00	-75.725	52.731	
328.00	-74.663	45.287	
329.00	-77.700	11.183	
330.00	-78.878	8.245	
331.00	-78.815	-16.283	
332.00	-80.639	-32.988	
333.00	-80.257	-59.211	
334.00	-83.112	-77.204	
335.00	-80.509	-121.005	
336.00	-81.547	-162.465	
337.00	-78.764	173.477	
338.00	-77.427	152.673	
339.00	-76.070	133.967	
340.00	-75.219	122.778	
341.00	-74.457	118.774	
342.00	-73.166	106.401	
343.00	-72.439	91.842	
344.00	-71.192	88.244	
345.00	-71.032	83.115	
346.00	-71.052	77.622	
347.00	-70.884	68.562	
348.00	-70.543	61.733	
349.00	-71.063	63.251	
350.00	-71.473	58.604	
351.00	-72.927	55.819	
352.00	-74.050	54.209	
353.00	-76.376	67.802	
354.00	-77.417	66.329	
355.00	-77.664	75.600	
356.00	-79.592	106.214	
357.00	-85.638	101.907	
358.00	-78.124	125.295	
359.00	-79.450	143.730	
Frequency	3550.00	MHz	
Channel	test		
Scan Axis name	Azimuth  [deg]		
Scan Axis	Amplitude	Phase	
			
0.00	-74.053	137.995	
1.00	-75.261	139.293	
2.00	-77.350	142.223	
3.00	-81.343	157.927	
4.00	-83.938	-159.120	
5.00	-80.963	-144.812	
6.00	-80.487	-116.943	
7.00	-76.583	-95.586	
8.00	-74.923	-103.056	
9.00	-73.389	-94.760	
10.00	-72.252	-97.792	
11.00	-71.798	-85.646	
12.00	-71.030	-92.338	
13.00	-70.431	-81.221	
14.00	-69.904	-84.287	
15.00	-70.993	-67.308	
16.00	-71.038	-62.525	
17.00	-71.755	-48.767	
18.00	-72.806	-33.241	
19.00	-72.848	-26.300	
20.00	-75.233	-4.562	
21.00	-76.524	-4.930	
22.00	-76.831	49.069	
23.00	-77.627	69.077	
24.00	-75.732	110.445	
25.00	-73.777	125.056	
26.00	-72.496	144.267	
27.00	-71.234	152.529	
28.00	-71.003	169.418	
29.00	-70.574	172.753	
30.00	-70.237	-166.464	
31.00	-68.822	-155.989	
32.00	-69.127	-143.719	
33.00	-69.121	-124.795	
34.00	-69.063	-109.399	
35.00	-68.945	-79.186	
36.00	-69.195	-58.234	
37.00	-68.936	-32.407	
38.00	-68.233	-15.032	
39.00	-67.159	20.048	
40.00	-66.363	37.214	
41.00	-65.184	62.028	
42.00	-64.213	84.394	
43.00	-63.609	103.628	
44.00	-63.115	122.054	
45.00	-62.569	142.511	
46.00	-62.260	171.378	
47.00	-62.420	-164.767	
48.00	-62.641	-134.800	
49.00	-62.814	-113.153	
50.00	-63.221	-89.649	
51.00	-63.415	-57.115	
52.00	-63.792	-32.347	
53.00	-63.916	-1.383	
54.00	-63.407	25.897	
55.00	-63.205	33.106	
56.00	-63.019	62.178	
57.00	-63.111	83.778	
58.00	-62.405	116.182	
59.00	-62.652	135.803	
60.00	-62.747	164.703	
61.00	-63.223	-157.360	
62.00	-63.680	-135.081	
63.00	-64.413	-92.754	
64.00	-64.601	-64.990	
65.00	-65.050	-29.823	
66.00	-65.053	2.943	
67.00	-64.524	30.361	
68.00	-64.751	67.376	
69.00	-64.330	97.771	
70.00	-64.108	132.057	
71.00	-63.608	158.698	
72.00	-63.834	-172.068	
73.00	-63.657	-137.751	
74.00	-63.923	-104.405	
75.00	-63.612	-70.112	
76.00	-63.320	-37.795	
77.00	-63.093	0.414	
78.00	-62.722	31.838	
79.00	-62.116	64.016	
80.00	-61.510	96.119	
81.00	-60.720	115.749	
82.00	-60.170	144.083	
83.00	-59.641	173.755	
84.00	-59.612	-162.653	
85.00	-59.238	-130.309	
86.00	-59.257	-101.735	
87.00	-59.081	-60.829	
88.00	-58.792	-39.171	
89.00	-58.152	4.144	
90.00	-57.658	15.324	
91.00	-56.992	58.686	
92.00	-56.422	79.408	
93.00	-55.630	116.070	
94.00	-55.176	133.622	
95.00	-54.826	158.880	
96.00	-54.272	-169.199	
97.00	-54.064	-153.572	
98.00	-53.882	-114.639	
99.00	-53.725	-99.307	
100.00	-53.616	-64.252	
101.00	-53.251	-39.489	
102.00	-52.965	-8.540	
103.00	-52.724	17.756	
104.00	-52.204	48.309	
105.00	-51.939	76.390	
106.00	-51.350	107.690	
107.00	-50.946	129.544	
108.00	-50.527	159.400	
109.00	-50.187	-175.918	
110.00	-49.869	-153.071	
111.00	-49.481	-130.919	
112.00	-49.198	-113.606	
113.00	-48.996	-80.264	
114.00	-48.732	-56.792	
115.00	-48.532	-28.461	
116.00	-48.157	-3.773	
117.00	-47.852	16.624	
118.00	-47.517	40.527	
119.00	-47.118	63.844	
120.00	-46.731	83.800	
121.00	-46.388	107.060	
122.00	-45.994	133.018	
123.00	-45.592	151.011	
124.00	-45.222	172.759	
125.00	-44.888	-163.695	
126.00	-44.573	-141.198	
127.00	-44.261	-118.291	
128.00	-43.934	-98.592	
129.00	-43.627	-82.441	
130.00	-43.349	-63.660	
131.00	-43.035	-41.216	
132.00	-42.776	-19.101	
133.00	-42.454	-4.037	
134.00	-42.196	16.862	
135.00	-41.881	30.683	
136.00	-41.678	46.732	
137.00	-41.328	70.364	
138.00	-41.086	72.607	
139.00	-40.864	97.308	
140.00	-40.578	108.114	
141.00	-40.366	123.677	
142.00	-40.136	140.803	
143.00	-39.945	148.992	
144.00	-39.758	163.855	
145.00	-39.537	173.083	
146.00	-39.395	179.980	
147.00	-39.212	-162.335	
148.00	-39.039	-162.812	
149.00	-38.849	-145.865	
150.00	-38.692	-142.601	
151.00	-38.561	-119.704	
152.00	-38.381	-111.166	
153.00	-38.254	-104.376	
154.00	-38.070	-99.978	
155.00	-37.927	-97.879	
156.00	-37.810	-90.764	
157.00	-37.666	-71.174	
158.00	-37.507	-68.301	
159.00	-37.376	-54.524	
160.00	-37.235	-57.722	
161.00	-37.124	-41.969	
162.00	-36.968	-45.932	
163.00	-36.866	-38.202	
164.00	-36.735	-33.044	
165.00	-36.599	-36.826	
166.00	-36.485	-27.922	
167.00	-36.361	-34.839	
168.00	-36.248	-26.614	
169.00	-36.148	-32.360	
170.00	-36.026	-32.525	
171.00	-35.918	-33.301	
172.00	-35.828	-37.254	
173.00	-35.682	-24.805	
174.00	-35.579	-37.842	
175.00	-35.482	-28.502	
176.00	-35.396	-39.931	
177.00	-35.287	-45.106	
178.00	-35.217	-42.665	
179.00	-35.138	-64.243	
180.00	-35.088	-45.935	
181.00	-35.057	-63.835	
182.00	-34.990	-62.558	
183.00	-34.984	-68.115	
184.00	-34.967	-80.761	
185.00	-34.950	-77.572	
186.00	-34.960	-89.437	
187.00	-35.005	-95.987	
188.00	-35.010	-108.874	
189.00	-35.062	-107.508	
190.00	-35.123	-118.920	
191.00	-35.215	-120.360	
192.00	-35.269	-132.469	
193.00	-35.380	-141.854	
194.00	-35.486	-150.875	
195.00	-35.592	-162.004	
196.00	-35.708	-173.666	
197.00	-35.822	176.525	
198.00	-35.957	163.645	
199.00	-36.094	155.667	
200.00	-36.253	141.091	
201.00	-36.382	129.000	
202.00	-36.578	115.896	
203.00	-36.761	100.551	
204.00	-36.937	89.439	
205.00	-37.136	70.877	
206.00	-37.317	60.642	
207.00	-37.514	42.396	
208.00	-37.725	31.023	
209.00	-37.948	12.106	
210.00	-38.153	-2.643	
211.00	-38.385	-23.063	
212.00	-38.626	-40.182	
213.00	-38.854	-57.529	
214.00	-39.101	-84.641	
215.00	-39.293	-102.273	
216.00	-39.593	-119.531	
217.00	-39.834	-153.815	
218.00	-40.058	-168.728	
219.00	-40.406	-179.462	
220.00	-40.658	146.082	
221.00	-40.960	135.801	
222.00	-41.337	104.979	
223.00	-41.680	87.486	
224.00	-42.019	64.385	
225.00	-42.355	45.983	
226.00	-42.708	20.241	
227.00	-43.028	-3.145	
228.00	-43.346	-25.442	
229.00	-43.655	-49.812	
230.00	-43.898	-70.120	
231.00	-44.189	-93.392	
232.00	-44.500	-115.989	
233.00	-44.720	-143.142	
234.00	-45.047	-168.098	
235.00	-45.315	168.965	
236.00	-45.631	147.526	
237.00	-46.004	126.151	
238.00	-46.275	101.037	
239.00	-46.655	71.904	
240.00	-46.976	46.958	
241.00	-47.262	15.932	
242.00	-47.565	-10.238	
243.00	-47.728	-41.996	
244.00	-47.840	-70.548	
245.00	-48.061	-96.215	
246.00	-48.177	-125.869	
247.00	-48.329	-151.118	
248.00	-48.563	179.843	
249.00	-48.710	154.236	
250.00	-49.007	128.532	
251.00	-49.393	98.629	
252.00	-49.725	74.681	
253.00	-50.039	43.733	
254.00	-50.442	16.405	
255.00	-50.603	-11.028	
256.00	-50.841	-36.643	
257.00	-50.915	-62.858	
258.00	-51.108	-90.653	
259.00	-51.228	-117.699	
260.00	-51.383	-144.290	
261.00	-51.588	-173.639	
262.00	-52.035	160.494	
263.00	-52.364	134.406	
264.00	-52.876	109.446	
265.00	-53.366	84.096	
266.00	-53.929	56.155	
267.00	-54.595	24.643	
268.00	-55.220	-5.460	
269.00	-55.735	-37.620	
270.00	-56.264	-69.670	
271.00	-56.808	-100.492	
272.00	-57.540	-128.652	
273.00	-58.024	-159.887	
274.00	-58.888	172.318	
275.00	-59.594	145.705	
276.00	-60.599	119.538	
277.00	-61.564	90.961	
278.00	-62.629	66.237	
279.00	-63.673	46.108	
280.00	-65.137	13.123	
281.00	-66.581	-10.095	
282.00	-68.119	-40.944	
283.00	-69.239	-67.261	
284.00	-70.242	-92.274	
285.00	-71.709	-120.304	
286.00	-72.703	-142.600	
287.00	-75.264	-158.175	
288.00	-77.001	-174.400	
289.00	-79.574	-167.321	
290.00	-79.559	-142.134	
291.00	-77.043	-153.375	
292.00	-74.410	-166.637	
293.00	-73.285	-177.023	
294.00	-72.890	161.928	
295.00	-72.649	137.119	
296.00	-71.528	116.512	
297.00	-73.427	90.669	
298.00	-72.481	62.903	
299.00	-73.035	35.608	
300.00	-72.262	7.016	
301.00	-73.215	-32.379	
302.00	-71.395	-60.165	
303.00	-70.845	-78.975	
304.00	-70.381	-104.662	
305.00	-70.017	-123.787	
306.00	-70.560	-145.922	
307.00	-70.781	-161.433	
308.00	-71.314	175.709	
309.00	-72.012	162.695	
310.00	-74.626	139.474	
311.00	-74.722	125.738	
312.00	-77.064	102.618	
313.00	-82.379	87.344	
314.00	-85.037	60.633	
315.00	-87.859	33.969	
316.00	-88.819	-32.182	
317.00	-87.206	-26.527	
318.00	-87.967	-42.221	
319.00	-87.960	-81.268	
320.00	-84.823	-81.301	
321.00	-84.388	-88.709	
322.00	-82.598	-86.601	
323.00	-78.503	-112.416	
324.00	-77.271	-113.810	
325.00	-75.214	-120.128	
326.00	-74.626	-132.824	
327.00	-74.264	-150.627	
328.00	-74.313	-163.599	
329.00	-74.571	-174.586	
330.00	-74.693	165.899	
331.00	-75.504	151.527	
332.00	-76.961	114.276	
333.00	-77.124	90.052	
334.00	-76.976	76.565	
335.00	-75.886	44.030	
336.00	-74.436	23.908	
337.00	-73.078	-1.639	
338.00	-72.101	-26.317	
339.00	-72.010	-30.072	
340.00	-70.891	-48.908	
341.00	-71.201	-61.879	
342.00	-71.396	-73.818	
343.00	-71.216	-85.069	
344.00	-71.547	-99.182	
345.00	-70.420	-116.461	
346.00	-71.208	-131.404	
347.00	-70.639	-147.659	
348.00	-71.379	-164.045	
349.00	-70.456	-174.165	
350.00	-71.104	173.298	
351.00	-71.204	163.368	
352.00	-70.709	146.886	
353.00	-70.078	147.396	
354.00	-70.141	140.320	
355.00	-70.682	133.129	
356.00	-70.862	124.476	
357.00	-71.598	123.607	
358.00	-72.010	125.413	
359.00	-72.369	116.584	
Frequency	3600.00	MHz	
Channel	test		
Scan Axis name	Azimuth  [deg]		
Scan Axis	Amplitude	Phase	
			
0.00	-80.219	142.990	
1.00	-79.254	146.702	
2.00	-82.005	135.316	
3.00	-85.897	135.710	
4.00	-83.895	139.455	
5.00	-92.455	125.934	
6.00	-101.924	34.387	
7.00	-85.238	-24.921	
8.00	-85.096	-50.812	
9.00	-78.751	-48.437	
10.00	-75.902	-51.674	
11.00	-74.708	-47.532	
12.00	-72.860	-55.864	
13.00	-72.830	-45.926	
14.00	-72.812	-43.097	
15.00	-71.516	-35.525	
16.00	-72.233	-22.153	
17.00	-72.402	-11.480	
18.00	-73.658	2.465	
19.00	-73.747	8.006	
20.00	-73.943	34.303	
21.00	-75.115	37.533	
22.00	-75.155	58.230	
23.00	-77.846	73.381	
24.00	-79.635	95.793	
25.00	-82.088	132.414	
26.00	-83.432	179.813	
27.00	-79.181	-159.985	
28.00	-78.785	-124.221	
29.00	-78.024	-122.226	
30.00	-73.917	-87.999	
31.00	-73.248	-87.405	
32.00	-70.939	-68.219	
33.00	-70.798	-52.480	
34.00	-69.804	-40.254	
35.00	-69.783	-17.770	
36.00	-70.219	-2.113	
37.00	-70.252	18.646	
38.00	-70.298	42.860	
39.00	-69.681	70.591	
40.00	-69.162	91.353	
41.00	-68.726	121.234	
42.00	-68.796	151.484	
43.00	-67.670	173.823	
44.00	-67.459	-164.592	
45.00	-67.227	-142.698	
46.00	-66.892	-109.457	
47.00	-66.256	-85.046	
48.00	-66.292	-55.133	
49.00	-66.476	-31.073	
50.00	-66.488	-7.507	
51.00	-66.890	22.807	
52.00	-66.763	43.548	
53.00	-67.271	75.673	
54.00	-67.394	101.016	
55.00	-67.744	98.936	
56.00	-68.798	131.876	
57.00	-69.536	155.271	
58.00	-70.832	-162.807	
59.00	-70.808	-139.425	
60.00	-72.313	-100.595	
61.00	-72.377	-58.914	
62.00	-72.990	-21.179	
63.00	-73.513	24.042	
64.00	-73.494	58.301	
65.00	-72.895	102.155	
66.00	-72.484	143.661	
67.00	-70.494	171.524	
68.00	-69.393	-150.959	
69.00	-68.338	-120.307	
70.00	-67.388	-90.116	
71.00	-66.872	-64.405	
72.00	-66.413	-35.202	
73.00	-66.549	-3.144	
74.00	-66.093	29.912	
75.00	-65.832	66.137	
76.00	-65.314	93.834	
77.00	-64.863	133.829	
78.00	-64.190	162.537	
79.00	-63.432	-167.261	
80.00	-62.658	-133.962	
81.00	-62.258	-115.166	
82.00	-61.860	-86.393	
83.00	-61.308	-59.207	
84.00	-60.968	-35.034	
85.00	-60.545	-2.907	
86.00	-60.513	26.547	
87.00	-60.196	65.071	
88.00	-60.052	85.281	
89.00	-59.798	125.486	
90.00	-59.748	138.631	
91.00	-59.273	-176.895	
92.00	-58.804	-155.457	
93.00	-58.235	-116.932	
94.00	-57.743	-98.912	
95.00	-57.681	-71.088	
96.00	-57.024	-37.294	
97.00	-56.892	-19.568	
98.00	-56.600	20.434	
99.00	-56.229	36.383	
100.00	-55.818	72.860	
101.00	-55.455	98.794	
102.00	-55.044	128.997	
103.00	-54.587	155.304	
104.00	-54.059	-174.533	
105.00	-53.634	-147.489	
106.00	-52.995	-116.598	
107.00	-52.546	-95.283	
108.00	-52.183	-65.385	
109.00	-51.748	-40.365	
110.00	-51.374	-17.995	
111.00	-51.002	4.202	
112.00	-50.672	21.528	
113.00	-50.330	55.467	
114.00	-49.867	78.418	
115.00	-49.454	106.790	
116.00	-49.049	129.984	
117.00	-48.569	149.774	
118.00	-48.144	172.794	
119.00	-47.685	-165.060	
120.00	-47.192	-145.802	
121.00	-46.778	-123.612	
122.00	-46.308	-98.067	
123.00	-45.902	-80.761	
124.00	-45.481	-59.390	
125.00	-45.129	-36.735	
126.00	-44.757	-14.307	
127.00	-44.401	8.437	
128.00	-44.017	27.881	
129.00	-43.639	43.646	
130.00	-43.301	62.593	
131.00	-42.902	84.892	
132.00	-42.591	107.115	
133.00	-42.237	121.463	
134.00	-41.940	142.831	
135.00	-41.584	156.028	
136.00	-41.353	172.582	
137.00	-41.009	-164.191	
138.00	-40.755	-161.737	
139.00	-40.492	-136.165	
140.00	-40.214	-125.509	
141.00	-39.995	-109.197	
142.00	-39.767	-91.793	
143.00	-39.521	-83.387	
144.00	-39.370	-67.688	
145.00	-39.147	-58.671	
146.00	-38.990	-51.072	
147.00	-38.810	-33.563	
148.00	-38.625	-33.657	
149.00	-38.465	-16.406	
150.00	-38.319	-13.173	
151.00	-38.191	10.345	
152.00	-38.019	18.288	
153.00	-37.920	25.725	
154.00	-37.765	29.858	
155.00	-37.675	32.221	
156.00	-37.555	39.882	
157.00	-37.415	59.356	
158.00	-37.270	62.232	
159.00	-37.158	76.164	
160.00	-37.003	72.762	
161.00	-36.885	89.149	
162.00	-36.736	84.633	
163.00	-36.611	93.216	
164.00	-36.479	98.034	
165.00	-36.337	94.740	
166.00	-36.209	103.913	
167.00	-36.091	97.020	
168.00	-35.972	105.909	
169.00	-35.865	99.979	
170.00	-35.752	100.697	
171.00	-35.663	99.294	
172.00	-35.563	96.634	
173.00	-35.467	108.607	
174.00	-35.373	95.870	
175.00	-35.306	105.488	
176.00	-35.234	93.477	
177.00	-35.160	88.551	
178.00	-35.117	90.872	
179.00	-35.066	69.050	
180.00	-35.026	87.879	
181.00	-35.020	68.784	
182.00	-34.956	70.625	
183.00	-34.964	64.205	
184.00	-34.944	51.414	
185.00	-34.917	54.548	
186.00	-34.926	42.341	
187.00	-34.971	34.931	
188.00	-34.957	22.494	
189.00	-34.964	23.194	
190.00	-34.982	11.787	
191.00	-35.036	10.083	
192.00	-35.095	-2.218	
193.00	-35.170	-11.949	
194.00	-35.240	-20.955	
195.00	-35.342	-32.491	
196.00	-35.445	-44.078	
197.00	-35.559	-54.281	
198.00	-35.668	-67.282	
199.00	-35.793	-75.355	
200.00	-35.950	-90.336	
201.00	-36.095	-102.572	
202.00	-36.265	-115.967	
203.00	-36.403	-131.620	
204.00	-36.590	-142.971	
205.00	-36.766	-161.884	
206.00	-36.952	-172.271	
207.00	-37.142	169.013	
208.00	-37.334	157.516	
209.00	-37.549	138.102	
210.00	-37.738	123.117	
211.00	-37.951	102.463	
212.00	-38.154	85.068	
213.00	-38.402	67.180	
214.00	-38.641	39.780	
215.00	-38.831	21.754	
216.00	-39.137	3.891	
217.00	-39.343	-31.014	
218.00	-39.532	-45.443	
219.00	-39.885	-57.342	
220.00	-40.061	-91.769	
221.00	-40.355	-102.287	
222.00	-40.640	-133.646	
223.00	-40.927	-150.852	
224.00	-41.273	-174.376	
225.00	-41.559	167.658	
226.00	-41.924	141.626	
227.00	-42.223	118.576	
228.00	-42.568	96.096	
229.00	-42.870	72.279	
230.00	-43.193	51.945	
231.00	-43.514	28.481	
232.00	-43.830	5.631	
233.00	-44.091	-21.396	
234.00	-44.502	-46.744	
235.00	-44.790	-69.070	
236.00	-45.189	-91.028	
237.00	-45.552	-112.156	
238.00	-45.983	-137.632	
239.00	-46.372	-166.558	
240.00	-46.796	168.153	
241.00	-47.143	137.159	
242.00	-47.549	110.649	
243.00	-47.890	78.660	
244.00	-48.159	49.636	
245.00	-48.440	23.348	
246.00	-48.657	-6.949	
247.00	-48.923	-33.225	
248.00	-49.206	-63.539	
249.00	-49.464	-89.720	
250.00	-49.902	-116.345	
251.00	-50.235	-146.847	
252.00	-50.611	-171.243	
253.00	-51.063	156.880	
254.00	-51.538	129.599	
255.00	-51.797	101.836	
256.00	-52.299	74.898	
257.00	-52.586	47.041	
258.00	-52.844	17.381	
259.00	-53.021	-11.882	
260.00	-53.272	-39.630	
261.00	-53.502	-70.311	
262.00	-53.842	-98.206	
263.00	-54.201	-124.694	
264.00	-54.795	-152.875	
265.00	-55.380	-178.800	
266.00	-55.867	149.552	
267.00	-56.211	115.882	
268.00	-56.622	83.510	
269.00	-56.968	49.522	
270.00	-57.271	18.041	
271.00	-57.473	-13.424	
272.00	-58.013	-41.546	
273.00	-58.649	-73.512	
274.00	-59.344	-101.723	
275.00	-60.114	-129.656	
276.00	-61.080	-158.316	
277.00	-61.897	173.742	
278.00	-62.830	147.640	
279.00	-64.072	122.678	
280.00	-65.278	86.895	
281.00	-65.949	61.982	
282.00	-67.267	28.258	
283.00	-68.464	-2.150	
284.00	-69.398	-26.787	
285.00	-71.103	-53.633	
286.00	-72.240	-87.648	
287.00	-75.091	-121.059	
288.00	-77.042	-150.045	
289.00	-80.228	175.055	
290.00	-82.223	112.682	
291.00	-79.896	44.951	
292.00	-77.759	9.592	
293.00	-75.888	-28.851	
294.00	-76.053	-57.287	
295.00	-74.608	-93.701	
296.00	-75.231	-117.550	
297.00	-76.757	-149.256	
298.00	-77.133	-177.099	
299.00	-77.457	139.353	
300.00	-78.156	111.449	
301.00	-77.245	63.550	
302.00	-75.754	42.937	
303.00	-75.125	7.753	
304.00	-75.948	-9.617	
305.00	-78.324	-47.300	
306.00	-77.720	-77.251	
307.00	-78.503	-107.202	
308.00	-80.235	-144.138	
309.00	-80.350	-169.244	
310.00	-79.436	151.322	
311.00	-79.998	125.712	
312.00	-78.967	70.380	
313.00	-78.543	59.792	
314.00	-78.660	18.766	
315.00	-80.478	-4.474	
316.00	-79.743	-26.135	
317.00	-78.910	-57.749	
318.00	-79.341	-84.905	
319.00	-79.875	-111.277	
320.00	-79.655	-142.561	
321.00	-80.578	-163.350	
322.00	-80.992	173.699	
323.00	-78.598	135.884	
324.00	-81.496	112.950	
325.00	-81.805	92.002	
326.00	-81.046	79.650	
327.00	-78.853	31.721	
328.00	-81.343	5.535	
329.00	-80.200	-25.895	
330.00	-80.709	-17.935	
331.00	-80.041	-49.613	
332.00	-81.288	-58.781	
333.00	-85.196	-102.630	
334.00	-84.450	-111.003	
335.00	-86.073	-106.308	
336.00	-92.838	-80.799	
337.00	-96.479	-65.755	
338.00	-88.019	-21.910	
339.00	-81.918	-2.935	
340.00	-79.925	-13.881	
341.00	-76.934	-29.152	
342.00	-76.795	-33.771	
343.00	-73.826	-39.022	
344.00	-72.907	-45.755	
345.00	-72.881	-53.893	
346.00	-73.050	-66.052	
347.00	-72.452	-78.899	
348.00	-72.931	-89.523	
349.00	-73.037	-94.197	
350.00	-74.550	-110.298	
351.00	-74.922	-116.910	
352.00	-75.388	-129.903	
353.00	-75.882	-135.443	
354.00	-77.506	-147.380	
355.00	-76.136	-155.790	
356.00	-78.100	-175.147	
357.00	-78.104	170.822	
358.00	-78.180	153.684	
359.00	-78.139	131.231	
Frequency	3650.00	MHz	
Channel	test		
Scan Axis name	Azimuth  [deg]		
Scan Axis	Amplitude	Phase	
			
0.00	-84.019	173.251	
1.00	-83.451	171.043	
2.00	-79.892	158.887	
3.00	-78.734	163.635	
4.00	-76.907	155.610	
5.00	-77.564	149.351	
6.00	-76.511	150.737	
7.00	-77.430	158.440	
8.00	-80.219	127.857	
9.00	-81.175	141.695	
10.00	-83.377	115.381	
11.00	-82.764	97.631	
12.00	-84.700	66.071	
13.00	-83.241	76.360	
14.00	-80.241	56.349	
15.00	-78.424	60.706	
16.00	-78.262	55.502	
17.00	-76.579	81.650	
18.00	-75.688	83.767	
19.00	-75.963	84.908	
20.00	-76.511	93.688	
21.00	-75.303	89.393	
22.00	-75.929	101.231	
23.00	-76.982	105.512	
24.00	-77.328	109.210	
25.00	-80.067	120.315	
26.00	-81.121	121.218	
27.00	-80.330	89.481	
28.00	-83.769	93.613	
29.00	-82.634	80.877	
30.00	-78.327	76.238	
31.00	-76.803	75.164	
32.00	-74.910	76.387	
33.00	-74.262	90.463	
34.00	-72.858	103.164	
35.00	-73.445	119.708	
36.00	-72.343	141.784	
37.00	-71.572	151.245	
38.00	-71.107	164.693	
39.00	-70.455	-166.720	
40.00	-69.574	-158.496	
41.00	-69.628	-134.010	
42.00	-70.291	-106.874	
43.00	-71.034	-84.059	
44.00	-70.187	-55.421	
45.00	-69.541	-34.731	
46.00	-69.027	-2.729	
47.00	-68.376	24.118	
48.00	-68.482	55.042	
49.00	-68.245	74.845	
50.00	-68.753	95.401	
51.00	-69.269	122.651	
52.00	-70.057	145.748	
53.00	-71.562	170.716	
54.00	-73.290	-164.628	
55.00	-74.372	-147.818	
56.00	-76.264	-99.672	
57.00	-81.758	-50.901	
58.00	-77.989	2.473	
59.00	-75.475	33.881	
60.00	-72.655	80.768	
61.00	-71.311	115.571	
62.00	-70.401	135.776	
63.00	-68.990	177.399	
64.00	-68.483	-159.116	
65.00	-68.447	-128.538	
66.00	-68.760	-97.417	
67.00	-67.909	-65.746	
68.00	-67.242	-24.733	
69.00	-66.546	6.665	
70.00	-65.422	40.428	
71.00	-64.494	66.813	
72.00	-64.008	97.875	
73.00	-63.172	126.571	
74.00	-62.542	157.373	
75.00	-62.105	-170.540	
76.00	-61.729	-139.413	
77.00	-61.276	-108.073	
78.00	-60.871	-81.275	
79.00	-60.473	-49.725	
80.00	-60.492	-20.369	
81.00	-60.006	-2.136	
82.00	-59.642	30.731	
83.00	-59.232	59.212	
84.00	-58.999	85.644	
85.00	-58.639	117.821	
86.00	-58.617	147.573	
87.00	-58.184	-174.678	
88.00	-57.961	-152.209	
89.00	-57.792	-112.764	
90.00	-57.438	-99.818	
91.00	-57.004	-55.387	
92.00	-56.653	-34.122	
93.00	-56.248	4.475	
94.00	-55.780	22.373	
95.00	-55.611	51.210	
96.00	-54.877	84.922	
97.00	-54.856	103.392	
98.00	-54.263	143.411	
99.00	-54.012	158.966	
100.00	-53.527	-164.730	
101.00	-53.228	-140.254	
102.00	-52.941	-109.525	
103.00	-52.661	-83.513	
104.00	-52.234	-52.900	
105.00	-51.889	-24.186	
106.00	-51.292	7.359	
107.00	-50.952	29.485	
108.00	-50.508	59.442	
109.00	-50.069	85.266	
110.00	-49.751	107.779	
111.00	-49.375	130.125	
112.00	-49.126	147.362	
113.00	-48.810	-179.134	
114.00	-48.509	-155.932	
115.00	-48.255	-128.087	
116.00	-47.963	-104.564	
117.00	-47.660	-84.202	
118.00	-47.361	-61.101	
119.00	-47.041	-38.313	
120.00	-46.730	-18.293	
121.00	-46.372	4.856	
122.00	-46.007	30.189	
123.00	-45.691	47.888	
124.00	-45.354	70.181	
125.00	-45.032	93.176	
126.00	-44.711	115.794	
127.00	-44.347	138.658	
128.00	-44.045	157.663	
129.00	-43.728	173.185	
130.00	-43.457	-167.923	
131.00	-43.129	-145.621	
132.00	-42.839	-123.571	
133.00	-42.533	-109.520	
134.00	-42.329	-87.610	
135.00	-41.994	-75.155	
136.00	-41.778	-57.857	
137.00	-41.450	-34.996	
138.00	-41.182	-32.672	
139.00	-40.881	-6.673	
140.00	-40.613	3.429	
141.00	-40.346	19.932	
142.00	-40.063	37.355	
143.00	-39.786	45.620	
144.00	-39.547	61.384	
145.00	-39.284	69.923	
146.00	-39.074	78.167	
147.00	-38.853	95.625	
148.00	-38.632	95.700	
149.00	-38.417	113.376	
150.00	-38.243	116.683	
151.00	-38.090	141.367	
152.00	-37.903	149.153	
153.00	-37.771	157.164	
154.00	-37.616	161.482	
155.00	-37.499	164.428	
156.00	-37.409	172.878	
157.00	-37.256	-167.499	
158.00	-37.142	-164.185	
159.00	-37.035	-149.995	
160.00	-36.934	-153.363	
161.00	-36.830	-136.650	
162.00	-36.739	-141.424	
163.00	-36.658	-132.298	
164.00	-36.532	-128.157	
165.00	-36.434	-131.361	
166.00	-36.326	-122.548	
167.00	-36.211	-129.822	
168.00	-36.111	-120.765	
169.00	-35.996	-127.645	
170.00	-35.883	-126.666	
171.00	-35.761	-129.006	
172.00	-35.679	-130.941	
173.00	-35.518	-119.844	
174.00	-35.412	-132.568	
175.00	-35.319	-122.892	
176.00	-35.239	-135.467	
177.00	-35.164	-140.024	
178.00	-35.077	-138.101	
179.00	-35.011	-159.883	
180.00	-34.958	-140.526	
181.00	-34.937	-160.508	
182.00	-34.891	-157.880	
183.00	-34.899	-164.996	
184.00	-34.891	-177.660	
185.00	-34.872	-174.581	
186.00	-34.891	173.068	
187.00	-34.942	165.061	
188.00	-34.941	152.974	
189.00	-34.978	153.002	
190.00	-34.998	141.524	
191.00	-35.039	139.310	
192.00	-35.075	126.717	
193.00	-35.126	116.732	
194.00	-35.182	107.483	
195.00	-35.257	95.643	
196.00	-35.322	83.872	
197.00	-35.409	73.475	
198.00	-35.493	60.356	
199.00	-35.590	52.257	
200.00	-35.704	37.165	
201.00	-35.836	25.112	
202.00	-35.980	11.417	
203.00	-36.128	-3.901	
204.00	-36.315	-15.311	
205.00	-36.494	-34.081	
206.00	-36.703	-44.368	
207.00	-36.899	-63.149	
208.00	-37.131	-74.255	
209.00	-37.376	-93.812	
210.00	-37.626	-108.618	
211.00	-37.886	-129.395	
212.00	-38.176	-147.043	
213.00	-38.480	-164.934	
214.00	-38.802	167.193	
215.00	-39.065	149.537	
216.00	-39.448	130.656	
217.00	-39.797	95.228	
218.00	-40.054	81.182	
219.00	-40.487	67.672	
220.00	-40.740	32.831	
221.00	-41.111	21.232	
222.00	-41.460	-11.493	
223.00	-41.710	-29.384	
224.00	-42.051	-54.110	
225.00	-42.324	-72.710	
226.00	-42.597	-99.769	
227.00	-42.855	-123.600	
228.00	-43.097	-146.440	
229.00	-43.371	-171.014	
230.00	-43.609	168.442	
231.00	-43.859	145.118	
232.00	-44.153	121.552	
233.00	-44.389	94.511	
234.00	-44.711	68.608	
235.00	-44.963	46.358	
236.00	-45.302	24.017	
237.00	-45.633	3.022	
238.00	-46.014	-23.090	
239.00	-46.315	-51.563	
240.00	-46.679	-76.876	
241.00	-46.974	-107.729	
242.00	-47.345	-133.506	
243.00	-47.699	-164.979	
244.00	-48.078	167.491	
245.00	-48.462	141.055	
246.00	-48.885	111.316	
247.00	-49.316	84.999	
248.00	-49.838	54.183	
249.00	-50.220	27.259	
250.00	-50.765	-0.491	
251.00	-51.064	-31.200	
252.00	-51.604	-56.502	
253.00	-52.025	-87.957	
254.00	-52.481	-116.403	
255.00	-52.937	-144.319	
256.00	-53.552	-170.569	
257.00	-54.042	162.051	
258.00	-54.664	131.777	
259.00	-55.155	101.123	
260.00	-55.648	71.627	
261.00	-56.076	39.311	
262.00	-56.420	8.676	
263.00	-56.544	-20.336	
264.00	-57.026	-49.344	
265.00	-57.634	-77.537	
266.00	-58.098	-109.199	
267.00	-58.613	-142.918	
268.00	-59.136	-174.078	
269.00	-59.485	152.682	
270.00	-60.377	119.452	
271.00	-61.155	88.053	
272.00	-62.077	57.697	
273.00	-63.106	23.156	
274.00	-64.258	-9.382	
275.00	-65.297	-41.026	
276.00	-66.683	-74.555	
277.00	-67.294	-110.426	
278.00	-68.496	-142.141	
279.00	-69.166	-170.146	
280.00	-69.401	148.799	
281.00	-70.532	121.050	
282.00	-71.376	85.624	
283.00	-73.506	52.433	
284.00	-75.888	10.205	
285.00	-74.286	-35.142	
286.00	-76.381	-79.497	
287.00	-74.196	-137.805	
288.00	-72.814	-163.057	
289.00	-70.645	165.455	
290.00	-70.021	136.053	
291.00	-69.482	99.919	
292.00	-69.109	70.952	
293.00	-68.442	39.403	
294.00	-68.510	7.619	
295.00	-68.841	-34.687	
296.00	-68.150	-62.531	
297.00	-67.945	-93.360	
298.00	-68.537	-121.353	
299.00	-67.762	-150.644	
300.00	-67.627	-175.101	
301.00	-67.609	153.892	
302.00	-67.853	128.359	
303.00	-68.997	101.404	
304.00	-69.103	70.239	
305.00	-70.410	46.838	
306.00	-71.130	12.620	
307.00	-71.997	-18.744	
308.00	-72.393	-56.275	
309.00	-73.127	-89.903	
310.00	-72.072	-132.454	
311.00	-72.411	-151.878	
312.00	-71.710	177.310	
313.00	-71.689	160.232	
314.00	-71.791	133.306	
315.00	-72.088	106.038	
316.00	-73.210	72.209	
317.00	-73.971	61.449	
318.00	-75.725	27.407	
319.00	-76.613	-4.340	
320.00	-77.038	-48.941	
321.00	-78.527	-78.520	
322.00	-76.342	-109.029	
323.00	-74.244	-146.641	
324.00	-72.180	-161.024	
325.00	-71.219	178.397	
326.00	-71.429	163.018	
327.00	-71.419	135.688	
328.00	-71.082	120.592	
329.00	-71.108	97.174	
330.00	-71.473	86.287	
331.00	-72.593	59.982	
332.00	-73.721	40.299	
333.00	-75.524	22.506	
334.00	-75.948	12.602	
335.00	-77.940	-8.279	
336.00	-78.991	-22.699	
337.00	-80.453	-50.054	
338.00	-82.869	-93.810	
339.00	-85.465	-69.884	
340.00	-88.338	-158.577	
341.00	-91.609	144.597	
342.00	-83.950	137.398	
343.00	-85.430	101.247	
344.00	-81.766	87.855	
345.00	-81.082	51.995	
346.00	-79.923	49.170	
347.00	-80.944	35.884	
348.00	-79.749	27.537	
349.00	-80.139	16.056	
350.00	-80.536	5.946	
351.00	-80.394	10.430	
352.00	-83.478	5.203	
353.00	-85.131	-11.731	
354.00	-87.707	-22.270	
355.00	-88.677	-5.165	
356.00	-94.683	-6.739	
357.00	-94.345	26.545	
358.00	-90.682	125.805	
359.00	-94.472	105.668	
Frequency	3700.00	MHz	
Channel	test		
Scan Axis name	Azimuth  [deg]		
Scan Axis	Amplitude	Phase	
			
0.00	-81.745	122.629	
1.00	-80.872	122.601	
2.00	-82.932	164.284	
3.00	-81.336	-169.952	
4.00	-81.448	-161.461	
5.00	-83.723	-154.486	
6.00	-80.373	-139.307	
7.00	-83.557	-155.896	
8.00	-81.019	-137.200	
9.00	-84.098	-114.790	
10.00	-87.123	-169.808	
11.00	-90.854	63.763	
12.00	-85.507	12.854	
13.00	-86.214	81.572	
14.00	-81.766	95.533	
15.00	-82.729	109.781	
16.00	-80.934	94.907	
17.00	-83.696	120.504	
18.00	-81.580	138.536	
19.00	-81.311	148.339	
20.00	-79.185	167.698	
21.00	-80.469	176.100	
22.00	-79.517	176.683	
23.00	-79.268	-159.066	
24.00	-79.632	-176.167	
25.00	-80.521	-168.602	
26.00	-82.923	173.565	
27.00	-84.762	-161.523	
28.00	-82.178	-153.669	
29.00	-83.598	139.188	
30.00	-79.412	-170.178	
31.00	-76.650	172.715	
32.00	-77.113	165.142	
33.00	-75.335	-168.344	
34.00	-74.869	-162.307	
35.00	-74.345	-134.436	
36.00	-73.331	-121.395	
37.00	-71.801	-107.219	
38.00	-70.590	-87.002	
39.00	-70.102	-72.989	
40.00	-69.304	-61.671	
41.00	-69.409	-41.156	
42.00	-68.675	-21.217	
43.00	-69.841	5.224	
44.00	-69.151	17.554	
45.00	-69.205	45.803	
46.00	-70.203	77.789	
47.00	-70.517	98.142	
48.00	-71.239	133.445	
49.00	-71.871	156.885	
50.00	-72.619	-166.559	
51.00	-73.471	-129.585	
52.00	-74.977	-99.021	
53.00	-74.845	-67.019	
54.00	-74.643	-43.578	
55.00	-74.811	-22.941	
56.00	-76.816	21.235	
57.00	-75.670	47.669	
58.00	-77.774	92.079	
59.00	-75.679	124.649	
60.00	-74.504	170.708	
61.00	-73.446	-147.895	
62.00	-71.409	-114.123	
63.00	-70.149	-73.948	
64.00	-69.054	-55.777	
65.00	-68.403	-20.338	
66.00	-68.274	12.624	
67.00	-68.281	36.427	
68.00	-68.246	67.953	
69.00	-67.316	106.294	
70.00	-66.590	141.787	
71.00	-66.017	169.648	
72.00	-64.803	-156.887	
73.00	-63.998	-120.314	
74.00	-63.363	-90.111	
75.00	-62.681	-57.746	
76.00	-62.266	-30.327	
77.00	-62.065	2.721	
78.00	-61.702	33.091	
79.00	-61.261	64.860	
80.00	-61.416	94.357	
81.00	-60.726	111.286	
82.00	-60.161	146.590	
83.00	-59.912	173.410	
84.00	-59.539	-158.632	
85.00	-59.422	-125.721	
86.00	-59.055	-94.504	
87.00	-58.288	-57.539	
88.00	-58.052	-33.247	
89.00	-57.609	4.564	
90.00	-57.372	16.230	
91.00	-57.270	59.476	
92.00	-56.762	79.817	
93.00	-56.584	120.418	
94.00	-56.295	138.142	
95.00	-56.053	169.293	
96.00	-55.424	-157.569	
97.00	-55.220	-137.263	
98.00	-54.607	-98.422	
99.00	-54.274	-81.936	
100.00	-53.799	-46.521	
101.00	-53.446	-20.725	
102.00	-52.984	10.024	
103.00	-52.596	36.294	
104.00	-52.190	64.925	
105.00	-51.971	94.433	
106.00	-51.626	124.422	
107.00	-51.218	147.879	
108.00	-50.945	177.731	
109.00	-50.550	-155.640	
110.00	-50.230	-132.537	
111.00	-49.951	-110.160	
112.00	-49.687	-92.142	
113.00	-49.379	-57.181	
114.00	-49.020	-34.010	
115.00	-48.687	-4.614	
116.00	-48.297	19.001	
117.00	-47.931	39.735	
118.00	-47.532	63.135	
119.00	-47.080	85.560	
120.00	-46.811	105.500	
121.00	-46.360	128.566	
122.00	-46.007	154.164	
123.00	-45.664	172.293	
124.00	-45.338	-165.136	
125.00	-45.030	-141.851	
126.00	-44.626	-118.724	
127.00	-44.290	-95.623	
128.00	-43.948	-76.369	
129.00	-43.585	-60.138	
130.00	-43.274	-40.368	
131.00	-42.912	-17.820	
132.00	-42.607	4.604	
133.00	-42.248	18.821	
134.00	-41.995	41.142	
135.00	-41.682	53.446	
136.00	-41.468	71.450	
137.00	-41.114	94.203	
138.00	-40.896	96.502	
139.00	-40.624	122.977	
140.00	-40.348	132.778	
141.00	-40.123	150.062	
142.00	-39.856	167.296	
143.00	-39.621	175.434	
144.00	-39.431	-168.113	
145.00	-39.178	-160.207	
146.00	-39.000	-151.329	
147.00	-38.799	-134.229	
148.00	-38.623	-133.933	
149.00	-38.404	-116.319	
150.00	-38.220	-113.057	
151.00	-38.097	-88.029	
152.00	-37.886	-80.914	
153.00	-37.746	-72.434	
154.00	-37.600	-68.496	
155.00	-37.455	-65.643	
156.00	-37.335	-56.668	
157.00	-37.190	-37.150	
158.00	-37.050	-33.793	
159.00	-36.917	-19.610	
160.00	-36.814	-23.022	
161.00	-36.693	-5.779	
162.00	-36.603	-11.029	
163.00	-36.529	-1.103	
164.00	-36.427	2.681	
165.00	-36.343	-0.287	
166.00	-36.240	8.721	
167.00	-36.157	1.264	
168.00	-36.085	10.702	
169.00	-36.002	3.171	
170.00	-35.917	4.824	
171.00	-35.845	1.595	
172.00	-35.767	0.467	
173.00	-35.645	10.793	
174.00	-35.540	-1.867	
175.00	-35.459	7.691	
176.00	-35.378	-5.538	
177.00	-35.283	-9.913	
178.00	-35.217	-8.519	
179.00	-35.150	-30.366	
180.00	-35.085	-10.673	
181.00	-35.048	-31.504	
182.00	-34.994	-28.194	
183.00	-35.001	-35.969	
184.00	-34.974	-48.598	
185.00	-34.962	-45.398	
186.00	-34.980	-57.696	
187.00	-35.033	-66.332	
188.00	-35.044	-77.764	
189.00	-35.081	-78.079	
190.00	-35.120	-89.318	
191.00	-35.176	-91.904	
192.00	-35.234	-104.473	
193.00	-35.329	-114.879	
194.00	-35.388	-124.074	
195.00	-35.482	-136.410	
196.00	-35.550	-148.194	
197.00	-35.626	-158.960	
198.00	-35.729	-172.344	
199.00	-35.832	179.307	
200.00	-35.946	163.748	
201.00	-36.049	151.606	
202.00	-36.189	137.420	
203.00	-36.323	122.238	
204.00	-36.485	110.559	
205.00	-36.662	91.529	
206.00	-36.835	81.336	
207.00	-37.050	62.257	
208.00	-37.279	51.030	
209.00	-37.499	31.353	
210.00	-37.764	16.418	
211.00	-38.039	-4.579	
212.00	-38.344	-22.107	
213.00	-38.674	-40.451	
214.00	-38.988	-68.568	
215.00	-39.285	-86.284	
216.00	-39.676	-105.818	
217.00	-40.024	-141.816	
218.00	-40.278	-155.050	
219.00	-40.750	-169.638	
220.00	-41.027	155.900	
221.00	-41.366	143.999	
222.00	-41.727	110.857	
223.00	-42.043	93.116	
224.00	-42.385	67.845	
225.00	-42.642	49.212	
226.00	-42.995	21.837	
227.00	-43.290	-2.023	
228.00	-43.682	-25.228	
229.00	-43.977	-50.260	
230.00	-44.330	-71.197	
231.00	-44.620	-95.594	
232.00	-44.962	-120.231	
233.00	-45.218	-147.795	
234.00	-45.512	-174.477	
235.00	-45.773	162.087	
236.00	-46.069	139.252	
237.00	-46.310	117.564	
238.00	-46.592	91.544	
239.00	-46.920	62.763	
240.00	-47.371	36.860	
241.00	-47.785	6.467	
242.00	-48.187	-19.931	
243.00	-48.591	-51.779	
244.00	-49.000	-80.540	
245.00	-49.465	-107.804	
246.00	-49.900	-138.841	
247.00	-50.280	-166.638	
248.00	-50.649	161.503	
249.00	-51.026	135.100	
250.00	-51.311	106.054	
251.00	-51.723	74.873	
252.00	-52.146	50.163	
253.00	-52.529	19.286	
254.00	-53.020	-9.434	
255.00	-53.566	-36.367	
256.00	-54.203	-64.424	
257.00	-54.889	-91.915	
258.00	-55.562	-123.616	
259.00	-56.161	-153.765	
260.00	-56.358	176.733	
261.00	-56.905	141.512	
262.00	-57.171	110.349	
263.00	-57.566	80.863	
264.00	-58.017	53.575	
265.00	-58.411	24.503	
266.00	-59.254	-6.196	
267.00	-59.797	-40.648	
268.00	-60.694	-71.398	
269.00	-61.265	-107.156	
270.00	-62.160	-142.041	
271.00	-62.955	-175.085	
272.00	-63.757	150.351	
273.00	-64.628	114.789	
274.00	-65.493	80.782	
275.00	-66.713	49.083	
276.00	-68.330	15.520	
277.00	-69.797	-20.098	
278.00	-71.449	-55.879	
279.00	-73.235	-94.298	
280.00	-73.295	-149.057	
281.00	-72.527	170.794	
282.00	-71.661	124.011	
283.00	-70.986	100.477	
284.00	-68.916	66.320	
285.00	-68.663	38.193	
286.00	-69.080	7.486	
287.00	-69.196	-23.091	
288.00	-69.316	-50.592	
289.00	-70.033	-86.018	
290.00	-71.334	-122.596	
291.00	-71.233	-167.591	
292.00	-70.467	151.727	
293.00	-69.234	109.975	
294.00	-67.963	83.937	
295.00	-67.298	41.815	
296.00	-66.413	19.805	
297.00	-66.466	-8.857	
298.00	-66.508	-33.970	
299.00	-66.224	-58.667	
300.00	-67.222	-87.780	
301.00	-67.855	-113.591	
302.00	-68.756	-148.241	
303.00	-69.516	-179.055	
304.00	-70.038	145.608	
305.00	-70.327	113.835	
306.00	-69.977	79.510	
307.00	-70.574	45.428	
308.00	-70.100	17.507	
309.00	-69.069	-11.022	
310.00	-69.669	-50.363	
311.00	-68.946	-64.391	
312.00	-69.962	-97.353	
313.00	-70.539	-118.877	
314.00	-70.340	-144.810	
315.00	-70.792	178.122	
316.00	-72.063	147.055	
317.00	-71.708	119.325	
318.00	-71.310	88.772	
319.00	-71.507	67.654	
320.00	-71.304	35.246	
321.00	-71.558	17.912	
322.00	-70.717	-7.499	
323.00	-70.797	-36.441	
324.00	-71.701	-59.668	
325.00	-71.870	-84.547	
326.00	-72.175	-107.847	
327.00	-72.231	-137.066	
328.00	-71.592	-160.457	
329.00	-72.159	169.902	
330.00	-72.231	147.692	
331.00	-71.649	122.575	
332.00	-71.233	95.538	
333.00	-71.557	69.737	
334.00	-71.367	60.836	
335.00	-71.484	41.451	
336.00	-71.942	13.363	
337.00	-72.472	2.456	
338.00	-72.944	-21.713	
339.00	-73.524	-25.005	
340.00	-75.162	-47.886	
341.00	-75.255	-58.362	
342.00	-77.777	-87.765	
343.00	-79.349	-86.798	
344.00	-87.680	-125.909	
345.00	-92.689	133.808	
346.00	-86.708	122.527	
347.00	-80.734	107.436	
348.00	-78.408	95.289	
349.00	-75.300	81.546	
350.00	-74.251	74.286	
351.00	-73.718	72.831	
352.00	-73.152	60.476	
353.00	-72.424	61.047	
354.00	-74.590	62.849	
355.00	-72.969	67.240	
356.00	-73.505	65.342	
357.00	-75.224	71.570	
358.00	-75.782	71.341	
359.00	-77.633	70.357	
Frequency	3750.00	MHz	
Channel	test		
Scan Axis name	Azimuth  [deg]		
Scan Axis	Amplitude	Phase	
			
0.00	-83.968	-157.283	
1.00	-85.816	-108.746	
2.00	-82.059	-76.616	
3.00	-78.293	-63.772	
4.00	-76.277	-57.061	
5.00	-74.934	-47.222	
6.00	-74.595	-46.141	
7.00	-74.763	-43.150	
8.00	-74.365	-45.158	
9.00	-74.657	-29.392	
10.00	-77.863	-19.112	
11.00	-81.731	-18.806	
12.00	-81.193	-6.789	
13.00	-84.025	62.361	
14.00	-85.820	62.859	
15.00	-83.487	139.121	
16.00	-79.944	142.608	
17.00	-78.676	163.307	
18.00	-75.577	-170.251	
19.00	-74.936	-170.733	
20.00	-73.569	-155.797	
21.00	-72.269	-146.860	
22.00	-71.571	-136.391	
23.00	-72.183	-127.718	
24.00	-71.492	-119.669	
25.00	-71.742	-101.982	
26.00	-72.010	-95.285	
27.00	-71.503	-95.443	
28.00	-72.180	-95.752	
29.00	-71.781	-111.176	
30.00	-71.786	-95.027	
31.00	-72.026	-109.398	
32.00	-72.570	-94.680	
33.00	-74.199	-84.057	
34.00	-73.819	-73.601	
35.00	-73.628	-50.519	
36.00	-73.015	-39.340	
37.00	-73.359	-27.283	
38.00	-72.647	-11.416	
39.00	-72.613	12.310	
40.00	-72.718	26.316	
41.00	-73.544	53.007	
42.00	-73.875	81.402	
43.00	-73.516	101.473	
44.00	-74.332	115.104	
45.00	-74.610	148.667	
46.00	-76.193	-178.554	
47.00	-78.233	-147.957	
48.00	-79.369	-98.840	
49.00	-78.446	-66.335	
50.00	-77.854	-34.837	
51.00	-78.463	3.658	
52.00	-77.113	32.177	
53.00	-77.794	84.508	
54.00	-76.212	104.712	
55.00	-74.728	118.613	
56.00	-74.480	160.448	
57.00	-72.768	-172.807	
58.00	-71.825	-126.637	
59.00	-70.071	-108.702	
60.00	-68.680	-75.718	
61.00	-68.158	-40.326	
62.00	-68.162	-18.628	
63.00	-67.419	20.423	
64.00	-67.302	46.636	
65.00	-68.025	81.560	
66.00	-67.489	113.036	
67.00	-66.900	143.342	
68.00	-66.470	-178.281	
69.00	-65.436	-143.132	
70.00	-64.377	-111.163	
71.00	-63.544	-83.743	
72.00	-62.580	-52.156	
73.00	-62.024	-24.467	
74.00	-61.764	7.748	
75.00	-61.503	37.404	
76.00	-61.317	67.802	
77.00	-61.054	102.930	
78.00	-61.149	130.666	
79.00	-60.911	161.077	
80.00	-60.772	-163.942	
81.00	-60.359	-144.961	
82.00	-60.059	-110.134	
83.00	-59.372	-84.106	
84.00	-59.336	-54.697	
85.00	-58.583	-23.600	
86.00	-58.459	7.157	
87.00	-58.151	44.969	
88.00	-58.116	66.995	
89.00	-57.859	105.960	
90.00	-57.943	119.716	
91.00	-57.841	165.842	
92.00	-57.483	-173.813	
93.00	-57.268	-132.118	
94.00	-56.923	-115.037	
95.00	-56.718	-81.274	
96.00	-56.172	-48.536	
97.00	-55.961	-26.362	
98.00	-55.496	11.791	
99.00	-55.203	30.389	
100.00	-54.890	66.275	
101.00	-54.476	92.213	
102.00	-54.319	124.429	
103.00	-54.048	152.330	
104.00	-53.621	-177.705	
105.00	-53.297	-146.735	
106.00	-52.838	-115.524	
107.00	-52.513	-91.662	
108.00	-52.185	-60.441	
109.00	-51.851	-32.716	
110.00	-51.469	-9.917	
111.00	-51.063	13.698	
112.00	-50.766	32.902	
113.00	-50.408	67.344	
114.00	-49.995	90.963	
115.00	-49.668	120.590	
116.00	-49.225	143.576	
117.00	-48.869	164.808	
118.00	-48.439	-171.983	
119.00	-48.168	-149.469	
120.00	-47.720	-129.041	
121.00	-47.416	-105.740	
122.00	-47.025	-80.205	
123.00	-46.681	-62.652	
124.00	-46.269	-39.593	
125.00	-45.937	-16.060	
126.00	-45.544	6.896	
127.00	-45.151	29.892	
128.00	-44.753	48.960	
129.00	-44.418	64.801	
130.00	-44.038	84.530	
131.00	-43.710	106.930	
132.00	-43.330	129.470	
133.00	-42.948	143.813	
134.00	-42.629	166.439	
135.00	-42.213	178.562	
136.00	-41.946	-162.838	
137.00	-41.563	-140.671	
138.00	-41.246	-137.795	
139.00	-40.934	-111.211	
140.00	-40.586	-101.585	
141.00	-40.326	-83.878	
142.00	-40.019	-66.845	
143.00	-39.773	-58.563	
144.00	-39.552	-41.760	
145.00	-39.297	-34.166	
146.00	-39.131	-24.638	
147.00	-38.921	-7.706	
148.00	-38.750	-6.958	
149.00	-38.546	10.762	
150.00	-38.395	14.086	
151.00	-38.274	39.838	
152.00	-38.122	46.479	
153.00	-38.005	55.240	
154.00	-37.862	58.852	
155.00	-37.759	61.715	
156.00	-37.665	71.091	
157.00	-37.551	90.136	
158.00	-37.427	93.492	
159.00	-37.332	107.417	
160.00	-37.203	103.749	
161.00	-37.117	121.022	
162.00	-37.004	115.275	
163.00	-36.919	125.384	
164.00	-36.794	128.581	
165.00	-36.706	125.935	
166.00	-36.601	134.713	
167.00	-36.493	127.076	
168.00	-36.400	136.833	
169.00	-36.317	128.877	
170.00	-36.226	131.209	
171.00	-36.148	127.242	
172.00	-36.081	127.386	
173.00	-35.998	136.921	
174.00	-35.908	124.718	
175.00	-35.846	134.358	
176.00	-35.800	120.626	
177.00	-35.730	116.816	
178.00	-35.713	117.735	
179.00	-35.683	95.968	
180.00	-35.648	115.872	
181.00	-35.646	94.201	
182.00	-35.606	98.019	
183.00	-35.648	89.407	
184.00	-35.631	76.748	
185.00	-35.627	79.736	
186.00	-35.661	67.276	
187.00	-35.704	57.869	
188.00	-35.711	47.005	
189.00	-35.745	45.987	
190.00	-35.766	34.975	
191.00	-35.834	32.098	
192.00	-35.887	19.553	
193.00	-35.960	9.074	
194.00	-36.038	-0.083	
195.00	-36.122	-12.694	
196.00	-36.231	-24.289	
197.00	-36.319	-35.159	
198.00	-36.442	-48.648	
199.00	-36.563	-56.934	
200.00	-36.686	-72.796	
201.00	-36.824	-84.876	
202.00	-37.001	-99.491	
203.00	-37.159	-114.688	
204.00	-37.326	-126.798	
205.00	-37.503	-145.873	
206.00	-37.721	-156.476	
207.00	-37.921	-175.734	
208.00	-38.149	172.859	
209.00	-38.420	152.569	
210.00	-38.663	137.424	
211.00	-38.927	116.103	
212.00	-39.209	98.084	
213.00	-39.536	79.593	
214.00	-39.846	51.102	
215.00	-40.097	33.574	
216.00	-40.502	13.425	
217.00	-40.820	-22.823	
218.00	-41.124	-35.192	
219.00	-41.590	-50.896	
220.00	-41.875	-85.316	
221.00	-42.255	-97.627	
222.00	-42.613	-130.881	
223.00	-42.966	-148.626	
224.00	-43.315	-174.296	
225.00	-43.641	167.082	
226.00	-43.990	139.106	
227.00	-44.256	115.207	
228.00	-44.625	91.620	
229.00	-45.016	66.887	
230.00	-45.397	45.624	
231.00	-45.738	21.730	
232.00	-46.215	-3.234	
233.00	-46.545	-30.806	
234.00	-46.980	-58.359	
235.00	-47.431	-81.488	
236.00	-47.924	-105.379	
237.00	-48.410	-128.369	
238.00	-48.906	-156.255	
239.00	-49.221	173.017	
240.00	-49.653	145.266	
241.00	-49.937	112.886	
242.00	-50.359	84.888	
243.00	-50.732	51.476	
244.00	-51.067	21.379	
245.00	-51.522	-6.655	
246.00	-51.894	-38.675	
247.00	-52.178	-67.220	
248.00	-52.586	-101.091	
249.00	-52.670	-128.855	
250.00	-52.956	-159.370	
251.00	-53.190	168.761	
252.00	-53.447	141.814	
253.00	-53.569	108.760	
254.00	-53.872	80.413	
255.00	-54.086	53.220	
256.00	-54.317	26.152	
257.00	-54.614	-0.459	
258.00	-55.221	-30.273	
259.00	-55.741	-59.021	
260.00	-56.293	-88.467	
261.00	-56.889	-121.774	
262.00	-57.404	-151.674	
263.00	-58.056	177.692	
264.00	-58.460	147.710	
265.00	-59.179	118.653	
266.00	-59.562	86.016	
267.00	-60.262	51.798	
268.00	-60.728	18.592	
269.00	-61.754	-15.457	
270.00	-62.498	-48.039	
271.00	-63.441	-82.503	
272.00	-64.670	-117.219	
273.00	-65.688	-152.918	
274.00	-67.621	172.820	
275.00	-68.637	138.722	
276.00	-70.215	94.641	
277.00	-72.363	60.370	
278.00	-74.209	14.700	
279.00	-73.963	-29.888	
280.00	-72.970	-80.983	
281.00	-71.683	-113.891	
282.00	-70.257	-159.215	
283.00	-68.996	172.334	
284.00	-68.057	139.376	
285.00	-67.229	110.034	
286.00	-66.275	77.847	
287.00	-65.645	49.749	
288.00	-65.178	25.014	
289.00	-65.066	-7.496	
290.00	-64.713	-34.648	
291.00	-65.511	-67.988	
292.00	-65.842	-95.492	
293.00	-66.841	-132.672	
294.00	-67.268	-167.870	
295.00	-67.526	147.509	
296.00	-66.883	117.808	
297.00	-67.377	83.699	
298.00	-66.597	53.889	
299.00	-66.312	21.663	
300.00	-65.762	-6.995	
301.00	-66.355	-33.766	
302.00	-66.436	-63.161	
303.00	-66.901	-87.906	
304.00	-68.749	-115.315	
305.00	-69.286	-142.597	
306.00	-71.105	-179.555	
307.00	-72.206	144.369	
308.00	-72.074	108.654	
309.00	-70.319	69.291	
310.00	-69.581	34.016	
311.00	-68.578	12.762	
312.00	-68.370	-17.870	
313.00	-68.546	-32.765	
314.00	-68.795	-61.381	
315.00	-69.525	-87.632	
316.00	-69.646	-118.020	
317.00	-70.320	-141.325	
318.00	-70.429	-167.924	
319.00	-71.577	172.252	
320.00	-71.747	140.014	
321.00	-72.188	114.067	
322.00	-73.363	93.434	
323.00	-72.691	56.565	
324.00	-73.162	42.936	
325.00	-73.565	13.330	
326.00	-73.596	-10.228	
327.00	-74.644	-45.417	
328.00	-74.451	-63.243	
329.00	-76.204	-90.441	
330.00	-75.830	-112.560	
331.00	-79.099	-131.103	
332.00	-80.846	-169.078	
333.00	-83.861	175.337	
334.00	-81.215	134.401	
335.00	-80.992	78.138	
336.00	-79.079	53.118	
337.00	-79.460	15.271	
338.00	-76.451	-9.146	
339.00	-76.563	-9.248	
340.00	-75.926	-29.522	
341.00	-76.713	-40.909	
342.00	-76.732	-68.132	
343.00	-79.041	-70.248	
344.00	-79.296	-85.993	
345.00	-80.696	-121.041	
346.00	-79.242	-150.978	
347.00	-77.764	-169.249	
348.00	-75.888	165.736	
349.00	-74.808	144.216	
350.00	-72.827	136.520	
351.00	-72.048	137.463	
352.00	-71.798	122.491	
353.00	-71.573	135.037	
354.00	-71.374	135.007	
355.00	-71.863	129.546	
356.00	-73.351	126.231	
357.00	-73.978	124.707	
358.00	-75.835	138.207	
359.00	-78.953	135.345	
Frequency	3800.00	MHz	
Channel	test		
Scan Axis name	Azimuth  [deg]		
Scan Axis	Amplitude	Phase	
			
0.00	-91.701	119.120	
1.00	-81.669	65.653	
2.00	-77.342	56.735	
3.00	-75.643	55.325	
4.00	-72.447	54.266	
5.00	-71.772	58.642	
6.00	-71.161	65.580	
7.00	-70.961	71.809	
8.00	-71.933	65.780	
9.00	-72.560	91.570	
10.00	-72.974	93.515	
11.00	-73.908	115.005	
12.00	-74.528	122.503	
13.00	-74.123	149.675	
14.00	-74.546	150.797	
15.00	-73.171	178.817	
16.00	-74.672	-165.505	
17.00	-74.420	-147.049	
18.00	-76.628	-130.506	
19.00	-76.534	-115.078	
20.00	-77.054	-86.592	
21.00	-76.986	-77.941	
22.00	-77.518	-52.681	
23.00	-77.311	-47.122	
24.00	-79.827	-17.579	
25.00	-79.288	-10.897	
26.00	-81.265	13.598	
27.00	-87.059	39.540	
28.00	-85.478	58.936	
29.00	-89.540	43.239	
30.00	-94.018	113.255	
31.00	-88.388	-117.312	
32.00	-87.854	-104.227	
33.00	-84.280	-88.620	
34.00	-85.242	-92.334	
35.00	-87.692	-39.088	
36.00	-82.125	6.304	
37.00	-80.217	42.480	
38.00	-76.379	50.683	
39.00	-75.443	77.751	
40.00	-73.766	86.891	
41.00	-72.189	110.967	
42.00	-71.714	132.562	
43.00	-72.079	148.673	
44.00	-72.223	168.587	
45.00	-72.915	-170.101	
46.00	-72.734	-141.021	
47.00	-73.980	-120.051	
48.00	-76.602	-75.556	
49.00	-78.531	-39.071	
50.00	-78.729	13.997	
51.00	-76.509	52.422	
52.00	-74.464	74.327	
53.00	-73.719	105.149	
54.00	-72.403	124.580	
55.00	-71.657	134.094	
56.00	-71.333	157.940	
57.00	-72.404	175.419	
58.00	-74.512	-147.418	
59.00	-76.678	-127.678	
60.00	-78.719	-89.845	
61.00	-80.937	-32.398	
62.00	-81.285	3.145	
63.00	-79.857	57.535	
64.00	-80.247	72.440	
65.00	-80.008	124.340	
66.00	-82.176	176.623	
67.00	-83.852	-121.386	
68.00	-79.189	-78.301	
69.00	-75.951	-37.437	
70.00	-73.096	-3.480	
71.00	-71.153	25.369	
72.00	-70.424	52.978	
73.00	-68.917	75.906	
74.00	-68.311	109.593	
75.00	-68.280	140.235	
76.00	-68.018	171.802	
77.00	-68.116	-155.025	
78.00	-68.161	-122.459	
79.00	-68.132	-88.097	
80.00	-67.094	-52.252	
81.00	-66.615	-29.201	
82.00	-65.890	6.344	
83.00	-64.752	34.308	
84.00	-64.510	61.931	
85.00	-63.747	95.444	
86.00	-63.364	128.118	
87.00	-62.959	163.216	
88.00	-63.025	-170.538	
89.00	-62.655	-130.271	
90.00	-62.413	-115.295	
91.00	-61.933	-65.832	
92.00	-61.255	-43.442	
93.00	-60.522	0.312	
94.00	-59.507	16.954	
95.00	-58.884	50.381	
96.00	-57.845	81.479	
97.00	-57.409	102.154	
98.00	-56.878	141.240	
99.00	-56.371	157.495	
100.00	-55.821	-166.887	
101.00	-55.444	-142.133	
102.00	-55.134	-110.890	
103.00	-54.673	-83.658	
104.00	-54.243	-53.064	
105.00	-53.957	-22.218	
106.00	-53.374	8.185	
107.00	-53.037	32.185	
108.00	-52.508	63.222	
109.00	-52.090	90.283	
110.00	-51.657	113.120	
111.00	-51.226	135.246	
112.00	-50.924	153.785	
113.00	-50.586	-171.461	
114.00	-50.259	-148.465	
115.00	-50.032	-118.720	
116.00	-49.725	-95.604	
117.00	-49.366	-73.965	
118.00	-49.092	-50.218	
119.00	-48.684	-27.045	
120.00	-48.346	-6.103	
121.00	-47.953	17.696	
122.00	-47.541	43.140	
123.00	-47.111	60.924	
124.00	-46.758	84.029	
125.00	-46.369	107.044	
126.00	-46.037	129.878	
127.00	-45.685	152.612	
128.00	-45.334	171.431	
129.00	-45.039	-172.576	
130.00	-44.731	-153.218	
131.00	-44.460	-130.914	
132.00	-44.188	-108.310	
133.00	-43.880	-94.506	
134.00	-43.632	-71.593	
135.00	-43.275	-59.972	
136.00	-43.058	-40.796	
137.00	-42.724	-19.167	
138.00	-42.430	-16.632	
139.00	-42.142	10.473	
140.00	-41.836	19.694	
141.00	-41.558	37.518	
142.00	-41.308	54.505	
143.00	-41.020	62.480	
144.00	-40.787	79.952	
145.00	-40.537	86.860	
146.00	-40.356	97.143	
147.00	-40.138	113.658	
148.00	-39.947	114.523	
149.00	-39.734	132.331	
150.00	-39.578	135.845	
151.00	-39.463	162.150	
152.00	-39.270	168.110	
153.00	-39.160	177.499	
154.00	-39.060	-179.049	
155.00	-38.960	-175.915	
156.00	-38.914	-166.048	
157.00	-38.817	-146.945	
158.00	-38.747	-143.373	
159.00	-38.684	-129.326	
160.00	-38.618	-133.110	
161.00	-38.621	-115.391	
162.00	-38.525	-121.679	
163.00	-38.497	-110.927	
164.00	-38.421	-108.421	
165.00	-38.350	-110.909	
166.00	-38.287	-102.306	
167.00	-38.184	-110.373	
168.00	-38.120	-100.336	
169.00	-38.005	-109.049	
170.00	-37.922	-106.191	
171.00	-37.812	-111.189	
172.00	-37.744	-110.153	
173.00	-37.647	-101.450	
174.00	-37.499	-113.245	
175.00	-37.420	-103.657	
176.00	-37.338	-117.777	
177.00	-37.243	-121.085	
178.00	-37.206	-120.513	
179.00	-37.106	-141.869	
180.00	-37.104	-121.510	
181.00	-37.049	-143.846	
182.00	-37.053	-138.980	
183.00	-37.067	-148.205	
184.00	-37.039	-160.522	
185.00	-37.065	-157.568	
186.00	-37.091	-169.723	
187.00	-37.148	-179.721	
188.00	-37.153	170.068	
189.00	-37.209	168.762	
190.00	-37.246	158.024	
191.00	-37.317	154.763	
192.00	-37.377	142.172	
193.00	-37.456	131.322	
194.00	-37.525	122.153	
195.00	-37.636	109.376	
196.00	-37.705	97.734	
197.00	-37.810	86.546	
198.00	-37.916	72.954	
199.00	-38.041	64.619	
200.00	-38.164	48.337	
201.00	-38.316	36.246	
202.00	-38.459	21.327	
203.00	-38.598	6.051	
204.00	-38.800	-6.381	
205.00	-38.964	-25.715	
206.00	-39.180	-36.350	
207.00	-39.394	-55.994	
208.00	-39.626	-67.542	
209.00	-39.862	-87.891	
210.00	-40.115	-103.306	
211.00	-40.393	-124.668	
212.00	-40.678	-142.447	
213.00	-41.028	-161.243	
214.00	-41.367	169.988	
215.00	-41.658	152.585	
216.00	-42.113	131.842	
217.00	-42.468	95.071	
218.00	-42.833	83.371	
219.00	-43.367	66.742	
220.00	-43.680	32.579	
221.00	-44.154	19.719	
222.00	-44.571	-14.447	
223.00	-45.000	-32.128	
224.00	-45.397	-58.895	
225.00	-45.787	-77.981	
226.00	-46.146	-107.451	
227.00	-46.452	-131.559	
228.00	-46.797	-155.711	
229.00	-47.082	179.188	
230.00	-47.518	157.464	
231.00	-47.850	133.779	
232.00	-48.369	107.803	
233.00	-48.773	80.459	
234.00	-49.346	52.129	
235.00	-49.776	29.502	
236.00	-50.342	4.592	
237.00	-50.854	-17.620	
238.00	-51.425	-47.113	
239.00	-51.979	-77.944	
240.00	-52.383	-106.375	
241.00	-52.749	-139.503	
242.00	-53.196	-168.087	
243.00	-53.651	157.361	
244.00	-54.224	127.730	
245.00	-54.765	99.089	
246.00	-55.332	65.961	
247.00	-56.022	35.108	
248.00	-56.544	-0.505	
249.00	-56.755	-31.435	
250.00	-57.158	-64.613	
251.00	-57.120	-99.034	
252.00	-57.194	-127.602	
253.00	-57.277	-160.735	
254.00	-57.456	169.012	
255.00	-57.741	141.133	
256.00	-58.218	112.798	
257.00	-58.659	82.808	
258.00	-59.287	50.834	
259.00	-59.530	18.399	
260.00	-59.773	-16.667	
261.00	-60.072	-52.766	
262.00	-59.877	-85.386	
263.00	-59.914	-113.794	
264.00	-60.081	-141.664	
265.00	-60.219	-170.554	
266.00	-60.871	158.927	
267.00	-61.532	124.523	
268.00	-62.600	92.963	
269.00	-63.942	53.139	
270.00	-64.725	12.490	
271.00	-65.546	-27.401	
272.00	-66.204	-68.697	
273.00	-66.008	-110.140	
274.00	-65.489	-144.900	
275.00	-65.441	-179.415	
276.00	-65.844	147.600	
277.00	-66.306	111.354	
278.00	-66.934	80.302	
279.00	-67.098	48.751	
280.00	-67.502	4.431	
281.00	-66.756	-29.607	
282.00	-65.815	-69.152	
283.00	-64.885	-100.166	
284.00	-64.103	-129.605	
285.00	-63.317	-157.475	
286.00	-63.232	171.351	
287.00	-62.838	143.874	
288.00	-63.225	121.164	
289.00	-63.600	87.021	
290.00	-64.055	57.105	
291.00	-64.720	17.103	
292.00	-64.761	-14.937	
293.00	-64.786	-53.759	
294.00	-64.574	-84.829	
295.00	-64.135	-127.835	
296.00	-64.011	-153.339	
297.00	-64.209	176.810	
298.00	-64.236	147.987	
299.00	-64.058	118.508	
300.00	-64.551	90.856	
301.00	-65.551	62.072	
302.00	-66.255	32.064	
303.00	-67.263	2.097	
304.00	-68.056	-29.804	
305.00	-69.228	-59.252	
306.00	-69.641	-101.607	
307.00	-69.700	-139.456	
308.00	-69.387	-173.768	
309.00	-68.581	152.159	
310.00	-68.513	113.811	
311.00	-67.588	97.775	
312.00	-67.514	64.598	
313.00	-67.505	49.681	
314.00	-68.630	20.417	
315.00	-68.667	-8.905	
316.00	-69.215	-46.847	
317.00	-69.518	-72.777	
318.00	-70.269	-100.113	
319.00	-69.134	-129.752	
320.00	-68.374	-155.851	
321.00	-67.947	-175.844	
322.00	-67.641	171.137	
323.00	-67.656	140.474	
324.00	-67.974	124.564	
325.00	-69.172	107.176	
326.00	-70.008	88.751	
327.00	-71.684	59.651	
328.00	-73.439	43.112	
329.00	-77.518	9.503	
330.00	-78.784	-22.083	
331.00	-78.300	-67.888	
332.00	-77.802	-101.803	
333.00	-77.196	-126.527	
334.00	-76.208	-152.058	
335.00	-75.947	-179.754	
336.00	-76.045	164.202	
337.00	-76.430	144.512	
338.00	-78.158	124.900	
339.00	-77.133	117.353	
340.00	-78.640	96.831	
341.00	-82.678	72.751	
342.00	-86.552	81.661	
343.00	-91.637	24.894	
344.00	-87.778	-82.189	
345.00	-80.601	-111.022	
346.00	-77.772	-122.181	
347.00	-75.960	-136.073	
348.00	-73.520	-142.133	
349.00	-71.123	-146.386	
350.00	-70.504	-153.482	
351.00	-70.047	-158.543	
352.00	-69.672	-162.592	
353.00	-70.180	-156.987	
354.00	-70.458	-163.339	
355.00	-71.388	-166.140	
356.00	-72.942	-176.463	
357.00	-76.011	-171.751	
358.00	-77.445	175.548	
359.00	-79.750	-173.608	
Frequency	3850.00	MHz	
Channel	test		
Scan Axis name	Azimuth  [deg]		
Scan Axis	Amplitude	Phase	
			
0.00	-75.750	79.606	
1.00	-74.455	84.925	
2.00	-73.462	86.176	
3.00	-73.193	99.959	
4.00	-71.673	101.945	
5.00	-72.423	113.071	
6.00	-71.327	120.191	
7.00	-71.502	129.192	
8.00	-72.007	133.778	
9.00	-72.816	162.196	
10.00	-73.112	161.521	
11.00	-74.008	-170.538	
12.00	-75.276	-165.533	
13.00	-74.459	-150.189	
14.00	-75.985	-140.797	
15.00	-76.603	-110.467	
16.00	-76.490	-91.217	
17.00	-78.228	-62.425	
18.00	-79.535	-32.895	
19.00	-79.958	-12.936	
20.00	-78.881	29.216	
21.00	-77.493	35.560	
22.00	-77.316	55.542	
23.00	-77.379	79.244	
24.00	-76.513	104.204	
25.00	-75.810	125.783	
26.00	-75.601	152.036	
27.00	-73.730	165.412	
28.00	-73.120	176.789	
29.00	-73.670	175.997	
30.00	-74.005	-156.253	
31.00	-73.678	-147.954	
32.00	-74.804	-135.314	
33.00	-74.994	-116.164	
34.00	-74.890	-112.023	
35.00	-77.353	-92.242	
36.00	-79.079	-71.180	
37.00	-80.839	-59.572	
38.00	-87.789	-38.578	
39.00	-100.883	67.910	
40.00	-88.237	153.211	
41.00	-82.813	150.301	
42.00	-80.732	-171.272	
43.00	-78.836	-160.613	
44.00	-78.006	-144.555	
45.00	-78.341	-126.124	
46.00	-78.001	-82.107	
47.00	-78.336	-65.221	
48.00	-78.711	-30.972	
49.00	-81.200	-4.873	
50.00	-79.944	26.455	
51.00	-78.784	84.063	
52.00	-78.444	96.118	
53.00	-78.278	130.216	
54.00	-75.867	149.098	
55.00	-74.195	156.284	
56.00	-73.902	-179.560	
57.00	-72.731	-162.743	
58.00	-73.683	-145.639	
59.00	-72.984	-136.122	
60.00	-72.535	-106.098	
61.00	-72.175	-90.305	
62.00	-72.071	-69.804	
63.00	-70.397	-35.984	
64.00	-69.718	-23.995	
65.00	-69.651	3.909	
66.00	-69.525	18.479	
67.00	-69.587	36.029	
68.00	-69.140	61.309	
69.00	-69.564	90.775	
70.00	-69.650	118.276	
71.00	-69.757	139.320	
72.00	-70.688	172.341	
73.00	-70.159	-157.670	
74.00	-70.306	-117.846	
75.00	-69.893	-81.876	
76.00	-69.886	-44.327	
77.00	-69.854	-7.417	
78.00	-68.901	20.530	
79.00	-67.926	51.399	
80.00	-67.313	85.239	
81.00	-66.841	99.970	
82.00	-66.243	139.374	
83.00	-65.724	162.143	
84.00	-65.079	-167.330	
85.00	-64.347	-134.450	
86.00	-64.640	-99.426	
87.00	-63.513	-63.149	
88.00	-64.025	-36.814	
89.00	-62.942	2.397	
90.00	-62.781	17.013	
91.00	-61.964	64.134	
92.00	-61.227	83.675	
93.00	-60.550	125.718	
94.00	-60.101	141.070	
95.00	-59.493	174.722	
96.00	-58.853	-155.188	
97.00	-58.521	-133.303	
98.00	-57.693	-96.924	
99.00	-57.394	-80.356	
100.00	-57.078	-44.596	
101.00	-56.914	-19.471	
102.00	-56.568	10.928	
103.00	-56.392	39.909	
104.00	-56.089	70.484	
105.00	-55.807	103.256	
106.00	-55.240	134.457	
107.00	-54.806	159.505	
108.00	-54.281	-169.046	
109.00	-53.773	-142.038	
110.00	-53.301	-119.603	
111.00	-52.965	-96.890	
112.00	-52.682	-78.090	
113.00	-52.396	-43.019	
114.00	-52.136	-19.577	
115.00	-51.979	10.897	
116.00	-51.728	34.316	
117.00	-51.353	56.836	
118.00	-51.042	81.292	
119.00	-50.566	104.980	
120.00	-50.270	125.984	
121.00	-49.962	150.177	
122.00	-49.495	175.921	
123.00	-49.089	-165.825	
124.00	-48.715	-142.445	
125.00	-48.463	-119.185	
126.00	-48.142	-95.999	
127.00	-47.908	-73.146	
128.00	-47.579	-54.071	
129.00	-47.382	-37.923	
130.00	-47.207	-17.714	
131.00	-46.876	4.944	
132.00	-46.628	28.098	
133.00	-46.311	41.490	
134.00	-46.092	64.783	
135.00	-45.737	75.966	
136.00	-45.533	95.780	
137.00	-45.178	116.517	
138.00	-44.957	119.045	
139.00	-44.676	146.607	
140.00	-44.383	155.143	
141.00	-44.140	173.672	
142.00	-43.829	-169.618	
143.00	-43.544	-161.482	
144.00	-43.281	-143.669	
145.00	-42.969	-137.013	
146.00	-42.720	-126.099	
147.00	-42.457	-109.560	
148.00	-42.173	-108.302	
149.00	-41.936	-90.113	
150.00	-41.691	-86.652	
151.00	-41.526	-59.083	
152.00	-41.296	-53.180	
153.00	-41.166	-43.077	
154.00	-41.024	-39.637	
155.00	-40.948	-35.910	
156.00	-40.882	-25.206	
157.00	-40.828	-5.608	
158.00	-40.749	-1.582	
159.00	-40.763	12.994	
160.00	-40.737	9.408	
161.00	-40.770	27.606	
162.00	-40.768	21.040	
163.00	-40.814	32.558	
164.00	-40.825	34.358	
165.00	-40.837	31.891	
166.00	-40.860	40.403	
167.00	-40.798	31.621	
168.00	-40.804	41.378	
169.00	-40.729	31.549	
170.00	-40.649	34.294	
171.00	-40.559	27.798	
172.00	-40.475	29.368	
173.00	-40.359	36.918	
174.00	-40.208	24.846	
175.00	-40.106	34.094	
176.00	-39.985	18.814	
177.00	-39.865	15.468	
178.00	-39.781	15.321	
179.00	-39.674	-6.133	
180.00	-39.633	14.355	
181.00	-39.544	-9.174	
182.00	-39.526	-3.806	
183.00	-39.542	-13.743	
184.00	-39.503	-26.218	
185.00	-39.513	-23.480	
186.00	-39.530	-35.925	
187.00	-39.562	-46.707	
188.00	-39.597	-56.516	
189.00	-39.602	-58.801	
190.00	-39.616	-69.215	
191.00	-39.692	-72.955	
192.00	-39.715	-85.782	
193.00	-39.786	-96.969	
194.00	-39.844	-106.234	
195.00	-39.945	-119.523	
196.00	-39.993	-131.518	
197.00	-40.081	-142.866	
198.00	-40.141	-156.442	
199.00	-40.248	-164.959	
200.00	-40.356	178.440	
201.00	-40.457	166.434	
202.00	-40.602	151.198	
203.00	-40.755	136.172	
204.00	-40.926	123.656	
205.00	-41.088	104.434	
206.00	-41.303	93.796	
207.00	-41.547	74.155	
208.00	-41.811	62.848	
209.00	-42.086	42.078	
210.00	-42.398	26.668	
211.00	-42.674	5.013	
212.00	-43.050	-13.069	
213.00	-43.435	-32.314	
214.00	-43.776	-61.887	
215.00	-44.106	-79.661	
216.00	-44.604	-101.245	
217.00	-44.945	-138.883	
218.00	-45.234	-150.472	
219.00	-45.739	-168.701	
220.00	-45.904	157.096	
221.00	-46.314	144.064	
222.00	-46.616	109.531	
223.00	-46.928	92.634	
224.00	-47.320	66.463	
225.00	-47.654	47.668	
226.00	-47.983	19.275	
227.00	-48.329	-4.810	
228.00	-48.749	-28.061	
229.00	-49.098	-52.971	
230.00	-49.632	-74.229	
231.00	-50.148	-97.491	
232.00	-50.687	-122.836	
233.00	-51.241	-149.829	
234.00	-51.896	-177.952	
235.00	-52.449	159.138	
236.00	-53.189	134.645	
237.00	-53.894	113.866	
238.00	-54.746	84.916	
239.00	-55.509	55.296	
240.00	-56.574	26.518	
241.00	-57.307	-7.874	
242.00	-58.493	-37.952	
243.00	-59.356	-73.291	
244.00	-60.489	-108.305	
245.00	-61.465	-141.138	
246.00	-62.284	179.471	
247.00	-62.754	143.057	
248.00	-63.061	100.434	
249.00	-62.479	66.390	
250.00	-62.321	30.941	
251.00	-62.002	-2.956	
252.00	-61.840	-34.995	
253.00	-61.518	-69.831	
254.00	-61.418	-100.247	
255.00	-61.433	-129.357	
256.00	-61.458	-159.627	
257.00	-61.525	172.152	
258.00	-62.047	138.721	
259.00	-61.954	105.609	
260.00	-62.478	74.950	
261.00	-62.575	37.054	
262.00	-62.477	5.048	
263.00	-62.643	-27.540	
264.00	-62.790	-59.237	
265.00	-62.586	-89.066	
266.00	-62.758	-124.387	
267.00	-63.179	-161.593	
268.00	-63.198	166.243	
269.00	-63.699	127.980	
270.00	-63.984	91.275	
271.00	-64.192	54.884	
272.00	-64.104	17.662	
273.00	-64.680	-18.208	
274.00	-64.586	-57.592	
275.00	-64.480	-92.114	
276.00	-64.368	-122.520	
277.00	-64.467	-158.413	
278.00	-64.529	171.074	
279.00	-64.919	142.546	
280.00	-64.659	104.432	
281.00	-64.494	74.762	
282.00	-64.238	41.635	
283.00	-64.348	13.366	
284.00	-64.275	-16.556	
285.00	-64.235	-47.085	
286.00	-64.497	-81.092	
287.00	-64.454	-117.052	
288.00	-64.748	-142.728	
289.00	-65.271	179.602	
290.00	-65.155	146.318	
291.00	-64.684	104.771	
292.00	-64.275	75.292	
293.00	-63.719	39.342	
294.00	-63.208	9.616	
295.00	-63.382	-34.017	
296.00	-62.901	-54.451	
297.00	-63.414	-84.675	
298.00	-63.674	-107.848	
299.00	-64.087	-137.566	
300.00	-64.835	-166.733	
301.00	-65.630	163.933	
302.00	-66.121	129.252	
303.00	-67.278	102.141	
304.00	-67.046	69.510	
305.00	-68.083	41.642	
306.00	-69.155	6.062	
307.00	-69.971	-24.285	
308.00	-70.172	-58.698	
309.00	-70.560	-96.276	
310.00	-69.963	-137.478	
311.00	-69.870	-154.521	
312.00	-69.432	175.108	
313.00	-69.674	155.104	
314.00	-70.625	124.831	
315.00	-70.483	92.327	
316.00	-70.269	56.556	
317.00	-70.975	35.901	
318.00	-70.497	5.710	
319.00	-71.779	-14.276	
320.00	-71.384	-44.104	
321.00	-71.484	-67.728	
322.00	-71.167	-86.920	
323.00	-70.382	-121.331	
324.00	-71.353	-133.925	
325.00	-70.991	-161.621	
326.00	-72.075	-173.724	
327.00	-73.486	159.532	
328.00	-75.100	144.776	
329.00	-75.971	110.333	
330.00	-76.160	80.953	
331.00	-77.102	61.419	
332.00	-76.699	43.167	
333.00	-76.868	9.020	
334.00	-77.883	0.856	
335.00	-80.209	-19.099	
336.00	-78.602	-41.758	
337.00	-78.775	-49.448	
338.00	-79.390	-57.718	
339.00	-82.664	-66.485	
340.00	-81.232	-108.227	
341.00	-81.041	-87.502	
342.00	-83.752	-113.226	
343.00	-83.193	-82.055	
344.00	-81.484	-92.229	
345.00	-79.090	-94.340	
346.00	-79.681	-99.500	
347.00	-79.144	-106.186	
348.00	-78.167	-93.026	
349.00	-76.928	-98.256	
350.00	-76.380	-101.264	
351.00	-77.612	-91.518	
352.00	-79.177	-104.041	
353.00	-80.273	-90.106	
354.00	-80.013	-80.061	
355.00	-85.978	-54.387	
356.00	-83.891	-11.611	
357.00	-82.315	10.890	
358.00	-78.858	44.219	
359.00	-77.281	51.316	
Frequency	3900.00	MHz	
Channel	test		
Scan Axis name	Azimuth  [deg]		
Scan Axis	Amplitude	Phase	
			
0.00	-70.026	123.788	
1.00	-70.522	138.623	
2.00	-70.702	144.211	
3.00	-70.530	162.135	
4.00	-70.811	170.591	
5.00	-70.537	-179.417	
6.00	-70.141	-171.234	
7.00	-70.374	-152.278	
8.00	-70.317	-158.872	
9.00	-71.855	-138.380	
10.00	-71.988	-139.519	
11.00	-75.419	-118.862	
12.00	-75.337	-124.520	
13.00	-77.974	-100.213	
14.00	-85.175	-115.943	
15.00	-93.957	-60.667	
16.00	-84.561	95.196	
17.00	-78.606	116.446	
18.00	-74.829	131.156	
19.00	-71.099	141.017	
20.00	-69.833	152.658	
21.00	-68.320	147.011	
22.00	-67.842	166.806	
23.00	-66.875	177.720	
24.00	-66.980	-168.481	
25.00	-66.621	-148.668	
26.00	-66.595	-138.369	
27.00	-66.428	-127.727	
28.00	-66.805	-116.338	
29.00	-66.845	-125.150	
30.00	-67.873	-100.688	
31.00	-68.987	-98.624	
32.00	-69.472	-80.856	
33.00	-70.604	-62.494	
34.00	-72.191	-41.317	
35.00	-74.683	-18.473	
36.00	-76.032	8.433	
37.00	-76.191	39.650	
38.00	-76.480	84.338	
39.00	-75.762	132.631	
40.00	-74.641	138.677	
41.00	-73.516	163.723	
42.00	-73.710	-170.731	
43.00	-73.469	-137.916	
44.00	-75.443	-124.862	
45.00	-74.825	-93.597	
46.00	-73.853	-44.500	
47.00	-73.455	-14.863	
48.00	-73.553	26.992	
49.00	-72.337	53.466	
50.00	-71.978	83.493	
51.00	-71.262	113.805	
52.00	-69.917	138.591	
53.00	-69.193	168.884	
54.00	-68.715	-172.048	
55.00	-67.594	-170.089	
56.00	-67.297	-141.095	
57.00	-66.810	-121.895	
58.00	-66.082	-90.880	
59.00	-66.404	-77.508	
60.00	-66.100	-45.972	
61.00	-65.658	-16.951	
62.00	-66.154	4.760	
63.00	-65.764	42.533	
64.00	-66.280	59.536	
65.00	-66.655	86.545	
66.00	-66.592	107.176	
67.00	-68.108	130.435	
68.00	-69.219	161.540	
69.00	-70.694	-170.994	
70.00	-72.426	-135.780	
71.00	-74.431	-98.780	
72.00	-74.323	-51.161	
73.00	-74.121	-3.934	
74.00	-72.176	42.578	
75.00	-70.256	71.761	
76.00	-68.946	101.493	
77.00	-68.777	131.896	
78.00	-68.002	158.239	
79.00	-68.034	-173.813	
80.00	-69.023	-140.486	
81.00	-68.219	-125.166	
82.00	-68.099	-76.572	
83.00	-67.498	-49.289	
84.00	-67.112	-15.821	
85.00	-66.065	19.192	
86.00	-65.273	52.124	
87.00	-64.506	85.189	
88.00	-64.071	112.278	
89.00	-62.825	148.046	
90.00	-62.593	159.697	
91.00	-61.690	-152.873	
92.00	-61.202	-136.800	
93.00	-60.759	-94.335	
94.00	-60.130	-85.249	
95.00	-59.807	-49.930	
96.00	-59.444	-23.468	
97.00	-58.948	-1.274	
98.00	-58.660	34.294	
99.00	-58.538	51.167	
100.00	-58.352	85.773	
101.00	-58.378	110.651	
102.00	-58.152	141.742	
103.00	-57.887	171.215	
104.00	-57.573	-160.006	
105.00	-57.285	-126.993	
106.00	-56.783	-96.726	
107.00	-56.465	-72.426	
108.00	-56.153	-41.779	
109.00	-55.840	-13.629	
110.00	-55.466	9.909	
111.00	-54.941	32.937	
112.00	-54.643	53.642	
113.00	-54.130	89.541	
114.00	-53.617	113.254	
115.00	-53.118	143.461	
116.00	-52.661	166.315	
117.00	-52.252	-171.809	
118.00	-51.799	-148.152	
119.00	-51.319	-125.208	
120.00	-50.940	-103.897	
121.00	-50.550	-79.747	
122.00	-50.232	-53.591	
123.00	-49.899	-35.718	
124.00	-49.548	-11.394	
125.00	-49.179	13.976	
126.00	-48.830	37.735	
127.00	-48.560	61.610	
128.00	-48.177	80.860	
129.00	-47.963	97.808	
130.00	-47.687	119.350	
131.00	-47.374	142.303	
132.00	-47.147	165.824	
133.00	-46.873	179.943	
134.00	-46.760	-155.728	
135.00	-46.459	-144.413	
136.00	-46.381	-123.979	
137.00	-46.070	-102.631	
138.00	-45.947	-99.633	
139.00	-45.772	-71.673	
140.00	-45.573	-63.442	
141.00	-45.384	-44.589	
142.00	-45.175	-28.413	
143.00	-44.960	-20.840	
144.00	-44.782	-3.233	
145.00	-44.506	2.002	
146.00	-44.281	12.982	
147.00	-44.019	27.889	
148.00	-43.835	28.874	
149.00	-43.536	45.832	
150.00	-43.279	48.962	
151.00	-43.109	76.032	
152.00	-42.783	80.746	
153.00	-42.641	90.815	
154.00	-42.396	93.617	
155.00	-42.201	97.129	
156.00	-42.035	108.469	
157.00	-41.862	127.959	
158.00	-41.742	132.251	
159.00	-41.633	146.902	
160.00	-41.540	143.940	
161.00	-41.501	162.713	
162.00	-41.442	156.491	
163.00	-41.492	169.056	
164.00	-41.515	171.009	
165.00	-41.550	169.574	
166.00	-41.569	178.458	
167.00	-41.629	170.057	
168.00	-41.688	-179.227	
169.00	-41.747	170.462	
170.00	-41.768	174.116	
171.00	-41.807	166.521	
172.00	-41.860	169.256	
173.00	-41.831	175.607	
174.00	-41.786	163.595	
175.00	-41.743	172.465	
176.00	-41.714	156.298	
177.00	-41.611	153.085	
178.00	-41.629	151.923	
179.00	-41.547	130.760	
180.00	-41.570	151.009	
181.00	-41.538	126.708	
182.00	-41.577	132.426	
183.00	-41.656	121.346	
184.00	-41.680	108.983	
185.00	-41.761	110.974	
186.00	-41.832	98.414	
187.00	-41.934	86.174	
188.00	-42.010	76.812	
189.00	-42.045	73.257	
190.00	-42.153	62.419	
191.00	-42.201	57.619	
192.00	-42.254	44.336	
193.00	-42.280	32.254	
194.00	-42.361	22.368	
195.00	-42.396	8.589	
196.00	-42.426	-3.513	
197.00	-42.460	-15.685	
198.00	-42.498	-29.670	
199.00	-42.556	-38.357	
200.00	-42.641	-55.205	
201.00	-42.726	-67.200	
202.00	-42.832	-82.713	
203.00	-42.955	-97.597	
204.00	-43.119	-110.577	
205.00	-43.248	-129.668	
206.00	-43.501	-140.220	
207.00	-43.714	-159.634	
208.00	-43.984	-170.964	
209.00	-44.323	168.348	
210.00	-44.660	153.005	
211.00	-45.008	131.461	
212.00	-45.383	113.008	
213.00	-45.838	93.501	
214.00	-46.256	64.157	
215.00	-46.695	47.088	
216.00	-47.223	24.171	
217.00	-47.760	-13.630	
218.00	-48.258	-24.851	
219.00	-48.906	-45.334	
220.00	-49.247	-80.474	
221.00	-49.727	-95.530	
222.00	-50.011	-132.107	
223.00	-50.320	-150.716	
224.00	-50.560	-178.581	
225.00	-50.706	161.506	
226.00	-50.907	131.081	
227.00	-51.158	106.501	
228.00	-51.429	83.534	
229.00	-51.614	57.015	
230.00	-51.982	35.373	
231.00	-52.121	13.573	
232.00	-52.640	-13.089	
233.00	-53.071	-39.456	
234.00	-53.627	-67.384	
235.00	-54.029	-89.722	
236.00	-54.473	-113.554	
237.00	-55.038	-132.274	
238.00	-55.751	-158.519	
239.00	-56.694	173.981	
240.00	-57.811	150.140	
241.00	-59.805	121.514	
242.00	-61.508	93.956	
243.00	-64.023	63.696	
244.00	-67.558	26.962	
245.00	-72.021	-12.962	
246.00	-76.759	-85.445	
247.00	-72.224	-168.870	
248.00	-68.296	149.220	
249.00	-65.788	121.423	
250.00	-64.368	88.359	
251.00	-62.701	62.228	
252.00	-62.002	36.396	
253.00	-61.667	5.670	
254.00	-61.354	-23.733	
255.00	-61.147	-51.218	
256.00	-60.960	-78.796	
257.00	-60.984	-104.699	
258.00	-61.313	-137.397	
259.00	-61.349	-167.932	
260.00	-61.508	158.398	
261.00	-61.612	125.812	
262.00	-62.221	94.070	
263.00	-62.262	63.786	
264.00	-62.673	31.535	
265.00	-63.405	0.420	
266.00	-63.605	-37.406	
267.00	-63.984	-77.745	
268.00	-64.021	-117.775	
269.00	-63.711	-159.050	
270.00	-63.602	162.660	
271.00	-63.175	124.900	
272.00	-62.759	87.813	
273.00	-62.515	50.539	
274.00	-62.171	16.288	
275.00	-61.871	-14.527	
276.00	-61.498	-50.625	
277.00	-61.003	-78.234	
278.00	-60.797	-107.438	
279.00	-60.675	-132.687	
280.00	-60.477	-167.520	
281.00	-60.851	168.226	
282.00	-61.060	135.124	
283.00	-61.034	110.918	
284.00	-61.439	78.829	
285.00	-61.212	49.472	
286.00	-61.808	16.038	
287.00	-62.426	-15.052	
288.00	-62.944	-41.186	
289.00	-63.659	-79.279	
290.00	-64.197	-115.872	
291.00	-64.465	-159.938	
292.00	-64.036	166.598	
293.00	-63.621	126.377	
294.00	-62.746	92.939	
295.00	-61.818	49.179	
296.00	-61.543	26.040	
297.00	-61.453	-2.346	
298.00	-61.343	-27.604	
299.00	-61.466	-54.445	
300.00	-62.076	-84.296	
301.00	-62.504	-113.552	
302.00	-63.029	-143.928	
303.00	-63.260	-172.498	
304.00	-63.928	160.175	
305.00	-64.760	136.289	
306.00	-65.763	102.108	
307.00	-67.002	74.140	
308.00	-68.024	37.828	
309.00	-68.133	-2.196	
310.00	-68.250	-39.645	
311.00	-68.062	-70.345	
312.00	-67.290	-107.260	
313.00	-67.121	-123.134	
314.00	-66.500	-161.285	
315.00	-66.108	173.838	
316.00	-65.864	146.909	
317.00	-65.773	126.916	
318.00	-65.948	104.686	
319.00	-65.975	83.347	
320.00	-66.344	53.417	
321.00	-66.639	37.903	
322.00	-66.658	15.677	
323.00	-67.016	-10.510	
324.00	-67.297	-26.056	
325.00	-68.354	-50.726	
326.00	-69.034	-64.029	
327.00	-70.338	-94.310	
328.00	-71.725	-116.032	
329.00	-74.138	-141.553	
330.00	-75.860	-169.396	
331.00	-76.302	151.500	
332.00	-77.494	122.332	
333.00	-76.636	88.113	
334.00	-77.674	63.717	
335.00	-76.040	37.511	
336.00	-76.616	22.855	
337.00	-77.893	-9.713	
338.00	-77.458	-27.317	
339.00	-77.733	-42.183	
340.00	-78.960	-54.776	
341.00	-79.109	-64.796	
342.00	-80.716	-98.070	
343.00	-80.736	-113.911	
344.00	-84.842	-130.467	
345.00	-84.898	161.245	
346.00	-82.825	132.423	
347.00	-79.584	111.660	
348.00	-77.084	97.978	
349.00	-75.750	90.183	
350.00	-73.756	81.292	
351.00	-71.357	83.226	
352.00	-70.725	74.006	
353.00	-69.712	79.908	
354.00	-69.205	78.350	
355.00	-68.933	78.451	
356.00	-68.568	80.979	
357.00	-68.911	84.629	
358.00	-68.636	87.969	
359.00	-68.608	89.006	
Frequency	3950.00	MHz	
Channel	test		
Scan Axis name	Azimuth  [deg]		
Scan Axis	Amplitude	Phase	
			
0.00	-79.585	111.086	
1.00	-80.521	96.158	
2.00	-79.528	49.499	
3.00	-82.271	24.822	
4.00	-79.731	7.780	
5.00	-80.792	-13.120	
6.00	-79.699	-10.102	
7.00	-79.297	1.642	
8.00	-78.454	-19.674	
9.00	-81.640	-7.560	
10.00	-83.283	0.956	
11.00	-88.339	21.905	
12.00	-91.491	59.666	
13.00	-87.606	108.822	
14.00	-79.122	154.122	
15.00	-79.982	174.907	
16.00	-75.650	-178.701	
17.00	-73.689	-150.770	
18.00	-72.175	-148.540	
19.00	-70.567	-137.189	
20.00	-69.794	-128.671	
21.00	-68.946	-126.335	
22.00	-69.414	-112.305	
23.00	-68.438	-98.585	
24.00	-68.472	-89.841	
25.00	-68.976	-72.691	
26.00	-68.988	-64.540	
27.00	-70.067	-54.518	
28.00	-70.429	-56.477	
29.00	-70.496	-68.874	
30.00	-74.697	-57.673	
31.00	-76.641	-57.679	
32.00	-83.435	-67.762	
33.00	-90.078	-53.234	
34.00	-108.971	13.321	
35.00	-86.563	-163.809	
36.00	-83.724	-155.588	
37.00	-79.603	-152.922	
38.00	-78.885	-134.403	
39.00	-76.003	-124.681	
40.00	-75.854	-118.298	
41.00	-75.996	-92.855	
42.00	-77.872	-82.558	
43.00	-78.107	-62.554	
44.00	-84.283	-42.191	
45.00	-84.954	-23.026	
46.00	-81.844	30.273	
47.00	-80.760	68.741	
48.00	-84.569	108.098	
49.00	-82.255	143.328	
50.00	-80.502	175.645	
51.00	-82.210	-165.170	
52.00	-80.053	-139.376	
53.00	-80.065	-114.299	
54.00	-76.355	-103.352	
55.00	-75.637	-108.018	
56.00	-74.981	-82.983	
57.00	-74.922	-73.395	
58.00	-75.026	-50.631	
59.00	-77.596	-57.425	
60.00	-77.090	-8.598	
61.00	-82.211	20.849	
62.00	-84.996	25.301	
63.00	-84.759	120.216	
64.00	-90.622	124.167	
65.00	-88.964	111.594	
66.00	-86.458	-76.281	
67.00	-88.044	29.883	
68.00	-81.206	37.225	
69.00	-77.421	48.506	
70.00	-73.915	77.729	
71.00	-72.109	92.748	
72.00	-70.668	112.191	
73.00	-69.362	128.802	
74.00	-68.854	158.226	
75.00	-69.156	178.682	
76.00	-69.556	-151.854	
77.00	-69.912	-120.178	
78.00	-71.036	-86.643	
79.00	-73.031	-51.953	
80.00	-71.922	-8.510	
81.00	-71.062	16.896	
82.00	-69.467	62.556	
83.00	-67.672	81.748	
84.00	-66.804	111.675	
85.00	-65.123	144.119	
86.00	-64.302	175.807	
87.00	-63.410	-150.729	
88.00	-63.270	-129.067	
89.00	-62.134	-91.996	
90.00	-61.703	-82.655	
91.00	-61.549	-38.329	
92.00	-61.172	-22.927	
93.00	-61.367	15.366	
94.00	-61.412	28.030	
95.00	-61.750	64.545	
96.00	-61.514	95.011	
97.00	-61.757	121.993	
98.00	-61.548	160.114	
99.00	-61.365	-179.904	
100.00	-60.748	-139.455	
101.00	-60.527	-113.457	
102.00	-60.294	-84.573	
103.00	-59.552	-54.111	
104.00	-59.407	-26.492	
105.00	-59.323	5.873	
106.00	-59.073	35.940	
107.00	-59.043	60.827	
108.00	-58.479	91.975	
109.00	-58.188	120.489	
110.00	-57.765	143.870	
111.00	-57.492	166.257	
112.00	-56.958	-172.544	
113.00	-56.551	-140.443	
114.00	-55.949	-117.975	
115.00	-55.604	-87.492	
116.00	-55.217	-66.630	
117.00	-54.891	-46.153	
118.00	-54.445	-23.089	
119.00	-54.090	-1.055	
120.00	-53.813	18.248	
121.00	-53.446	42.324	
122.00	-52.956	69.042	
123.00	-52.553	86.657	
124.00	-52.154	110.674	
125.00	-51.692	135.341	
126.00	-51.220	159.724	
127.00	-50.877	-176.864	
128.00	-50.366	-157.804	
129.00	-49.908	-141.241	
130.00	-49.608	-119.887	
131.00	-49.168	-96.719	
132.00	-48.941	-72.903	
133.00	-48.608	-59.223	
134.00	-48.354	-34.407	
135.00	-48.138	-23.230	
136.00	-47.956	-1.676	
137.00	-47.635	19.693	
138.00	-47.392	23.838	
139.00	-47.234	52.017	
140.00	-47.035	60.560	
141.00	-46.827	80.267	
142.00	-46.675	97.065	
143.00	-46.455	104.745	
144.00	-46.337	123.382	
145.00	-46.148	128.339	
146.00	-46.046	140.264	
147.00	-45.877	154.794	
148.00	-45.663	156.208	
149.00	-45.491	173.110	
150.00	-45.326	176.229	
151.00	-45.207	-156.333	
152.00	-44.962	-152.862	
153.00	-44.783	-142.486	
154.00	-44.600	-140.113	
155.00	-44.434	-137.331	
156.00	-44.299	-126.016	
157.00	-44.104	-107.043	
158.00	-43.950	-102.895	
159.00	-43.842	-88.622	
160.00	-43.684	-91.695	
161.00	-43.620	-72.990	
162.00	-43.476	-79.571	
163.00	-43.476	-66.550	
164.00	-43.381	-65.109	
165.00	-43.322	-65.938	
166.00	-43.320	-56.923	
167.00	-43.254	-64.882	
168.00	-43.273	-53.675	
169.00	-43.250	-63.746	
170.00	-43.238	-58.546	
171.00	-43.238	-66.686	
172.00	-43.266	-61.760	
173.00	-43.271	-55.380	
174.00	-43.267	-66.423	
175.00	-43.285	-56.999	
176.00	-43.281	-73.073	
177.00	-43.248	-75.310	
178.00	-43.301	-76.623	
179.00	-43.305	-97.391	
180.00	-43.381	-76.360	
181.00	-43.383	-101.520	
182.00	-43.494	-94.703	
183.00	-43.599	-105.740	
184.00	-43.701	-117.836	
185.00	-43.830	-115.597	
186.00	-44.005	-127.973	
187.00	-44.185	-140.610	
188.00	-44.326	-149.120	
189.00	-44.520	-153.425	
190.00	-44.698	-163.823	
191.00	-44.862	-169.230	
192.00	-44.981	176.988	
193.00	-45.135	164.351	
194.00	-45.260	153.776	
195.00	-45.365	138.713	
196.00	-45.435	126.093	
197.00	-45.440	112.541	
198.00	-45.475	98.011	
199.00	-45.551	88.726	
200.00	-45.504	70.451	
201.00	-45.599	58.231	
202.00	-45.703	41.528	
203.00	-45.763	26.399	
204.00	-45.887	12.425	
205.00	-45.972	-7.196	
206.00	-46.103	-18.543	
207.00	-46.254	-38.696	
208.00	-46.511	-49.936	
209.00	-46.752	-71.417	
210.00	-47.014	-86.813	
211.00	-47.403	-108.765	
212.00	-47.776	-127.523	
213.00	-48.209	-147.492	
214.00	-48.636	-177.806	
215.00	-49.048	165.414	
216.00	-49.646	141.834	
217.00	-50.202	103.104	
218.00	-50.709	93.053	
219.00	-51.523	71.039	
220.00	-51.941	36.254	
221.00	-52.660	19.552	
222.00	-53.089	-18.015	
223.00	-53.485	-38.978	
224.00	-53.718	-69.560	
225.00	-53.849	-90.710	
226.00	-54.019	-122.455	
227.00	-54.092	-148.220	
228.00	-54.241	-173.882	
229.00	-54.466	160.359	
230.00	-54.982	136.865	
231.00	-55.149	112.753	
232.00	-55.662	86.034	
233.00	-55.929	57.488	
234.00	-56.342	28.183	
235.00	-57.005	2.439	
236.00	-57.336	-23.106	
237.00	-57.754	-46.143	
238.00	-58.166	-76.742	
239.00	-58.312	-106.368	
240.00	-58.703	-131.539	
241.00	-59.549	-162.363	
242.00	-60.694	170.149	
243.00	-61.774	138.965	
244.00	-63.944	112.027	
245.00	-66.812	77.020	
246.00	-70.373	37.042	
247.00	-73.519	-22.624	
248.00	-72.446	-88.404	
249.00	-70.062	-139.643	
250.00	-67.354	-179.709	
251.00	-65.464	148.429	
252.00	-64.140	118.906	
253.00	-62.870	86.971	
254.00	-62.076	57.979	
255.00	-61.345	31.190	
256.00	-61.137	2.523	
257.00	-60.601	-22.609	
258.00	-60.883	-54.754	
259.00	-60.890	-84.365	
260.00	-61.024	-118.591	
261.00	-60.640	-153.989	
262.00	-60.624	171.949	
263.00	-60.531	141.126	
264.00	-60.395	111.468	
265.00	-60.196	80.317	
266.00	-60.185	45.015	
267.00	-60.056	8.549	
268.00	-59.924	-24.898	
269.00	-59.857	-63.208	
270.00	-59.977	-98.109	
271.00	-59.840	-131.285	
272.00	-60.070	-165.528	
273.00	-60.157	158.260	
274.00	-60.640	123.652	
275.00	-60.482	90.881	
276.00	-60.457	54.569	
277.00	-60.096	22.545	
278.00	-60.027	-5.637	
279.00	-59.928	-33.788	
280.00	-59.708	-66.895	
281.00	-59.522	-88.558	
282.00	-59.937	-122.340	
283.00	-60.407	-147.739	
284.00	-61.000	-173.799	
285.00	-61.760	155.388	
286.00	-62.931	124.503	
287.00	-63.848	88.936	
288.00	-64.673	60.968	
289.00	-65.597	20.465	
290.00	-66.648	-16.304	
291.00	-66.590	-64.464	
292.00	-67.333	-100.134	
293.00	-66.734	-144.499	
294.00	-66.462	174.093	
295.00	-65.666	124.503	
296.00	-65.303	96.637	
297.00	-64.565	63.853	
298.00	-63.705	33.027	
299.00	-62.813	2.427	
300.00	-62.472	-27.483	
301.00	-62.174	-57.684	
302.00	-61.929	-85.398	
303.00	-61.694	-111.471	
304.00	-61.624	-141.750	
305.00	-61.671	-164.449	
306.00	-61.938	163.808	
307.00	-62.246	141.225	
308.00	-62.350	116.155	
309.00	-62.848	86.889	
310.00	-63.308	50.053	
311.00	-64.412	34.711	
312.00	-64.911	1.593	
313.00	-65.355	-12.898	
314.00	-66.031	-45.416	
315.00	-67.056	-75.319	
316.00	-68.094	-103.794	
317.00	-68.782	-128.126	
318.00	-70.674	-151.745	
319.00	-71.462	178.195	
320.00	-72.303	139.167	
321.00	-71.557	109.217	
322.00	-72.283	88.978	
323.00	-72.356	53.831	
324.00	-72.357	33.179	
325.00	-72.956	4.079	
326.00	-74.101	-13.938	
327.00	-74.803	-50.788	
328.00	-75.456	-71.232	
329.00	-76.974	-106.156	
330.00	-76.400	-151.197	
331.00	-76.738	170.497	
332.00	-74.993	147.521	
333.00	-74.473	126.891	
334.00	-72.803	105.248	
335.00	-72.450	82.732	
336.00	-72.378	70.445	
337.00	-72.050	51.587	
338.00	-72.576	24.547	
339.00	-73.771	24.111	
340.00	-74.986	-2.618	
341.00	-75.409	-21.264	
342.00	-76.860	-43.094	
343.00	-75.746	-59.012	
344.00	-76.161	-83.977	
345.00	-76.759	-87.698	
346.00	-76.645	-115.890	
347.00	-76.799	-138.554	
348.00	-77.877	-140.073	
349.00	-78.899	-172.768	
350.00	-79.676	173.024	
351.00	-79.093	168.297	
352.00	-79.465	142.835	
353.00	-78.110	122.942	
354.00	-76.399	128.302	
355.00	-77.655	114.469	
356.00	-76.924	108.339	
357.00	-78.495	95.000	
358.00	-76.069	99.403	
359.00	-77.390	84.425	
Frequency	4000.00	MHz	
Channel	test		
Scan Axis name	Azimuth  [deg]		
Scan Axis	Amplitude	Phase	
			
0.00	-73.519	-22.711	
1.00	-72.103	-7.086	
2.00	-71.007	-1.583	
3.00	-70.318	9.177	
4.00	-69.369	12.770	
5.00	-69.788	18.557	
6.00	-70.367	25.783	
7.00	-70.941	40.871	
8.00	-73.716	40.343	
9.00	-76.143	68.372	
10.00	-80.524	92.318	
11.00	-84.564	149.023	
12.00	-77.280	176.690	
13.00	-75.367	-157.564	
14.00	-71.032	-147.335	
15.00	-69.947	-120.358	
16.00	-68.640	-122.105	
17.00	-67.585	-102.606	
18.00	-67.392	-92.168	
19.00	-67.400	-83.956	
20.00	-68.399	-69.102	
21.00	-68.939	-66.921	
22.00	-71.027	-39.186	
23.00	-72.439	-20.723	
24.00	-73.905	12.119	
25.00	-74.028	38.379	
26.00	-72.729	62.541	
27.00	-72.441	92.966	
28.00	-71.361	106.187	
29.00	-71.733	112.975	
30.00	-72.033	144.141	
31.00	-71.549	153.650	
32.00	-71.498	168.225	
33.00	-71.449	-164.095	
34.00	-71.271	-143.598	
35.00	-71.225	-116.122	
36.00	-71.323	-92.239	
37.00	-69.984	-72.202	
38.00	-70.849	-43.939	
39.00	-70.346	-20.932	
40.00	-69.463	-0.995	
41.00	-69.799	26.481	
42.00	-70.033	59.237	
43.00	-69.919	81.468	
44.00	-69.157	103.658	
45.00	-69.352	132.997	
46.00	-69.859	166.708	
47.00	-69.661	-160.512	
48.00	-70.928	-130.481	
49.00	-70.481	-102.565	
50.00	-70.324	-73.361	
51.00	-71.027	-30.844	
52.00	-70.490	-8.483	
53.00	-70.814	27.473	
54.00	-70.154	50.766	
55.00	-69.872	56.508	
56.00	-69.587	87.538	
57.00	-69.829	119.225	
58.00	-69.104	153.715	
59.00	-69.861	173.487	
60.00	-69.681	-146.122	
61.00	-69.146	-108.279	
62.00	-68.456	-83.472	
63.00	-68.127	-35.820	
64.00	-67.904	-17.403	
65.00	-67.703	24.279	
66.00	-66.984	48.880	
67.00	-66.868	75.797	
68.00	-65.869	109.141	
69.00	-65.846	136.849	
70.00	-65.544	169.815	
71.00	-65.575	-164.391	
72.00	-65.368	-134.503	
73.00	-65.366	-101.339	
74.00	-65.215	-68.503	
75.00	-65.110	-34.812	
76.00	-65.312	1.287	
77.00	-64.846	36.093	
78.00	-64.125	68.129	
79.00	-63.182	99.741	
80.00	-62.460	134.389	
81.00	-61.712	147.585	
82.00	-61.260	-176.903	
83.00	-60.677	-156.665	
84.00	-60.405	-127.306	
85.00	-60.077	-97.919	
86.00	-60.191	-62.222	
87.00	-59.851	-32.281	
88.00	-60.189	-2.734	
89.00	-59.851	33.562	
90.00	-59.958	49.140	
91.00	-59.574	97.487	
92.00	-59.392	118.646	
93.00	-59.092	162.487	
94.00	-58.549	174.280	
95.00	-58.257	-146.588	
96.00	-57.857	-119.983	
97.00	-57.623	-91.938	
98.00	-57.190	-56.257	
99.00	-56.892	-37.100	
100.00	-56.688	-0.238	
101.00	-56.294	26.794	
102.00	-55.995	58.213	
103.00	-55.651	88.091	
104.00	-55.372	116.899	
105.00	-55.052	150.661	
106.00	-54.660	-179.660	
107.00	-54.256	-155.214	
108.00	-53.970	-125.139	
109.00	-53.803	-97.981	
110.00	-53.441	-75.740	
111.00	-53.302	-53.203	
112.00	-53.094	-34.462	
113.00	-52.982	0.688	
114.00	-52.868	24.183	
115.00	-52.754	56.122	
116.00	-52.674	77.804	
117.00	-52.527	100.342	
118.00	-52.289	124.815	
119.00	-52.055	147.307	
120.00	-51.803	167.836	
121.00	-51.476	-167.799	
122.00	-51.222	-142.434	
123.00	-51.116	-125.585	
124.00	-50.791	-102.234	
125.00	-50.578	-78.524	
126.00	-50.515	-55.041	
127.00	-50.243	-32.648	
128.00	-50.013	-13.163	
129.00	-49.844	2.075	
130.00	-49.722	23.673	
131.00	-49.366	46.794	
132.00	-49.114	70.256	
133.00	-48.727	83.475	
134.00	-48.504	108.477	
135.00	-48.161	118.283	
136.00	-47.913	140.423	
137.00	-47.633	159.827	
138.00	-47.442	163.316	
139.00	-47.176	-168.866	
140.00	-46.950	-160.957	
141.00	-46.878	-141.104	
142.00	-46.613	-124.362	
143.00	-46.504	-116.783	
144.00	-46.389	-97.619	
145.00	-46.227	-92.819	
146.00	-46.153	-79.587	
147.00	-46.085	-65.321	
148.00	-46.011	-63.035	
149.00	-45.903	-45.759	
150.00	-45.786	-41.717	
151.00	-45.778	-13.158	
152.00	-45.678	-9.776	
153.00	-45.656	1.263	
154.00	-45.557	2.907	
155.00	-45.530	5.861	
156.00	-45.482	17.985	
157.00	-45.395	36.565	
158.00	-45.313	41.201	
159.00	-45.307	54.942	
160.00	-45.248	51.488	
161.00	-45.258	69.762	
162.00	-45.175	62.905	
163.00	-45.171	76.057	
164.00	-45.144	76.905	
165.00	-45.140	76.022	
166.00	-45.106	84.562	
167.00	-45.134	76.556	
168.00	-45.169	87.572	
169.00	-45.155	76.974	
170.00	-45.195	82.265	
171.00	-45.164	73.566	
172.00	-45.168	78.941	
173.00	-45.131	83.624	
174.00	-45.086	72.948	
175.00	-44.987	81.876	
176.00	-44.973	65.057	
177.00	-44.864	63.061	
178.00	-44.805	60.887	
179.00	-44.727	40.501	
180.00	-44.676	61.417	
181.00	-44.552	35.942	
182.00	-44.535	43.207	
183.00	-44.560	31.429	
184.00	-44.531	20.122	
185.00	-44.546	22.057	
186.00	-44.598	10.175	
187.00	-44.684	-2.277	
188.00	-44.738	-9.552	
189.00	-44.831	-13.656	
190.00	-44.965	-23.276	
191.00	-45.110	-28.205	
192.00	-45.242	-41.108	
193.00	-45.444	-53.366	
194.00	-45.625	-63.129	
195.00	-45.841	-77.859	
196.00	-45.946	-90.553	
197.00	-46.125	-103.890	
198.00	-46.292	-118.560	
199.00	-46.414	-128.396	
200.00	-46.571	-146.666	
201.00	-46.766	-159.398	
202.00	-46.955	-177.176	
203.00	-47.095	167.189	
204.00	-47.338	152.900	
205.00	-47.485	132.475	
206.00	-47.753	120.500	
207.00	-47.985	99.724	
208.00	-48.288	87.001	
209.00	-48.633	65.345	
210.00	-48.974	49.358	
211.00	-49.405	25.795	
212.00	-49.817	6.520	
213.00	-50.375	-14.232	
214.00	-50.895	-44.924	
215.00	-51.358	-63.217	
216.00	-51.939	-87.283	
217.00	-52.543	-126.781	
218.00	-53.200	-136.031	
219.00	-54.020	-159.537	
220.00	-54.646	166.945	
221.00	-55.520	150.888	
222.00	-56.369	113.668	
223.00	-57.272	94.075	
224.00	-58.573	62.926	
225.00	-59.403	39.169	
226.00	-60.282	-0.272	
227.00	-60.792	-33.961	
228.00	-60.930	-65.365	
229.00	-60.762	-97.590	
230.00	-60.382	-123.746	
231.00	-60.485	-150.708	
232.00	-60.690	178.484	
233.00	-61.150	150.154	
234.00	-61.720	117.818	
235.00	-62.435	93.170	
236.00	-63.274	58.351	
237.00	-63.339	29.021	
238.00	-63.707	-7.700	
239.00	-63.345	-46.828	
240.00	-62.767	-80.494	
241.00	-62.568	-115.875	
242.00	-62.393	-147.225	
243.00	-62.222	176.911	
244.00	-62.182	145.768	
245.00	-62.316	112.752	
246.00	-62.759	74.886	
247.00	-62.697	38.750	
248.00	-62.520	-1.739	
249.00	-61.665	-34.004	
250.00	-61.089	-69.269	
251.00	-60.202	-100.031	
252.00	-59.861	-130.649	
253.00	-59.428	-161.127	
254.00	-59.298	164.930	
255.00	-59.016	138.622	
256.00	-58.893	106.944	
257.00	-58.482	79.729	
258.00	-58.530	46.762	
259.00	-58.357	18.034	
260.00	-58.482	-13.080	
261.00	-58.660	-44.990	
262.00	-58.788	-75.935	
263.00	-59.130	-105.157	
264.00	-59.637	-136.793	
265.00	-60.258	-167.856	
266.00	-60.678	154.157	
267.00	-61.286	115.203	
268.00	-61.136	75.749	
269.00	-61.037	34.838	
270.00	-60.623	-2.988	
271.00	-60.564	-38.057	
272.00	-60.469	-75.101	
273.00	-60.345	-108.856	
274.00	-60.304	-144.644	
275.00	-60.388	-173.957	
276.00	-60.748	151.412	
277.00	-61.051	120.721	
278.00	-61.550	90.878	
279.00	-61.513	59.735	
280.00	-61.639	18.083	
281.00	-61.531	-13.896	
282.00	-61.212	-49.700	
283.00	-60.543	-76.848	
284.00	-60.165	-105.630	
285.00	-59.891	-133.445	
286.00	-59.939	-163.922	
287.00	-60.251	167.154	
288.00	-60.840	146.209	
289.00	-61.707	111.823	
290.00	-62.452	79.645	
291.00	-63.955	40.588	
292.00	-64.969	8.386	
293.00	-65.724	-34.247	
294.00	-65.862	-75.715	
295.00	-65.155	-124.602	
296.00	-65.832	-148.606	
297.00	-66.068	175.872	
298.00	-66.637	143.297	
299.00	-66.411	106.819	
300.00	-66.580	68.944	
301.00	-66.461	28.738	
302.00	-65.707	-0.623	
303.00	-65.837	-30.459	
304.00	-65.811	-63.162	
305.00	-65.759	-90.249	
306.00	-65.961	-126.282	
307.00	-65.902	-156.131	
308.00	-66.060	171.047	
309.00	-65.728	135.266	
310.00	-65.274	99.960	
311.00	-64.888	79.138	
312.00	-64.226	44.945	
313.00	-63.472	31.086	
314.00	-63.285	-0.917	
315.00	-63.292	-26.771	
316.00	-63.248	-52.314	
317.00	-63.519	-70.749	
318.00	-64.289	-91.741	
319.00	-64.718	-111.793	
320.00	-65.249	-136.134	
321.00	-66.206	-155.509	
322.00	-66.524	-175.646	
323.00	-67.993	152.047	
324.00	-68.422	128.475	
325.00	-69.746	100.702	
326.00	-70.929	74.808	
327.00	-71.170	39.700	
328.00	-72.237	13.908	
329.00	-71.422	-16.270	
330.00	-71.059	-34.968	
331.00	-72.104	-62.509	
332.00	-72.466	-92.059	
333.00	-71.942	-113.668	
334.00	-72.924	-131.515	
335.00	-74.193	-164.552	
336.00	-74.789	171.032	
337.00	-73.285	142.757	
338.00	-72.066	118.860	
339.00	-72.632	105.440	
340.00	-72.613	90.554	
341.00	-72.662	81.113	
342.00	-72.785	68.064	
343.00	-74.483	51.119	
344.00	-75.959	36.534	
345.00	-78.018	32.864	
346.00	-82.475	-2.882	
347.00	-80.704	-60.475	
348.00	-79.913	-96.153	
349.00	-74.465	-111.643	
350.00	-73.020	-116.257	
351.00	-71.986	-119.286	
352.00	-69.954	-129.932	
353.00	-70.241	-123.858	
354.00	-70.537	-127.279	
355.00	-71.331	-118.441	
356.00	-72.139	-116.509	
357.00	-73.278	-107.374	
358.00	-74.225	-90.242	
359.00	-75.752	-83.869	
Frequency	4050.00	MHz	
Channel	test		
Scan Axis name	Azimuth  [deg]		
Scan Axis	Amplitude	Phase	
			
0.00	-77.539	26.397	
1.00	-75.327	63.572	
2.00	-73.651	66.492	
3.00	-72.444	81.462	
4.00	-71.519	79.924	
5.00	-70.172	91.372	
6.00	-70.650	99.034	
7.00	-71.726	108.893	
8.00	-72.664	103.336	
9.00	-75.872	123.761	
10.00	-79.715	139.232	
11.00	-82.281	170.658	
12.00	-84.340	-110.636	
13.00	-80.492	-54.893	
14.00	-74.498	-53.876	
15.00	-73.077	-33.565	
16.00	-71.941	-26.121	
17.00	-69.989	-1.526	
18.00	-69.667	10.922	
19.00	-69.588	24.515	
20.00	-69.404	47.964	
21.00	-68.668	54.359	
22.00	-67.890	83.886	
23.00	-67.191	98.388	
24.00	-67.059	118.054	
25.00	-66.120	135.169	
26.00	-66.263	145.884	
27.00	-67.108	161.035	
28.00	-67.957	166.429	
29.00	-69.446	167.172	
30.00	-70.506	-154.166	
31.00	-70.711	-140.913	
32.00	-71.860	-106.882	
33.00	-71.801	-72.310	
34.00	-71.309	-46.552	
35.00	-69.508	-13.961	
36.00	-67.457	6.960	
37.00	-66.610	22.613	
38.00	-66.861	41.201	
39.00	-66.601	68.218	
40.00	-66.978	80.763	
41.00	-67.410	112.851	
42.00	-68.111	142.107	
43.00	-68.308	167.721	
44.00	-68.013	-169.057	
45.00	-68.618	-136.710	
46.00	-69.123	-99.305	
47.00	-69.030	-56.112	
48.00	-68.537	-19.080	
49.00	-67.780	12.690	
50.00	-66.986	37.993	
51.00	-65.945	72.457	
52.00	-64.989	94.313	
53.00	-65.397	125.319	
54.00	-65.096	142.277	
55.00	-65.555	153.279	
56.00	-65.848	-176.201	
57.00	-66.857	-146.593	
58.00	-66.489	-109.117	
59.00	-66.475	-79.857	
60.00	-66.024	-38.550	
61.00	-65.556	0.424	
62.00	-65.272	30.098	
63.00	-64.342	74.518	
64.00	-63.814	100.059	
65.00	-63.208	135.526	
66.00	-62.894	160.163	
67.00	-62.417	-170.904	
68.00	-61.664	-138.100	
69.00	-61.586	-107.905	
70.00	-61.225	-74.426	
71.00	-61.124	-51.882	
72.00	-60.963	-16.703	
73.00	-60.981	14.598	
74.00	-60.827	49.605	
75.00	-60.717	81.374	
76.00	-60.805	116.865	
77.00	-60.463	153.607	
78.00	-59.857	-176.342	
79.00	-59.468	-146.782	
80.00	-58.981	-113.983	
81.00	-58.637	-98.889	
82.00	-58.647	-60.609	
83.00	-58.284	-39.822	
84.00	-58.205	-6.284	
85.00	-57.689	24.361	
86.00	-58.155	62.140	
87.00	-57.661	94.042	
88.00	-57.971	122.517	
89.00	-57.553	159.652	
90.00	-57.717	174.904	
91.00	-57.568	-135.339	
92.00	-57.166	-115.228	
93.00	-56.879	-68.836	
94.00	-56.474	-57.677	
95.00	-56.168	-16.740	
96.00	-55.571	8.867	
97.00	-55.454	37.094	
98.00	-55.037	71.758	
99.00	-54.900	90.653	
100.00	-54.794	126.948	
101.00	-54.745	153.717	
102.00	-54.534	-175.072	
103.00	-54.679	-145.005	
104.00	-54.395	-114.144	
105.00	-54.348	-79.708	
106.00	-53.985	-49.737	
107.00	-53.881	-23.010	
108.00	-53.549	6.835	
109.00	-53.388	35.468	
110.00	-53.198	58.427	
111.00	-53.094	81.924	
112.00	-53.126	102.547	
113.00	-53.051	138.444	
114.00	-52.908	162.267	
115.00	-52.785	-164.992	
116.00	-52.741	-143.192	
117.00	-52.504	-121.083	
118.00	-52.376	-96.060	
119.00	-52.218	-72.659	
120.00	-52.073	-51.937	
121.00	-52.029	-27.893	
122.00	-51.936	-1.215	
123.00	-51.855	16.082	
124.00	-51.728	40.536	
125.00	-51.674	65.749	
126.00	-51.477	89.805	
127.00	-51.346	114.130	
128.00	-51.105	133.073	
129.00	-50.897	148.254	
130.00	-50.692	170.165	
131.00	-50.499	-167.938	
132.00	-50.266	-144.206	
133.00	-50.065	-132.053	
134.00	-49.862	-106.790	
135.00	-49.627	-97.645	
136.00	-49.494	-75.849	
137.00	-49.229	-56.821	
138.00	-48.996	-53.232	
139.00	-48.774	-25.082	
140.00	-48.518	-17.602	
141.00	-48.417	2.802	
142.00	-48.130	19.338	
143.00	-47.924	27.306	
144.00	-47.701	46.418	
145.00	-47.474	50.944	
146.00	-47.374	64.991	
147.00	-47.153	78.957	
148.00	-47.030	81.890	
149.00	-46.847	99.707	
150.00	-46.730	104.133	
151.00	-46.660	133.313	
152.00	-46.509	136.848	
153.00	-46.454	148.917	
154.00	-46.368	150.785	
155.00	-46.321	154.767	
156.00	-46.359	167.906	
157.00	-46.214	-172.703	
158.00	-46.217	-167.465	
159.00	-46.149	-153.176	
160.00	-46.142	-155.625	
161.00	-46.094	-136.785	
162.00	-46.115	-143.523	
163.00	-46.088	-129.173	
164.00	-46.095	-128.955	
165.00	-46.109	-129.096	
166.00	-46.107	-120.543	
167.00	-46.142	-128.208	
168.00	-46.190	-116.692	
169.00	-46.237	-128.286	
170.00	-46.348	-122.119	
171.00	-46.431	-131.563	
172.00	-46.490	-125.168	
173.00	-46.599	-121.576	
174.00	-46.616	-131.744	
175.00	-46.739	-123.589	
176.00	-46.731	-141.644	
177.00	-46.723	-144.004	
178.00	-46.747	-147.795	
179.00	-46.757	-168.330	
180.00	-46.712	-148.463	
181.00	-46.573	-175.856	
182.00	-46.557	-168.828	
183.00	-46.499	178.123	
184.00	-46.388	166.227	
185.00	-46.337	167.441	
186.00	-46.303	155.566	
187.00	-46.344	141.781	
188.00	-46.316	135.136	
189.00	-46.340	130.403	
190.00	-46.452	121.272	
191.00	-46.536	115.699	
192.00	-46.700	103.623	
193.00	-46.902	91.010	
194.00	-47.122	82.041	
195.00	-47.446	67.197	
196.00	-47.759	54.866	
197.00	-48.047	41.275	
198.00	-48.360	26.212	
199.00	-48.673	15.478	
200.00	-49.003	-4.148	
201.00	-49.312	-18.381	
202.00	-49.672	-37.514	
203.00	-49.865	-54.780	
204.00	-50.015	-71.779	
205.00	-50.207	-94.375	
206.00	-50.283	-108.219	
207.00	-50.324	-130.589	
208.00	-50.310	-144.010	
209.00	-50.368	-166.657	
210.00	-50.523	176.837	
211.00	-50.698	154.915	
212.00	-50.985	136.425	
213.00	-51.448	115.994	
214.00	-51.792	86.414	
215.00	-52.361	70.505	
216.00	-53.193	46.981	
217.00	-53.958	9.079	
218.00	-54.970	1.294	
219.00	-56.126	-21.474	
220.00	-57.197	-55.559	
221.00	-58.554	-72.180	
222.00	-59.843	-111.937	
223.00	-61.235	-133.243	
224.00	-62.643	-168.837	
225.00	-64.110	161.282	
226.00	-65.213	116.514	
227.00	-65.266	78.294	
228.00	-64.865	40.113	
229.00	-64.120	2.122	
230.00	-63.291	-26.592	
231.00	-62.323	-56.107	
232.00	-61.905	-87.626	
233.00	-61.143	-116.469	
234.00	-60.630	-149.320	
235.00	-60.510	-172.065	
236.00	-60.369	159.864	
237.00	-60.126	135.865	
238.00	-60.074	104.173	
239.00	-59.910	72.737	
240.00	-59.756	42.200	
241.00	-60.136	10.465	
242.00	-60.133	-21.253	
243.00	-60.281	-57.455	
244.00	-60.474	-90.617	
245.00	-60.483	-121.932	
246.00	-60.577	-154.037	
247.00	-60.706	172.492	
248.00	-60.851	136.548	
249.00	-61.015	105.248	
250.00	-61.003	68.862	
251.00	-60.760	34.461	
252.00	-60.407	3.664	
253.00	-60.409	-31.393	
254.00	-60.125	-65.332	
255.00	-60.465	-90.894	
256.00	-60.487	-124.323	
257.00	-60.439	-152.804	
258.00	-60.718	170.151	
259.00	-60.772	138.174	
260.00	-60.838	101.066	
261.00	-60.442	66.062	
262.00	-60.304	34.057	
263.00	-60.211	3.606	
264.00	-60.572	-26.103	
265.00	-60.746	-58.470	
266.00	-60.781	-96.027	
267.00	-61.185	-134.826	
268.00	-61.330	-174.287	
269.00	-61.217	142.735	
270.00	-60.640	102.285	
271.00	-59.899	67.731	
272.00	-59.595	32.054	
273.00	-59.406	2.169	
274.00	-59.322	-31.896	
275.00	-59.451	-59.568	
276.00	-60.003	-94.717	
277.00	-60.442	-126.032	
278.00	-60.545	-155.013	
279.00	-60.924	175.372	
280.00	-60.937	138.596	
281.00	-61.219	111.072	
282.00	-61.270	75.631	
283.00	-61.911	47.661	
284.00	-62.231	15.500	
285.00	-62.545	-18.164	
286.00	-62.995	-54.864	
287.00	-62.898	-89.957	
288.00	-63.244	-114.836	
289.00	-63.627	-150.766	
290.00	-64.158	176.191	
291.00	-64.658	137.271	
292.00	-65.140	106.139	
293.00	-66.286	63.363	
294.00	-66.826	23.962	
295.00	-66.972	-31.559	
296.00	-66.846	-57.506	
297.00	-66.970	-96.486	
298.00	-66.342	-129.743	
299.00	-66.354	-169.110	
300.00	-65.858	158.688	
301.00	-65.623	120.999	
302.00	-65.465	90.397	
303.00	-64.904	60.773	
304.00	-64.884	31.840	
305.00	-65.001	3.394	
306.00	-65.299	-29.048	
307.00	-66.190	-60.853	
308.00	-66.555	-89.720	
309.00	-67.504	-126.901	
310.00	-66.893	-176.554	
311.00	-66.149	161.823	
312.00	-65.011	124.936	
313.00	-64.031	109.600	
314.00	-63.057	77.286	
315.00	-62.960	54.381	
316.00	-62.952	28.695	
317.00	-63.042	9.834	
318.00	-63.696	-11.022	
319.00	-64.533	-30.833	
320.00	-65.627	-56.835	
321.00	-66.418	-78.651	
322.00	-67.614	-100.830	
323.00	-68.285	-135.853	
324.00	-69.563	-156.579	
325.00	-70.651	165.045	
326.00	-71.820	140.314	
327.00	-72.455	96.612	
328.00	-71.812	67.683	
329.00	-71.184	30.153	
330.00	-69.958	6.478	
331.00	-68.884	-19.407	
332.00	-68.525	-43.492	
333.00	-67.868	-57.701	
334.00	-68.183	-74.939	
335.00	-68.742	-101.513	
336.00	-68.622	-116.398	
337.00	-70.042	-138.288	
338.00	-71.623	-166.321	
339.00	-70.343	178.126	
340.00	-71.404	151.551	
341.00	-71.046	137.690	
342.00	-71.497	109.702	
343.00	-71.301	97.574	
344.00	-71.626	75.638	
345.00	-71.521	62.047	
346.00	-71.974	47.867	
347.00	-72.264	23.892	
348.00	-72.522	-0.596	
349.00	-71.468	-15.956	
350.00	-70.574	-36.078	
351.00	-70.480	-44.649	
352.00	-69.026	-58.973	
353.00	-69.367	-55.504	
354.00	-68.601	-61.691	
355.00	-69.240	-66.257	
356.00	-71.235	-65.536	
357.00	-72.318	-58.748	
358.00	-73.377	-56.801	
359.00	-76.858	-51.567	
Frequency	4100.00	MHz	
Channel	test		
Scan Axis name	Azimuth  [deg]		
Scan Axis	Amplitude	Phase	
			
0.00	-95.505	10.583	
1.00	-94.713	-161.512	
2.00	-85.980	173.511	
3.00	-80.982	-154.951	
4.00	-81.947	-166.651	
5.00	-80.502	-139.668	
6.00	-82.078	-123.034	
7.00	-86.014	-82.798	
8.00	-81.642	-99.272	
9.00	-80.361	-55.931	
10.00	-78.118	-46.969	
11.00	-77.617	-23.330	
12.00	-76.020	-23.316	
13.00	-75.790	9.210	
14.00	-74.695	15.110	
15.00	-73.998	47.687	
16.00	-73.517	52.500	
17.00	-74.265	78.870	
18.00	-74.119	101.495	
19.00	-73.504	115.983	
20.00	-72.695	145.653	
21.00	-72.765	163.272	
22.00	-71.144	-172.196	
23.00	-70.334	-159.595	
24.00	-70.739	-145.976	
25.00	-70.369	-120.244	
26.00	-71.231	-114.485	
27.00	-71.037	-89.705	
28.00	-72.140	-67.453	
29.00	-71.770	-66.538	
30.00	-71.962	-35.710	
31.00	-72.113	-25.701	
32.00	-71.372	-2.651	
33.00	-71.432	25.070	
34.00	-70.628	43.855	
35.00	-70.246	72.140	
36.00	-69.601	90.505	
37.00	-69.618	111.629	
38.00	-70.108	133.094	
39.00	-70.359	167.452	
40.00	-69.795	-166.054	
41.00	-69.526	-137.085	
42.00	-68.170	-109.762	
43.00	-68.564	-92.903	
44.00	-69.120	-73.541	
45.00	-70.496	-42.845	
46.00	-70.817	-0.925	
47.00	-71.133	31.279	
48.00	-70.781	83.464	
49.00	-69.737	108.804	
50.00	-68.410	140.448	
51.00	-67.877	177.331	
52.00	-66.945	-160.818	
53.00	-66.630	-128.656	
54.00	-65.710	-111.702	
55.00	-65.836	-100.779	
56.00	-66.262	-71.168	
57.00	-65.916	-46.465	
58.00	-65.783	-7.437	
59.00	-65.467	15.205	
60.00	-65.598	59.213	
61.00	-65.039	97.138	
62.00	-64.639	124.040	
63.00	-63.462	170.773	
64.00	-63.356	-169.043	
65.00	-62.490	-134.452	
66.00	-61.997	-112.612	
67.00	-61.992	-82.609	
68.00	-61.660	-52.231	
69.00	-62.179	-21.640	
70.00	-62.111	10.789	
71.00	-62.534	36.370	
72.00	-62.796	74.787	
73.00	-62.839	110.433	
74.00	-62.583	150.158	
75.00	-62.153	-176.216	
76.00	-61.552	-137.692	
77.00	-61.183	-104.772	
78.00	-60.637	-72.810	
79.00	-60.253	-43.550	
80.00	-60.202	-9.070	
81.00	-59.966	8.134	
82.00	-59.980	51.073	
83.00	-59.707	72.468	
84.00	-59.349	110.264	
85.00	-58.949	142.508	
86.00	-58.501	-176.132	
87.00	-57.874	-144.100	
88.00	-57.498	-113.183	
89.00	-56.788	-78.494	
90.00	-56.544	-63.453	
91.00	-56.374	-16.168	
92.00	-56.211	3.004	
93.00	-55.932	48.576	
94.00	-55.695	59.097	
95.00	-55.768	101.679	
96.00	-55.334	127.348	
97.00	-55.245	158.565	
98.00	-54.748	-165.033	
99.00	-54.605	-143.966	
100.00	-54.328	-106.112	
101.00	-54.095	-77.514	
102.00	-53.928	-45.869	
103.00	-53.775	-15.654	
104.00	-53.493	14.091	
105.00	-53.552	49.328	
106.00	-53.273	79.178	
107.00	-53.308	106.398	
108.00	-53.279	137.217	
109.00	-53.061	168.415	
110.00	-53.078	-167.356	
111.00	-52.929	-143.163	
112.00	-52.896	-121.170	
113.00	-52.865	-84.014	
114.00	-52.819	-59.847	
115.00	-52.851	-26.432	
116.00	-52.807	-4.711	
117.00	-52.708	18.455	
118.00	-52.814	43.108	
119.00	-52.892	66.862	
120.00	-52.839	88.826	
121.00	-52.897	113.773	
122.00	-52.758	140.777	
123.00	-52.675	158.251	
124.00	-52.639	-177.459	
125.00	-52.580	-151.485	
126.00	-52.495	-127.344	
127.00	-52.354	-104.278	
128.00	-52.224	-85.218	
129.00	-52.139	-69.759	
130.00	-51.965	-48.044	
131.00	-51.976	-26.119	
132.00	-51.822	-1.529	
133.00	-51.752	11.040	
134.00	-51.651	36.715	
135.00	-51.554	46.006	
136.00	-51.620	70.052	
137.00	-51.574	89.632	
138.00	-51.551	94.498	
139.00	-51.550	124.146	
140.00	-51.479	131.942	
141.00	-51.545	153.352	
142.00	-51.465	169.718	
143.00	-51.440	177.526	
144.00	-51.502	-162.349	
145.00	-51.433	-159.416	
146.00	-51.416	-145.593	
147.00	-51.435	-132.886	
148.00	-51.442	-131.281	
149.00	-51.254	-115.059	
150.00	-51.217	-111.978	
151.00	-51.093	-83.608	
152.00	-50.946	-82.104	
153.00	-50.778	-71.280	
154.00	-50.544	-71.728	
155.00	-50.310	-68.555	
156.00	-50.110	-55.414	
157.00	-49.808	-37.901	
158.00	-49.624	-32.589	
159.00	-49.408	-19.176	
160.00	-49.214	-21.710	
161.00	-48.990	-2.878	
162.00	-48.817	-10.205	
163.00	-48.738	4.896	
164.00	-48.654	4.801	
165.00	-48.593	5.782	
166.00	-48.521	13.568	
167.00	-48.537	6.376	
168.00	-48.585	18.162	
169.00	-48.576	6.352	
170.00	-48.556	13.357	
171.00	-48.618	2.443	
172.00	-48.692	11.333	
173.00	-48.721	13.855	
174.00	-48.753	4.345	
175.00	-48.810	13.198	
176.00	-48.788	-4.577	
177.00	-48.861	-5.582	
178.00	-48.960	-9.653	
179.00	-49.024	-29.119	
180.00	-49.161	-8.586	
181.00	-49.157	-36.051	
182.00	-49.335	-28.769	
183.00	-49.413	-42.245	
184.00	-49.531	-54.489	
185.00	-49.661	-53.976	
186.00	-49.811	-66.866	
187.00	-49.975	-82.375	
188.00	-50.060	-89.082	
189.00	-50.215	-95.819	
190.00	-50.324	-105.967	
191.00	-50.552	-113.115	
192.00	-50.674	-126.907	
193.00	-50.918	-140.458	
194.00	-51.033	-151.235	
195.00	-51.301	-167.199	
196.00	-51.424	179.420	
197.00	-51.656	164.681	
198.00	-51.866	149.330	
199.00	-52.054	138.535	
200.00	-52.229	118.474	
201.00	-52.481	104.477	
202.00	-52.757	85.206	
203.00	-52.891	68.074	
204.00	-53.205	52.496	
205.00	-53.356	31.366	
206.00	-53.634	17.158	
207.00	-53.955	-5.375	
208.00	-54.246	-20.520	
209.00	-54.423	-43.826	
210.00	-54.761	-63.460	
211.00	-54.844	-87.841	
212.00	-55.173	-107.923	
213.00	-55.497	-128.808	
214.00	-56.038	-160.686	
215.00	-56.337	-178.772	
216.00	-56.935	156.381	
217.00	-57.639	118.179	
218.00	-58.033	109.144	
219.00	-59.063	84.235	
220.00	-59.865	51.742	
221.00	-60.867	33.625	
222.00	-62.088	-1.820	
223.00	-63.230	-25.758	
224.00	-64.465	-59.576	
225.00	-65.412	-81.892	
226.00	-67.575	-121.448	
227.00	-68.666	-158.079	
228.00	-70.369	158.944	
229.00	-68.826	119.977	
230.00	-68.390	82.261	
231.00	-68.079	47.221	
232.00	-67.927	8.185	
233.00	-67.393	-26.252	
234.00	-65.910	-63.477	
235.00	-64.849	-89.558	
236.00	-64.419	-122.198	
237.00	-63.616	-148.095	
238.00	-62.924	176.516	
239.00	-62.152	142.614	
240.00	-61.230	110.660	
241.00	-60.488	78.592	
242.00	-59.833	46.680	
243.00	-59.259	12.126	
244.00	-58.579	-17.188	
245.00	-58.428	-46.852	
246.00	-57.793	-78.393	
247.00	-57.526	-107.571	
248.00	-57.287	-139.307	
249.00	-57.240	-165.720	
250.00	-57.463	161.278	
251.00	-57.332	129.220	
252.00	-57.286	97.956	
253.00	-57.227	66.020	
254.00	-56.866	32.242	
255.00	-56.757	5.595	
256.00	-56.457	-24.387	
257.00	-56.446	-50.660	
258.00	-56.468	-83.674	
259.00	-56.588	-110.257	
260.00	-56.929	-141.596	
261.00	-57.416	-174.651	
262.00	-58.197	152.426	
263.00	-58.498	119.132	
264.00	-58.803	85.762	
265.00	-59.032	54.203	
266.00	-59.237	17.366	
267.00	-59.170	-22.046	
268.00	-59.496	-56.721	
269.00	-59.816	-96.315	
270.00	-59.858	-134.587	
271.00	-60.227	-171.237	
272.00	-60.273	150.318	
273.00	-60.089	113.144	
274.00	-60.074	75.853	
275.00	-59.866	46.460	
276.00	-60.151	9.954	
277.00	-60.049	-19.522	
278.00	-60.406	-48.400	
279.00	-60.636	-79.251	
280.00	-60.864	-113.753	
281.00	-61.072	-140.895	
282.00	-61.454	-176.303	
283.00	-62.005	155.756	
284.00	-62.189	123.242	
285.00	-62.660	91.624	
286.00	-63.198	53.886	
287.00	-63.227	18.117	
288.00	-63.700	-8.671	
289.00	-63.708	-46.208	
290.00	-64.302	-79.573	
291.00	-64.521	-116.682	
292.00	-65.217	-144.148	
293.00	-66.373	173.961	
294.00	-67.194	138.172	
295.00	-67.004	83.515	
296.00	-67.613	57.967	
297.00	-67.364	17.689	
298.00	-67.035	-13.130	
299.00	-66.955	-44.285	
300.00	-66.903	-72.478	
301.00	-67.768	-106.592	
302.00	-68.774	-137.795	
303.00	-69.601	-167.037	
304.00	-70.401	159.450	
305.00	-71.543	120.186	
306.00	-72.360	83.178	
307.00	-72.387	44.573	
308.00	-71.197	14.928	
309.00	-71.124	-25.242	
310.00	-71.759	-63.751	
311.00	-71.038	-84.812	
312.00	-71.705	-120.853	
313.00	-71.255	-140.539	
314.00	-71.615	179.171	
315.00	-71.599	151.124	
316.00	-70.827	115.391	
317.00	-71.191	90.570	
318.00	-70.307	65.209	
319.00	-70.329	43.461	
320.00	-70.170	17.299	
321.00	-70.090	0.687	
322.00	-69.750	-18.983	
323.00	-70.925	-47.048	
324.00	-70.466	-60.070	
325.00	-70.629	-82.202	
326.00	-72.967	-91.638	
327.00	-74.426	-107.582	
328.00	-76.095	-109.684	
329.00	-84.017	-104.009	
330.00	-90.886	-67.012	
331.00	-83.035	-44.576	
332.00	-78.292	-31.456	
333.00	-77.439	-36.040	
334.00	-74.446	-44.954	
335.00	-75.201	-73.960	
336.00	-72.917	-82.274	
337.00	-73.349	-97.561	
338.00	-72.170	-112.332	
339.00	-71.863	-122.257	
340.00	-72.253	-145.637	
341.00	-71.963	-153.237	
342.00	-72.153	-168.448	
343.00	-71.918	179.700	
344.00	-72.611	166.473	
345.00	-73.599	151.646	
346.00	-75.061	145.077	
347.00	-76.084	129.557	
348.00	-78.232	111.842	
349.00	-77.750	81.911	
350.00	-77.410	59.487	
351.00	-78.377	36.229	
352.00	-76.379	21.847	
353.00	-75.015	23.546	
354.00	-74.933	13.905	
355.00	-76.804	-4.742	
356.00	-78.647	10.373	
357.00	-77.519	-3.612	
358.00	-80.556	-20.900	
359.00	-84.815	-17.918	
Frequency	4150.00	MHz	
Channel	test		
Scan Axis name	Azimuth  [deg]		
Scan Axis	Amplitude	Phase	
			
0.00	-73.650	-173.939	
1.00	-73.885	-154.587	
2.00	-71.946	-154.254	
3.00	-72.936	-139.091	
4.00	-72.368	-138.948	
5.00	-72.798	-129.625	
6.00	-73.662	-116.317	
7.00	-75.766	-103.863	
8.00	-78.202	-103.622	
9.00	-79.837	-84.714	
10.00	-83.383	-47.086	
11.00	-84.355	15.336	
12.00	-79.020	56.376	
13.00	-79.165	83.749	
14.00	-75.587	80.046	
15.00	-74.916	106.152	
16.00	-73.147	108.594	
17.00	-74.596	143.576	
18.00	-74.560	153.502	
19.00	-75.427	171.436	
20.00	-75.869	-160.746	
21.00	-73.798	-144.401	
22.00	-73.970	-117.822	
23.00	-73.734	-97.969	
24.00	-73.428	-72.741	
25.00	-72.445	-52.826	
26.00	-72.152	-28.055	
27.00	-71.378	-10.545	
28.00	-70.444	-5.946	
29.00	-70.296	-4.892	
30.00	-70.851	32.037	
31.00	-70.884	32.583	
32.00	-71.427	55.972	
33.00	-71.548	77.369	
34.00	-71.324	98.163	
35.00	-71.009	117.353	
36.00	-72.171	139.953	
37.00	-73.773	167.303	
38.00	-73.875	-156.984	
39.00	-74.311	-121.078	
40.00	-73.811	-85.847	
41.00	-72.899	-55.950	
42.00	-72.246	-25.154	
43.00	-72.612	4.081	
44.00	-71.082	33.652	
45.00	-70.621	66.817	
46.00	-70.200	104.034	
47.00	-68.706	140.038	
48.00	-68.085	165.666	
49.00	-67.468	-165.146	
50.00	-67.591	-138.448	
51.00	-67.036	-103.525	
52.00	-66.204	-79.030	
53.00	-66.422	-45.928	
54.00	-66.132	-24.235	
55.00	-66.211	-10.080	
56.00	-65.193	19.968	
57.00	-64.912	45.183	
58.00	-64.730	83.996	
59.00	-64.120	103.484	
60.00	-64.178	141.805	
61.00	-64.668	176.681	
62.00	-64.830	-156.355	
63.00	-64.996	-107.409	
64.00	-65.236	-82.450	
65.00	-64.710	-43.343	
66.00	-64.234	-13.283	
67.00	-63.876	19.555	
68.00	-63.404	54.954	
69.00	-63.023	87.102	
70.00	-63.059	119.532	
71.00	-63.360	143.208	
72.00	-63.179	-177.320	
73.00	-63.890	-140.518	
74.00	-63.577	-97.949	
75.00	-62.995	-62.352	
76.00	-62.201	-23.177	
77.00	-61.501	14.181	
78.00	-60.838	44.176	
79.00	-60.027	75.415	
80.00	-59.673	108.393	
81.00	-59.378	124.620	
82.00	-59.172	164.571	
83.00	-58.995	-172.142	
84.00	-58.634	-137.117	
85.00	-58.274	-106.663	
86.00	-57.955	-64.851	
87.00	-57.413	-35.361	
88.00	-57.523	-3.896	
89.00	-57.222	30.823	
90.00	-57.283	48.837	
91.00	-56.918	97.668	
92.00	-56.798	118.469	
93.00	-56.443	164.671	
94.00	-56.281	175.955	
95.00	-56.168	-140.225	
96.00	-55.762	-116.089	
97.00	-55.701	-83.406	
98.00	-55.309	-47.429	
99.00	-55.232	-24.267	
100.00	-54.834	14.890	
101.00	-54.611	44.662	
102.00	-54.324	76.971	
103.00	-53.954	108.524	
104.00	-53.784	138.404	
105.00	-53.517	175.475	
106.00	-53.301	-154.867	
107.00	-53.284	-125.261	
108.00	-53.034	-94.305	
109.00	-52.894	-62.969	
110.00	-52.652	-38.351	
111.00	-52.456	-13.428	
112.00	-52.379	10.410	
113.00	-52.187	48.527	
114.00	-51.995	72.969	
115.00	-51.947	107.473	
116.00	-51.845	131.222	
117.00	-51.767	155.006	
118.00	-51.651	-178.574	
119.00	-51.500	-154.758	
120.00	-51.406	-131.687	
121.00	-51.266	-105.678	
122.00	-51.150	-78.018	
123.00	-51.085	-59.497	
124.00	-50.980	-34.829	
125.00	-50.807	-9.390	
126.00	-50.702	15.454	
127.00	-50.604	38.862	
128.00	-50.548	57.669	
129.00	-50.450	73.570	
130.00	-50.293	96.016	
131.00	-50.148	118.816	
132.00	-49.972	143.006	
133.00	-49.768	155.678	
134.00	-49.597	-178.515	
135.00	-49.403	-169.927	
136.00	-49.165	-145.090	
137.00	-48.903	-126.777	
138.00	-48.766	-122.069	
139.00	-48.513	-92.647	
140.00	-48.386	-84.705	
141.00	-48.203	-63.452	
142.00	-48.056	-46.712	
143.00	-47.978	-38.456	
144.00	-47.846	-17.598	
145.00	-47.859	-14.524	
146.00	-47.861	1.567	
147.00	-47.790	14.455	
148.00	-47.871	18.338	
149.00	-47.812	35.157	
150.00	-47.874	40.228	
151.00	-47.772	70.067	
152.00	-47.786	71.812	
153.00	-47.735	83.074	
154.00	-47.735	83.855	
155.00	-47.730	86.645	
156.00	-47.659	100.276	
157.00	-47.469	117.397	
158.00	-47.419	122.420	
159.00	-47.306	134.783	
160.00	-47.251	132.390	
161.00	-47.101	150.156	
162.00	-47.036	142.651	
163.00	-46.970	157.922	
164.00	-47.000	157.068	
165.00	-47.012	157.359	
166.00	-46.981	165.509	
167.00	-47.128	158.172	
168.00	-47.153	170.324	
169.00	-47.320	158.440	
170.00	-47.415	165.623	
171.00	-47.638	155.063	
172.00	-47.778	163.986	
173.00	-47.923	165.834	
174.00	-48.057	156.857	
175.00	-48.122	164.530	
176.00	-48.363	145.872	
177.00	-48.465	144.686	
178.00	-48.619	139.408	
179.00	-48.722	120.480	
180.00	-48.739	139.771	
181.00	-48.926	111.701	
182.00	-48.900	119.569	
183.00	-49.027	105.276	
184.00	-49.164	94.017	
185.00	-49.309	94.073	
186.00	-49.469	81.315	
187.00	-49.730	64.710	
188.00	-49.955	58.870	
189.00	-50.100	50.634	
190.00	-50.361	41.175	
191.00	-50.617	32.635	
192.00	-50.794	17.520	
193.00	-50.936	2.883	
194.00	-50.958	-8.848	
195.00	-51.096	-26.295	
196.00	-51.231	-39.987	
197.00	-51.324	-55.473	
198.00	-51.456	-70.933	
199.00	-51.461	-81.991	
200.00	-51.738	-102.337	
201.00	-51.763	-115.786	
202.00	-51.980	-134.918	
203.00	-52.151	-151.434	
204.00	-52.408	-169.024	
205.00	-52.682	169.454	
206.00	-53.063	155.043	
207.00	-53.231	131.528	
208.00	-53.552	116.802	
209.00	-53.759	92.171	
210.00	-54.163	71.618	
211.00	-54.463	45.631	
212.00	-54.594	21.776	
213.00	-54.719	-2.466	
214.00	-54.790	-36.305	
215.00	-54.742	-55.075	
216.00	-55.031	-82.948	
217.00	-55.004	-122.427	
218.00	-55.283	-129.923	
219.00	-55.512	-155.990	
220.00	-55.676	174.816	
221.00	-56.194	157.759	
222.00	-56.869	124.462	
223.00	-57.509	104.797	
224.00	-58.690	78.246	
225.00	-59.788	56.670	
226.00	-60.839	22.398	
227.00	-62.145	-6.343	
228.00	-63.328	-35.882	
229.00	-64.923	-72.454	
230.00	-66.147	-108.508	
231.00	-66.651	-145.645	
232.00	-66.806	171.717	
233.00	-66.428	128.441	
234.00	-65.680	94.477	
235.00	-65.377	59.358	
236.00	-64.486	26.015	
237.00	-63.686	0.747	
238.00	-63.431	-38.801	
239.00	-62.721	-73.829	
240.00	-62.047	-107.505	
241.00	-61.238	-142.934	
242.00	-60.609	-176.529	
243.00	-60.040	147.518	
244.00	-59.628	116.902	
245.00	-59.291	83.680	
246.00	-59.158	51.343	
247.00	-58.971	19.269	
248.00	-58.778	-19.149	
249.00	-58.332	-47.297	
250.00	-58.067	-81.997	
251.00	-57.660	-115.201	
252.00	-57.269	-145.061	
253.00	-57.067	-177.729	
254.00	-56.919	149.003	
255.00	-56.931	123.580	
256.00	-57.178	91.901	
257.00	-56.953	63.971	
258.00	-57.063	24.794	
259.00	-56.984	-4.362	
260.00	-56.836	-39.659	
261.00	-56.710	-73.430	
262.00	-56.601	-106.802	
263.00	-56.542	-137.710	
264.00	-56.616	-167.830	
265.00	-56.604	161.071	
266.00	-56.779	126.883	
267.00	-57.034	91.364	
268.00	-57.368	56.670	
269.00	-58.024	18.735	
270.00	-58.621	-20.538	
271.00	-59.141	-57.047	
272.00	-59.626	-98.484	
273.00	-59.619	-137.416	
274.00	-59.364	-177.473	
275.00	-58.997	152.481	
276.00	-58.821	117.053	
277.00	-58.957	87.761	
278.00	-59.170	60.384	
279.00	-59.538	31.522	
280.00	-60.190	-3.325	
281.00	-60.960	-31.479	
282.00	-61.469	-67.876	
283.00	-62.235	-97.870	
284.00	-62.924	-131.232	
285.00	-63.142	-166.166	
286.00	-63.329	153.215	
287.00	-63.622	118.677	
288.00	-64.033	88.541	
289.00	-64.053	50.979	
290.00	-64.171	14.961	
291.00	-64.740	-26.121	
292.00	-64.743	-54.064	
293.00	-65.425	-95.893	
294.00	-66.346	-128.076	
295.00	-66.060	-178.223	
296.00	-66.738	157.138	
297.00	-67.634	120.841	
298.00	-68.156	86.132	
299.00	-68.631	46.527	
300.00	-68.245	11.553	
301.00	-68.312	-27.362	
302.00	-67.834	-57.120	
303.00	-67.787	-91.452	
304.00	-68.428	-117.970	
305.00	-68.998	-141.017	
306.00	-69.162	-177.862	
307.00	-69.670	159.307	
308.00	-71.931	135.575	
309.00	-74.163	100.750	
310.00	-77.319	59.484	
311.00	-81.293	21.731	
312.00	-80.470	-56.311	
313.00	-76.419	-84.678	
314.00	-74.761	-132.272	
315.00	-71.972	-152.518	
316.00	-71.806	173.377	
317.00	-70.676	155.447	
318.00	-70.465	134.360	
319.00	-70.318	116.290	
320.00	-70.961	87.692	
321.00	-71.518	66.295	
322.00	-72.100	46.904	
323.00	-73.145	17.422	
324.00	-73.881	-12.153	
325.00	-74.544	-38.307	
326.00	-75.235	-60.316	
327.00	-75.301	-105.977	
328.00	-74.290	-132.605	
329.00	-73.219	-158.414	
330.00	-73.427	-178.690	
331.00	-73.678	163.331	
332.00	-74.302	136.203	
333.00	-75.360	127.177	
334.00	-76.218	115.808	
335.00	-77.710	77.894	
336.00	-82.083	67.744	
337.00	-84.771	32.543	
338.00	-84.255	-37.070	
339.00	-80.966	-79.702	
340.00	-80.784	-96.659	
341.00	-77.797	-101.252	
342.00	-77.482	-123.012	
343.00	-77.382	-141.861	
344.00	-77.569	-158.946	
345.00	-77.610	170.819	
346.00	-77.330	153.327	
347.00	-76.184	141.371	
348.00	-73.466	115.735	
349.00	-73.479	107.622	
350.00	-72.869	103.575	
351.00	-72.008	93.718	
352.00	-70.985	81.116	
353.00	-71.854	89.973	
354.00	-71.799	91.521	
355.00	-72.064	98.502	
356.00	-72.952	98.113	
357.00	-73.368	112.373	
358.00	-74.443	125.416	
359.00	-75.171	136.444	
Frequency	4200.00	MHz	
Channel	test		
Scan Axis name	Azimuth  [deg]		
Scan Axis	Amplitude	Phase	
			
0.00	-81.296	-170.666	
1.00	-85.094	178.331	
2.00	-85.261	162.417	
3.00	-82.162	152.415	
4.00	-80.473	124.845	
5.00	-81.997	125.247	
6.00	-84.445	115.616	
7.00	-78.607	115.713	
8.00	-83.113	117.472	
9.00	-81.563	115.092	
10.00	-83.141	96.764	
11.00	-85.584	124.378	
12.00	-88.550	112.400	
13.00	-88.845	108.157	
14.00	-98.931	129.405	
15.00	-86.764	-68.637	
16.00	-83.004	-40.602	
17.00	-80.291	-39.218	
18.00	-76.823	-27.350	
19.00	-73.752	-22.669	
20.00	-74.623	-14.854	
21.00	-74.607	-17.934	
22.00	-73.384	-16.295	
23.00	-72.404	-7.111	
24.00	-75.684	3.555	
25.00	-76.835	18.893	
26.00	-82.036	10.844	
27.00	-85.614	16.229	
28.00	-84.139	-36.609	
29.00	-88.512	-125.038	
30.00	-81.188	-106.768	
31.00	-79.439	-125.451	
32.00	-77.154	-118.546	
33.00	-75.259	-121.648	
34.00	-76.087	-122.178	
35.00	-76.404	-102.509	
36.00	-76.733	-93.117	
37.00	-78.473	-67.010	
38.00	-78.258	-57.661	
39.00	-77.085	-53.008	
40.00	-81.896	-36.091	
41.00	-85.843	-4.014	
42.00	-95.242	81.830	
43.00	-84.448	166.947	
44.00	-83.131	178.944	
45.00	-81.411	-173.483	
46.00	-79.119	-135.458	
47.00	-79.458	-114.674	
48.00	-77.484	-79.849	
49.00	-76.593	-57.633	
50.00	-74.594	-41.242	
51.00	-74.355	-19.829	
52.00	-76.807	-2.152	
53.00	-77.439	21.515	
54.00	-76.617	45.470	
55.00	-78.278	71.315	
56.00	-79.435	111.137	
57.00	-81.425	154.520	
58.00	-79.636	-143.905	
59.00	-78.531	-117.587	
60.00	-75.030	-72.082	
61.00	-71.929	-34.314	
62.00	-71.290	-9.316	
63.00	-70.685	30.987	
64.00	-69.572	54.100	
65.00	-68.962	87.508	
66.00	-67.989	118.636	
67.00	-67.510	142.373	
68.00	-67.051	177.977	
69.00	-66.835	-150.132	
70.00	-66.575	-113.785	
71.00	-65.802	-84.416	
72.00	-65.425	-50.164	
73.00	-64.830	-15.506	
74.00	-64.111	19.222	
75.00	-63.439	55.043	
76.00	-63.157	87.833	
77.00	-62.594	121.651	
78.00	-62.234	153.680	
79.00	-61.684	-175.044	
80.00	-61.228	-140.304	
81.00	-60.954	-123.750	
82.00	-60.474	-82.586	
83.00	-60.447	-60.871	
84.00	-60.130	-25.027	
85.00	-59.712	5.327	
86.00	-59.489	47.533	
87.00	-59.021	80.170	
88.00	-58.978	114.975	
89.00	-58.598	148.337	
90.00	-58.222	166.509	
91.00	-57.978	-143.298	
92.00	-57.704	-122.276	
93.00	-57.321	-75.220	
94.00	-57.059	-63.628	
95.00	-56.815	-16.996	
96.00	-56.422	4.842	
97.00	-56.394	40.608	
98.00	-55.753	75.444	
99.00	-55.586	99.744	
100.00	-55.023	137.580	
101.00	-54.859	167.467	
102.00	-54.660	-160.343	
103.00	-54.392	-128.809	
104.00	-54.193	-97.462	
105.00	-54.115	-59.390	
106.00	-53.802	-28.346	
107.00	-53.576	2.182	
108.00	-53.113	34.249	
109.00	-52.873	65.654	
110.00	-52.558	90.847	
111.00	-52.226	116.032	
112.00	-51.970	139.648	
113.00	-51.878	177.350	
114.00	-51.671	-158.588	
115.00	-51.599	-123.881	
116.00	-51.452	-100.018	
117.00	-51.438	-76.394	
118.00	-51.384	-49.716	
119.00	-51.360	-24.485	
120.00	-51.326	-0.825	
121.00	-51.068	25.628	
122.00	-50.944	53.956	
123.00	-50.880	72.687	
124.00	-50.700	98.023	
125.00	-50.553	123.633	
126.00	-50.476	148.618	
127.00	-50.323	172.152	
128.00	-50.244	-168.809	
129.00	-50.086	-153.437	
130.00	-49.992	-130.838	
131.00	-49.823	-108.633	
132.00	-49.696	-84.435	
133.00	-49.611	-72.059	
134.00	-49.411	-46.903	
135.00	-49.163	-38.833	
136.00	-49.033	-13.874	
137.00	-48.789	2.808	
138.00	-48.564	7.986	
139.00	-48.328	36.620	
140.00	-48.121	44.242	
141.00	-47.925	64.944	
142.00	-47.834	81.138	
143.00	-47.664	88.907	
144.00	-47.478	109.729	
145.00	-47.406	112.549	
146.00	-47.384	129.031	
147.00	-47.264	141.185	
148.00	-47.169	145.470	
149.00	-47.123	162.456	
150.00	-47.090	168.301	
151.00	-47.044	-161.829	
152.00	-47.015	-160.189	
153.00	-47.090	-148.251	
154.00	-47.087	-147.095	
155.00	-47.112	-144.131	
156.00	-47.163	-130.240	
157.00	-47.181	-113.866	
158.00	-47.204	-107.934	
159.00	-47.249	-95.652	
160.00	-47.308	-98.638	
161.00	-47.311	-81.483	
162.00	-47.360	-88.897	
163.00	-47.439	-75.180	
164.00	-47.454	-77.321	
165.00	-47.542	-77.188	
166.00	-47.616	-69.832	
167.00	-47.660	-78.210	
168.00	-47.671	-67.004	
169.00	-47.713	-79.673	
170.00	-47.732	-72.687	
171.00	-47.773	-84.499	
172.00	-47.859	-74.663	
173.00	-47.892	-73.931	
174.00	-47.907	-82.469	
175.00	-47.962	-74.776	
176.00	-48.097	-91.982	
177.00	-48.165	-92.676	
178.00	-48.332	-98.098	
179.00	-48.490	-115.539	
180.00	-48.562	-96.935	
181.00	-48.900	-124.409	
182.00	-49.001	-117.063	
183.00	-49.306	-131.414	
184.00	-49.526	-143.059	
185.00	-49.680	-143.224	
186.00	-49.882	-155.606	
187.00	-50.168	-173.069	
188.00	-50.342	-177.987	
189.00	-50.628	173.532	
190.00	-50.955	164.883	
191.00	-51.165	156.711	
192.00	-51.473	144.125	
193.00	-51.865	130.915	
194.00	-52.352	120.575	
195.00	-52.905	104.784	
196.00	-53.463	91.967	
197.00	-54.243	76.853	
198.00	-55.021	61.386	
199.00	-55.796	50.019	
200.00	-56.737	27.843	
201.00	-58.148	10.463	
202.00	-59.369	-15.252	
203.00	-60.017	-40.776	
204.00	-60.656	-68.885	
205.00	-60.463	-100.230	
206.00	-59.775	-123.597	
207.00	-59.239	-151.277	
208.00	-58.509	-171.582	
209.00	-57.839	164.173	
210.00	-57.408	143.541	
211.00	-57.009	117.375	
212.00	-56.760	97.495	
213.00	-56.599	73.881	
214.00	-56.585	40.806	
215.00	-56.734	23.665	
216.00	-56.762	-6.379	
217.00	-56.917	-46.865	
218.00	-56.842	-53.469	
219.00	-57.184	-82.954	
220.00	-57.428	-114.449	
221.00	-57.669	-135.231	
222.00	-58.132	-172.523	
223.00	-58.577	166.619	
224.00	-58.702	133.303	
225.00	-58.939	108.946	
226.00	-58.969	71.265	
227.00	-58.923	41.801	
228.00	-58.749	12.415	
229.00	-58.508	-17.311	
230.00	-58.627	-46.062	
231.00	-58.364	-74.205	
232.00	-58.381	-106.673	
233.00	-57.731	-136.600	
234.00	-57.522	-170.997	
235.00	-57.174	166.213	
236.00	-56.905	136.832	
237.00	-56.822	115.648	
238.00	-56.787	81.628	
239.00	-56.825	52.393	
240.00	-56.953	19.919	
241.00	-57.159	-15.643	
242.00	-57.479	-47.298	
243.00	-57.635	-85.616	
244.00	-57.490	-119.317	
245.00	-57.228	-154.905	
246.00	-57.039	169.904	
247.00	-56.595	138.543	
248.00	-56.473	103.785	
249.00	-56.391	77.069	
250.00	-56.330	42.481	
251.00	-56.336	11.057	
252.00	-56.445	-20.121	
253.00	-56.475	-53.584	
254.00	-56.713	-87.716	
255.00	-57.103	-114.297	
256.00	-57.077	-150.197	
257.00	-57.152	-177.839	
258.00	-57.266	144.490	
259.00	-57.409	113.488	
260.00	-57.433	77.327	
261.00	-57.461	42.317	
262.00	-57.527	8.374	
263.00	-57.726	-22.298	
264.00	-58.040	-53.692	
265.00	-58.203	-85.438	
266.00	-58.739	-122.787	
267.00	-59.089	-161.665	
268.00	-59.370	159.644	
269.00	-59.499	119.240	
270.00	-59.601	78.700	
271.00	-59.535	41.058	
272.00	-59.664	2.991	
273.00	-59.762	-31.852	
274.00	-59.836	-68.155	
275.00	-59.908	-99.211	
276.00	-60.219	-136.877	
277.00	-60.193	-166.269	
278.00	-60.398	162.008	
279.00	-60.922	133.724	
280.00	-61.114	97.820	
281.00	-61.625	69.905	
282.00	-61.906	35.915	
283.00	-62.585	6.739	
284.00	-63.221	-24.412	
285.00	-63.884	-58.514	
286.00	-64.489	-91.532	
287.00	-65.410	-124.726	
288.00	-66.537	-150.055	
289.00	-67.697	172.949	
290.00	-69.798	136.703	
291.00	-71.363	88.190	
292.00	-73.306	46.295	
293.00	-73.360	3.879	
294.00	-74.942	-50.028	
295.00	-72.673	-109.990	
296.00	-72.736	-135.419	
297.00	-72.635	-177.630	
298.00	-71.355	145.068	
299.00	-71.368	111.323	
300.00	-71.367	77.421	
301.00	-70.489	41.135	
302.00	-70.339	7.330	
303.00	-70.207	-24.007	
304.00	-70.491	-53.187	
305.00	-70.866	-77.058	
306.00	-71.831	-112.514	
307.00	-73.056	-142.712	
308.00	-73.867	-177.095	
309.00	-74.312	139.740	
310.00	-75.015	97.117	
311.00	-73.833	87.060	
312.00	-75.112	40.371	
313.00	-73.910	26.857	
314.00	-75.711	-12.874	
315.00	-74.519	-46.580	
316.00	-77.362	-69.946	
317.00	-76.269	-97.239	
318.00	-78.192	-127.591	
319.00	-77.399	-148.475	
320.00	-79.076	165.269	
321.00	-79.176	156.358	
322.00	-79.370	122.311	
323.00	-81.453	89.127	
324.00	-81.372	32.956	
325.00	-80.942	-8.448	
326.00	-79.214	-32.984	
327.00	-78.939	-57.054	
328.00	-77.916	-71.906	
329.00	-76.769	-108.206	
330.00	-74.867	-121.736	
331.00	-77.067	-142.631	
332.00	-76.679	-159.597	
333.00	-76.963	177.637	
334.00	-78.160	158.751	
335.00	-78.722	139.925	
336.00	-81.363	113.531	
337.00	-83.903	87.098	
338.00	-82.323	47.896	
339.00	-79.032	38.728	
340.00	-79.653	1.809	
341.00	-79.006	-6.475	
342.00	-76.658	-14.222	
343.00	-75.304	-35.391	
344.00	-75.476	-48.781	
345.00	-75.906	-62.377	
346.00	-76.224	-76.375	
347.00	-76.572	-94.876	
348.00	-81.898	-110.572	
349.00	-77.572	-114.132	
350.00	-80.578	-139.044	
351.00	-83.066	-150.632	
352.00	-79.306	-174.755	
353.00	-79.142	-165.889	
354.00	-79.906	-173.423	
355.00	-78.763	169.908	
356.00	-81.076	163.680	
357.00	-77.403	160.473	
358.00	-79.325	160.049	
359.00	-79.688	163.287	
