Test Title:	Alpha Wireless Indoor Range						
Date:	21/03/2018						
Time:	14:25						
Operator Name:	FL						
Comment:	Radome height is 74mm 

No wings						
Caib. File Name:	C:\Program Files\Midas 2.01d\Calibration Files\test sigma 180900.cal						
							
[Scan Axis] Name: 	Azimuth  [deg]Start: 	0.000000	Stop	359.000000	Increment	1.000000[Step Axis] Name: 	Start: 	0.000000	Stop	0.000000	Increment	0.000000[Tert] Name: 	None [Forth] Name: 	None  [ Freq.]  (List) 	MHz.	3400.000000	3450.000000	3500.000000	3550.000000	3600.000000	3650.000000	3700.000000	3750.000000	3800.000000	3850.000000	3900.000000	3950.000000	4000.000000	4050.000000	4100.000000	4150.000000	4200.000000
 [Switch]  	None [Channel]  	test			 [ Beam] 	None			
Database:			
First Question			
2nd			
3rd			
4th			
			
Frequency	3400.00	MHz	
Channel	test		
Scan Axis name	Azimuth  [deg]		
Scan Axis	Amplitude	Phase	
			
0.00	-83.463	-168.873	
1.00	-85.341	166.078	
2.00	-84.941	-179.992	
3.00	-81.713	-138.465	
4.00	-80.820	-131.513	
5.00	-80.137	-147.743	
6.00	-76.175	-156.240	
7.00	-74.497	-127.893	
8.00	-75.653	-138.797	
9.00	-74.973	-130.523	
10.00	-75.818	-146.476	
11.00	-74.829	-139.238	
12.00	-75.131	-134.054	
13.00	-78.572	-145.872	
14.00	-78.078	-153.283	
15.00	-79.934	167.926	
16.00	-80.047	171.631	
17.00	-82.340	129.078	
18.00	-82.784	76.479	
19.00	-84.118	78.812	
20.00	-85.896	37.402	
21.00	-84.938	7.134	
22.00	-90.597	11.043	
23.00	-90.282	74.541	
24.00	-82.650	133.646	
25.00	-81.037	152.740	
26.00	-81.900	157.682	
27.00	-78.822	143.434	
28.00	-76.791	166.165	
29.00	-77.935	176.717	
30.00	-77.300	-139.466	
31.00	-77.737	-98.635	
32.00	-76.256	-64.279	
33.00	-76.162	-59.097	
34.00	-75.078	-65.359	
35.00	-73.666	-56.476	
36.00	-73.077	-49.232	
37.00	-77.261	-46.709	
38.00	-83.861	-56.789	
39.00	-77.850	-111.975	
40.00	-75.928	-117.473	
41.00	-75.618	-98.699	
42.00	-78.015	-102.462	
43.00	-86.178	-119.693	
44.00	-80.263	176.482	
45.00	-78.047	-163.851	
46.00	-76.842	-156.825	
47.00	-78.278	-163.616	
48.00	-74.830	-165.860	
49.00	-72.813	-152.428	
50.00	-72.388	-131.074	
51.00	-72.993	-108.851	
52.00	-74.934	-75.410	
53.00	-81.470	-5.855	
54.00	-80.162	102.343	
55.00	-74.505	144.453	
56.00	-71.804	-176.066	
57.00	-72.025	-148.909	
58.00	-72.344	-116.211	
59.00	-72.515	-79.515	
60.00	-73.388	-28.597	
61.00	-73.786	11.994	
62.00	-73.784	54.230	
63.00	-73.495	103.940	
64.00	-72.688	161.595	
65.00	-72.462	-179.330	
66.00	-73.038	-143.643	
67.00	-73.909	-115.993	
68.00	-75.493	-79.059	
69.00	-77.279	-49.894	
70.00	-75.731	-6.107	
71.00	-78.571	35.126	
72.00	-75.625	71.275	
73.00	-74.295	110.165	
74.00	-73.203	141.963	
75.00	-72.052	171.344	
76.00	-70.803	-167.198	
77.00	-70.447	-148.688	
78.00	-70.658	-114.474	
79.00	-70.579	-93.804	
80.00	-72.509	-67.312	
81.00	-74.293	-28.574	
82.00	-75.011	24.744	
83.00	-75.344	70.075	
84.00	-72.761	108.947	
85.00	-70.952	146.063	
86.00	-69.290	176.091	
87.00	-68.219	-159.523	
88.00	-67.640	-132.421	
89.00	-67.555	-107.180	
90.00	-67.723	-80.909	
91.00	-68.112	-44.157	
92.00	-68.519	-14.492	
93.00	-68.639	20.735	
94.00	-67.988	52.176	
95.00	-67.708	87.942	
96.00	-66.541	118.190	
97.00	-65.666	151.398	
98.00	-65.294	-179.654	
99.00	-64.692	-151.741	
100.00	-64.763	-119.934	
101.00	-65.357	-94.526	
102.00	-66.030	-65.195	
103.00	-67.533	-25.382	
104.00	-69.048	10.714	
105.00	-69.772	64.777	
106.00	-67.312	108.863	
107.00	-65.230	145.626	
108.00	-63.241	-176.918	
109.00	-61.738	-152.414	
110.00	-60.963	-119.769	
111.00	-60.666	-94.041	
112.00	-60.703	-62.585	
113.00	-60.779	-37.586	
114.00	-61.046	-4.863	
115.00	-60.738	18.442	
116.00	-60.541	47.406	
117.00	-60.560	71.486	
118.00	-61.441	98.029	
119.00	-62.766	107.002	
120.00	-64.250	121.498	
121.00	-67.320	127.063	
122.00	-69.667	107.684	
123.00	-68.143	99.210	
124.00	-64.295	100.013	
125.00	-61.511	114.838	
126.00	-59.210	140.864	
127.00	-58.194	149.244	
128.00	-57.527	-172.788	
129.00	-57.527	-167.777	
130.00	-57.693	-125.655	
131.00	-58.532	-98.755	
132.00	-59.531	-56.351	
133.00	-59.756	-14.595	
134.00	-58.145	48.322	
135.00	-55.010	82.798	
136.00	-52.601	109.837	
137.00	-50.831	134.161	
138.00	-50.121	143.626	
139.00	-50.102	176.304	
140.00	-50.948	-175.205	
141.00	-52.750	-164.999	
142.00	-55.359	-127.126	
143.00	-59.088	-130.602	
144.00	-62.969	-68.647	
145.00	-63.098	-28.317	
146.00	-61.278	17.289	
147.00	-59.795	35.597	
148.00	-58.245	42.971	
149.00	-57.108	32.121	
150.00	-56.266	65.643	
151.00	-56.573	68.810	
152.00	-58.342	101.044	
153.00	-63.109	102.962	
154.00	-82.879	156.408	
155.00	-64.460	-46.598	
156.00	-58.831	-29.760	
157.00	-57.235	-12.591	
158.00	-57.720	19.111	
159.00	-60.186	58.836	
160.00	-61.508	120.392	
161.00	-58.554	172.869	
162.00	-56.022	-154.218	
163.00	-55.204	-134.932	
164.00	-56.343	-139.379	
165.00	-59.313	-141.253	
166.00	-61.454	171.523	
167.00	-57.790	143.561	
168.00	-55.231	131.319	
169.00	-54.960	132.728	
170.00	-57.538	137.933	
171.00	-70.223	115.045	
172.00	-59.240	-39.245	
173.00	-51.108	-46.295	
174.00	-46.633	-46.953	
175.00	-43.496	-40.955	
176.00	-41.199	-45.224	
177.00	-39.561	-34.715	
178.00	-38.312	-40.363	
179.00	-37.701	-31.415	
180.00	-37.614	-38.723	
181.00	-38.025	-40.103	
182.00	-38.971	-38.603	
183.00	-40.462	-47.760	
184.00	-42.499	-49.161	
185.00	-45.249	-61.117	
186.00	-49.017	-63.583	
187.00	-54.735	-56.812	
188.00	-68.206	-20.371	
189.00	-60.209	91.487	
190.00	-55.343	102.301	
191.00	-53.962	104.810	
192.00	-54.614	117.119	
193.00	-56.391	130.589	
194.00	-57.387	159.883	
195.00	-56.161	-171.952	
196.00	-54.320	-155.686	
197.00	-53.378	-147.370	
198.00	-53.785	-150.941	
199.00	-55.430	-158.374	
200.00	-58.824	-167.429	
201.00	-64.690	170.177	
202.00	-70.925	97.445	
203.00	-67.171	37.558	
204.00	-65.037	7.016	
205.00	-65.814	-12.392	
206.00	-67.725	-57.229	
207.00	-67.597	-106.508	
208.00	-66.244	-161.668	
209.00	-63.376	165.306	
210.00	-60.716	118.157	
211.00	-57.766	100.725	
212.00	-55.507	66.632	
213.00	-53.730	60.584	
214.00	-52.755	42.722	
215.00	-52.224	34.555	
216.00	-52.433	13.477	
217.00	-53.440	9.127	
218.00	-55.057	-3.361	
219.00	-57.737	-3.033	
220.00	-61.212	5.285	
221.00	-63.104	28.286	
222.00	-61.662	54.402	
223.00	-59.954	54.883	
224.00	-59.190	47.178	
225.00	-59.622	33.372	
226.00	-60.874	30.385	
227.00	-62.859	-1.980	
228.00	-67.194	1.056	
229.00	-73.809	-47.594	
230.00	-76.297	-173.121	
231.00	-68.770	146.532	
232.00	-64.611	135.581	
233.00	-62.522	117.071	
234.00	-61.646	101.006	
235.00	-60.833	70.177	
236.00	-60.608	81.563	
237.00	-60.584	62.409	
238.00	-60.667	61.305	
239.00	-60.776	36.709	
240.00	-60.648	17.093	
241.00	-61.001	2.783	
242.00	-61.426	-9.060	
243.00	-61.780	-36.561	
244.00	-62.383	-53.978	
245.00	-62.785	-78.526	
246.00	-64.122	-99.401	
247.00	-64.932	-117.798	
248.00	-66.523	-145.243	
249.00	-68.176	-179.860	
250.00	-69.331	146.713	
251.00	-71.076	104.156	
252.00	-71.022	59.131	
253.00	-70.852	14.992	
254.00	-69.951	-22.571	
255.00	-69.130	-50.443	
256.00	-67.449	-86.604	
257.00	-67.212	-108.748	
258.00	-66.630	-141.258	
259.00	-66.793	-157.374	
260.00	-67.309	-172.963	
261.00	-68.122	138.234	
262.00	-67.592	143.586	
263.00	-69.231	96.349	
264.00	-69.997	82.250	
265.00	-72.053	43.815	
266.00	-71.041	4.656	
267.00	-72.060	-24.582	
268.00	-70.734	-65.701	
269.00	-71.184	-77.396	
270.00	-70.969	-102.674	
271.00	-72.088	-122.626	
272.00	-73.110	-136.557	
273.00	-74.994	-171.311	
274.00	-77.727	171.112	
275.00	-80.983	155.734	
276.00	-90.981	164.403	
277.00	-91.330	-100.834	
278.00	-82.691	-112.272	
279.00	-80.789	-106.004	
280.00	-83.629	-124.548	
281.00	-82.384	-139.168	
282.00	-94.749	-158.508	
283.00	-82.906	-46.995	
284.00	-79.241	-48.050	
285.00	-77.765	-66.168	
286.00	-76.345	-83.084	
287.00	-74.890	-108.570	
288.00	-75.257	-129.277	
289.00	-76.252	-157.860	
290.00	-77.472	157.315	
291.00	-78.241	116.139	
292.00	-79.804	73.627	
293.00	-77.940	15.487	
294.00	-76.653	-32.691	
295.00	-75.427	-67.454	
296.00	-73.809	-115.288	
297.00	-74.215	-139.916	
298.00	-72.947	-178.343	
299.00	-74.180	146.768	
300.00	-76.555	104.273	
301.00	-78.502	54.470	
302.00	-77.802	-2.221	
303.00	-75.636	-47.744	
304.00	-74.050	-90.525	
305.00	-75.587	-124.145	
306.00	-77.275	-152.079	
307.00	-83.651	-167.390	
308.00	-91.430	-104.790	
309.00	-84.426	-71.237	
310.00	-79.231	-58.824	
311.00	-75.429	-74.215	
312.00	-77.463	-87.331	
313.00	-76.202	-87.794	
314.00	-77.259	-90.775	
315.00	-76.349	-83.450	
316.00	-77.659	-86.545	
317.00	-74.891	-76.695	
318.00	-73.858	-89.886	
319.00	-72.977	-102.978	
320.00	-74.819	-131.162	
321.00	-78.017	-166.107	
322.00	-83.313	-166.575	
323.00	-84.107	-108.701	
324.00	-79.820	-97.342	
325.00	-77.522	-113.603	
326.00	-76.318	-107.407	
327.00	-77.735	-143.165	
328.00	-79.506	-151.046	
329.00	-83.824	-151.712	
330.00	-86.915	-168.698	
331.00	-85.786	-112.285	
332.00	-82.170	-91.368	
333.00	-78.671	-100.812	
334.00	-76.939	-115.979	
335.00	-77.461	-144.695	
336.00	-77.099	-147.001	
337.00	-80.265	-152.268	
338.00	-84.962	-66.646	
339.00	-78.880	-75.640	
340.00	-75.896	-90.543	
341.00	-75.469	-98.002	
342.00	-74.620	-116.808	
343.00	-77.457	-122.154	
344.00	-84.916	-95.474	
345.00	-91.593	-40.261	
346.00	-82.072	-39.035	
347.00	-79.177	-36.831	
348.00	-76.492	-85.915	
349.00	-76.478	-126.530	
350.00	-78.467	-128.022	
351.00	-79.919	-145.179	
352.00	-82.018	-170.972	
353.00	-83.844	-151.356	
354.00	-85.981	-107.681	
355.00	-83.341	-134.255	
356.00	-86.901	-133.767	
357.00	-81.974	-130.234	
358.00	-82.022	-133.969	
359.00	-84.847	-123.569	
Frequency	3450.00	MHz	
Channel	test		
Scan Axis name	Azimuth  [deg]		
Scan Axis	Amplitude	Phase	
			
0.00	-83.037	-2.684	
1.00	-80.554	13.254	
2.00	-77.653	17.876	
3.00	-77.513	7.397	
4.00	-78.979	-0.486	
5.00	-80.392	-5.901	
6.00	-82.077	-29.872	
7.00	-81.338	-37.512	
8.00	-82.365	-49.829	
9.00	-78.439	-40.334	
10.00	-79.665	-46.227	
11.00	-77.091	-44.337	
12.00	-80.778	-49.566	
13.00	-83.789	-13.527	
14.00	-86.245	21.144	
15.00	-82.468	65.363	
16.00	-83.058	82.006	
17.00	-80.073	72.062	
18.00	-81.233	49.541	
19.00	-85.129	9.669	
20.00	-78.585	-13.006	
21.00	-77.555	-6.064	
22.00	-75.662	-17.096	
23.00	-78.201	-2.656	
24.00	-83.437	-3.251	
25.00	-95.703	-6.603	
26.00	-94.394	-144.143	
27.00	-82.594	170.692	
28.00	-78.859	-144.550	
29.00	-80.644	-153.817	
30.00	-85.206	-108.991	
31.00	-90.763	-43.252	
32.00	-80.799	29.065	
33.00	-76.912	28.911	
34.00	-73.341	43.290	
35.00	-73.011	48.775	
36.00	-73.657	55.406	
37.00	-74.855	55.619	
38.00	-79.273	34.720	
39.00	-77.431	10.352	
40.00	-74.063	-3.467	
41.00	-74.220	2.986	
42.00	-75.074	1.690	
43.00	-76.975	6.256	
44.00	-81.170	4.611	
45.00	-82.364	-27.728	
46.00	-79.854	-26.083	
47.00	-78.464	-43.692	
48.00	-78.217	-55.089	
49.00	-78.453	-41.254	
50.00	-78.203	-23.689	
51.00	-78.940	8.174	
52.00	-82.368	17.601	
53.00	-85.222	129.501	
54.00	-85.158	-167.225	
55.00	-78.893	-126.325	
56.00	-76.770	-75.215	
57.00	-76.941	-53.990	
58.00	-75.061	-21.722	
59.00	-73.164	13.809	
60.00	-72.054	54.506	
61.00	-71.624	76.504	
62.00	-72.736	104.391	
63.00	-74.740	135.792	
64.00	-79.642	-162.060	
65.00	-78.398	-100.567	
66.00	-77.161	-49.893	
67.00	-75.324	-23.032	
68.00	-73.700	9.142	
69.00	-73.153	35.576	
70.00	-73.308	60.960	
71.00	-74.490	91.236	
72.00	-75.650	121.495	
73.00	-75.481	163.080	
74.00	-76.409	-159.763	
75.00	-73.985	-110.598	
76.00	-73.534	-78.913	
77.00	-72.728	-54.417	
78.00	-71.273	-23.540	
79.00	-70.191	-4.838	
80.00	-70.811	25.022	
81.00	-71.665	55.229	
82.00	-72.979	97.148	
83.00	-74.759	128.739	
84.00	-74.475	-177.292	
85.00	-72.727	-133.442	
86.00	-71.193	-98.324	
87.00	-68.819	-66.970	
88.00	-68.067	-38.811	
89.00	-67.330	-13.825	
90.00	-66.602	11.283	
91.00	-66.805	39.669	
92.00	-66.368	63.467	
93.00	-66.702	93.689	
94.00	-66.637	121.015	
95.00	-66.730	153.563	
96.00	-66.932	-179.435	
97.00	-66.776	-146.274	
98.00	-66.730	-112.721	
99.00	-65.820	-82.076	
100.00	-65.559	-49.171	
101.00	-65.695	-23.689	
102.00	-65.873	9.283	
103.00	-66.980	42.534	
104.00	-68.765	76.585	
105.00	-69.538	133.193	
106.00	-68.530	179.125	
107.00	-65.976	-139.223	
108.00	-63.658	-99.045	
109.00	-62.084	-72.230	
110.00	-61.132	-37.773	
111.00	-60.636	-12.188	
112.00	-60.544	23.127	
113.00	-60.794	49.967	
114.00	-60.588	83.772	
115.00	-60.694	108.062	
116.00	-61.214	137.761	
117.00	-61.843	165.332	
118.00	-63.273	-160.495	
119.00	-65.145	-142.889	
120.00	-68.749	-118.343	
121.00	-74.481	-97.799	
122.00	-86.507	-135.354	
123.00	-78.070	172.130	
124.00	-72.726	-177.738	
125.00	-69.838	-141.686	
126.00	-68.135	-111.769	
127.00	-68.270	-98.186	
128.00	-68.153	-52.392	
129.00	-69.095	-38.572	
130.00	-68.978	6.804	
131.00	-69.117	35.735	
132.00	-69.936	81.429	
133.00	-68.825	120.746	
134.00	-65.399	-179.428	
135.00	-62.136	-157.223	
136.00	-59.435	-137.922	
137.00	-57.567	-118.771	
138.00	-56.436	-113.877	
139.00	-55.805	-84.094	
140.00	-55.910	-77.507	
141.00	-56.697	-68.510	
142.00	-57.700	-34.524	
143.00	-59.988	-43.690	
144.00	-62.184	3.568	
145.00	-63.810	32.869	
146.00	-63.278	83.120	
147.00	-61.755	117.384	
148.00	-59.927	137.925	
149.00	-58.691	138.687	
150.00	-58.135	-179.799	
151.00	-57.983	-171.779	
152.00	-58.991	-130.789	
153.00	-61.804	-125.131	
154.00	-67.969	-73.778	
155.00	-70.998	22.595	
156.00	-64.286	75.555	
157.00	-61.802	98.741	
158.00	-62.322	133.583	
159.00	-66.337	171.350	
160.00	-70.179	-91.952	
161.00	-63.173	-33.678	
162.00	-59.608	-3.714	
163.00	-58.755	18.422	
164.00	-60.715	18.383	
165.00	-68.688	30.825	
166.00	-69.174	-132.081	
167.00	-59.537	-122.057	
168.00	-56.386	-122.064	
169.00	-55.915	-115.500	
170.00	-58.358	-112.616	
171.00	-66.479	-155.643	
172.00	-61.024	106.889	
173.00	-53.664	87.717	
174.00	-49.177	81.438	
175.00	-46.045	81.237	
176.00	-43.476	73.107	
177.00	-41.450	81.151	
178.00	-39.820	74.655	
179.00	-38.841	83.911	
180.00	-38.460	77.185	
181.00	-38.744	77.387	
182.00	-39.717	80.924	
183.00	-41.349	73.331	
184.00	-43.782	74.495	
185.00	-47.184	64.592	
186.00	-52.286	65.663	
187.00	-61.432	82.345	
188.00	-65.791	-153.636	
189.00	-57.952	-139.652	
190.00	-55.739	-136.246	
191.00	-55.957	-139.260	
192.00	-57.854	-132.708	
193.00	-62.106	-123.503	
194.00	-65.027	-76.040	
195.00	-61.305	-44.238	
196.00	-58.421	-36.697	
197.00	-56.521	-35.358	
198.00	-56.022	-44.598	
199.00	-56.636	-54.144	
200.00	-58.547	-61.081	
201.00	-62.731	-66.352	
202.00	-72.289	-62.709	
203.00	-72.095	72.438	
204.00	-64.575	66.590	
205.00	-62.619	64.381	
206.00	-63.081	40.109	
207.00	-65.861	17.814	
208.00	-69.838	-43.647	
209.00	-64.545	-103.875	
210.00	-59.835	-148.052	
211.00	-56.277	-156.423	
212.00	-53.932	176.224	
213.00	-52.692	177.060	
214.00	-52.280	163.967	
215.00	-52.770	158.992	
216.00	-54.015	139.889	
217.00	-55.840	138.550	
218.00	-58.917	129.950	
219.00	-62.709	140.224	
220.00	-65.218	162.233	
221.00	-63.372	-178.610	
222.00	-61.393	-172.571	
223.00	-60.214	175.459	
224.00	-59.996	159.553	
225.00	-60.507	141.764	
226.00	-62.339	133.775	
227.00	-64.440	92.942	
228.00	-68.453	77.862	
229.00	-72.023	13.105	
230.00	-71.293	-37.584	
231.00	-68.799	-92.112	
232.00	-65.930	-111.311	
233.00	-63.112	-141.107	
234.00	-61.813	-161.347	
235.00	-60.812	165.341	
236.00	-60.392	179.375	
237.00	-60.143	159.821	
238.00	-60.236	159.287	
239.00	-60.360	140.278	
240.00	-60.540	123.556	
241.00	-60.799	112.219	
242.00	-61.552	100.201	
243.00	-61.754	74.295	
244.00	-62.798	61.510	
245.00	-63.412	40.695	
246.00	-64.801	22.615	
247.00	-66.106	8.055	
248.00	-67.349	-9.257	
249.00	-69.044	-25.851	
250.00	-72.762	-37.347	
251.00	-75.649	-43.297	
252.00	-77.828	-25.695	
253.00	-77.297	-1.260	
254.00	-75.307	2.109	
255.00	-73.673	-10.258	
256.00	-71.991	-31.230	
257.00	-71.533	-41.778	
258.00	-73.143	-67.813	
259.00	-73.176	-79.987	
260.00	-74.460	-95.313	
261.00	-79.251	-152.946	
262.00	-78.483	-140.374	
263.00	-80.384	131.957	
264.00	-80.322	114.508	
265.00	-79.593	65.219	
266.00	-77.838	43.188	
267.00	-77.653	27.323	
268.00	-77.599	13.484	
269.00	-78.839	5.671	
270.00	-79.478	3.979	
271.00	-82.025	-4.408	
272.00	-81.838	12.053	
273.00	-79.121	7.494	
274.00	-78.071	-9.178	
275.00	-77.566	-29.436	
276.00	-80.496	-46.286	
277.00	-80.203	-68.144	
278.00	-81.998	-99.928	
279.00	-84.076	-164.202	
280.00	-82.429	119.391	
281.00	-79.328	96.021	
282.00	-76.460	60.922	
283.00	-73.900	26.836	
284.00	-74.742	10.726	
285.00	-74.922	-10.135	
286.00	-75.426	-29.266	
287.00	-77.443	-46.538	
288.00	-78.739	-65.499	
289.00	-82.810	-103.186	
290.00	-82.762	-99.564	
291.00	-87.020	-124.600	
292.00	-87.621	138.475	
293.00	-82.005	91.893	
294.00	-79.388	66.251	
295.00	-78.646	54.496	
296.00	-75.744	27.336	
297.00	-75.840	8.503	
298.00	-77.131	-20.081	
299.00	-77.167	-57.780	
300.00	-81.480	-92.527	
301.00	-83.353	-179.994	
302.00	-78.960	106.572	
303.00	-74.688	58.830	
304.00	-73.862	21.286	
305.00	-75.133	-13.773	
306.00	-77.008	-30.769	
307.00	-84.712	-65.826	
308.00	-87.353	87.486	
309.00	-77.097	51.749	
310.00	-76.460	38.851	
311.00	-75.299	-1.173	
312.00	-76.029	-14.351	
313.00	-78.064	-12.723	
314.00	-80.385	-27.769	
315.00	-78.753	-14.201	
316.00	-76.318	-17.219	
317.00	-75.696	-20.773	
318.00	-76.830	-51.048	
319.00	-79.582	-52.931	
320.00	-91.319	-99.602	
321.00	-91.213	36.764	
322.00	-87.827	28.796	
323.00	-85.745	58.112	
324.00	-86.963	48.983	
325.00	-84.335	54.359	
326.00	-82.387	51.939	
327.00	-80.495	36.308	
328.00	-84.109	2.011	
329.00	-84.588	18.591	
330.00	-84.933	47.827	
331.00	-84.675	46.663	
332.00	-80.863	36.543	
333.00	-79.926	25.619	
334.00	-79.529	-8.163	
335.00	-80.490	-47.281	
336.00	-84.232	-57.302	
337.00	-97.907	-137.779	
338.00	-82.804	39.956	
339.00	-78.525	29.750	
340.00	-77.353	-8.368	
341.00	-77.690	-17.066	
342.00	-81.943	-47.030	
343.00	-86.721	10.922	
344.00	-81.645	40.346	
345.00	-78.703	36.938	
346.00	-75.972	26.695	
347.00	-75.684	14.420	
348.00	-74.761	0.836	
349.00	-77.469	-22.366	
350.00	-80.708	-13.367	
351.00	-79.190	-6.817	
352.00	-84.433	-24.951	
353.00	-85.377	-16.483	
354.00	-82.768	-28.037	
355.00	-82.634	-7.919	
356.00	-84.016	-12.767	
357.00	-79.775	-28.535	
358.00	-81.312	-34.550	
359.00	-81.902	-22.193	
Frequency	3500.00	MHz	
Channel	test		
Scan Axis name	Azimuth  [deg]		
Scan Axis	Amplitude	Phase	
			
0.00	-85.915	45.507	
1.00	-86.671	113.852	
2.00	-84.195	129.645	
3.00	-89.839	110.575	
4.00	-87.695	116.527	
5.00	-86.239	131.897	
6.00	-83.527	152.515	
7.00	-84.947	115.365	
8.00	-87.532	144.682	
9.00	-87.619	58.449	
10.00	-90.374	0.222	
11.00	-85.166	-10.839	
12.00	-89.697	-46.800	
13.00	-91.466	-85.516	
14.00	-90.832	-159.796	
15.00	-81.035	163.638	
16.00	-81.377	169.700	
17.00	-79.806	153.543	
18.00	-78.373	149.533	
19.00	-79.069	130.589	
20.00	-80.493	122.825	
21.00	-77.905	102.426	
22.00	-75.807	91.776	
23.00	-76.005	97.633	
24.00	-78.337	84.730	
25.00	-80.781	79.203	
26.00	-84.571	69.304	
27.00	-89.285	5.266	
28.00	-83.168	-11.345	
29.00	-79.809	-22.114	
30.00	-79.554	-1.971	
31.00	-79.035	19.282	
32.00	-87.066	66.567	
33.00	-86.956	101.371	
34.00	-83.708	166.561	
35.00	-83.518	145.293	
36.00	-82.246	176.604	
37.00	-85.432	-172.342	
38.00	-98.699	-88.217	
39.00	-85.991	64.145	
40.00	-79.926	73.698	
41.00	-76.832	78.732	
42.00	-78.653	100.340	
43.00	-79.842	115.050	
44.00	-81.835	111.924	
45.00	-86.907	97.930	
46.00	-80.194	72.101	
47.00	-78.565	66.737	
48.00	-78.600	67.093	
49.00	-76.994	71.175	
50.00	-76.885	87.685	
51.00	-76.525	102.075	
52.00	-77.621	118.669	
53.00	-81.239	142.352	
54.00	-87.161	-70.680	
55.00	-80.685	-2.772	
56.00	-75.257	23.704	
57.00	-72.812	47.389	
58.00	-71.118	67.522	
59.00	-70.319	92.822	
60.00	-71.379	118.963	
61.00	-73.358	144.605	
62.00	-76.243	-178.149	
63.00	-79.897	-141.231	
64.00	-83.252	-21.581	
65.00	-79.677	2.905	
66.00	-76.879	48.699	
67.00	-77.188	60.930	
68.00	-75.441	102.350	
69.00	-75.024	115.600	
70.00	-75.554	136.238	
71.00	-76.752	161.180	
72.00	-76.858	-171.597	
73.00	-80.122	-121.205	
74.00	-77.085	-67.075	
75.00	-75.231	-30.800	
76.00	-73.289	-2.311	
77.00	-71.822	28.665	
78.00	-70.108	62.535	
79.00	-70.242	87.434	
80.00	-70.058	116.526	
81.00	-71.005	150.062	
82.00	-72.030	-173.595	
83.00	-72.027	-138.979	
84.00	-72.458	-93.144	
85.00	-71.299	-53.131	
86.00	-69.821	-8.227	
87.00	-68.251	23.189	
88.00	-66.949	48.630	
89.00	-65.737	79.133	
90.00	-64.957	102.691	
91.00	-64.752	130.004	
92.00	-64.332	156.633	
93.00	-64.558	-176.023	
94.00	-64.794	-150.626	
95.00	-65.041	-120.758	
96.00	-64.870	-90.841	
97.00	-64.442	-61.164	
98.00	-63.913	-28.272	
99.00	-63.621	-0.855	
100.00	-63.386	31.326	
101.00	-63.567	53.066	
102.00	-63.769	80.741	
103.00	-64.842	109.424	
104.00	-66.538	136.200	
105.00	-69.883	170.440	
106.00	-72.434	-140.052	
107.00	-71.777	-70.238	
108.00	-68.428	-14.626	
109.00	-65.459	17.383	
110.00	-63.254	51.581	
111.00	-62.296	79.921	
112.00	-61.799	111.250	
113.00	-61.482	138.525	
114.00	-61.423	169.546	
115.00	-60.973	-160.345	
116.00	-60.829	-128.490	
117.00	-60.284	-99.256	
118.00	-60.508	-62.525	
119.00	-60.727	-44.992	
120.00	-61.514	-16.077	
121.00	-62.884	3.515	
122.00	-64.618	24.094	
123.00	-66.927	44.724	
124.00	-70.196	54.114	
125.00	-73.487	46.455	
126.00	-71.254	33.765	
127.00	-69.234	37.420	
128.00	-67.825	69.156	
129.00	-67.196	78.550	
130.00	-67.268	118.337	
131.00	-67.353	147.603	
132.00	-68.798	-160.493	
133.00	-67.374	-112.998	
134.00	-64.315	-57.314	
135.00	-61.295	-34.046	
136.00	-59.272	-13.751	
137.00	-58.095	2.985	
138.00	-57.710	5.545	
139.00	-57.553	29.231	
140.00	-57.775	26.102	
141.00	-57.980	25.353	
142.00	-58.416	49.450	
143.00	-59.619	30.606	
144.00	-60.733	69.226	
145.00	-63.490	88.392	
146.00	-66.505	150.702	
147.00	-64.678	-145.690	
148.00	-60.857	-104.945	
149.00	-58.439	-93.818	
150.00	-57.307	-46.089	
151.00	-57.223	-34.371	
152.00	-58.207	5.872	
153.00	-61.542	8.849	
154.00	-67.510	43.578	
155.00	-83.324	122.753	
156.00	-70.917	-119.766	
157.00	-67.320	-96.934	
158.00	-68.275	-42.938	
159.00	-67.059	22.054	
160.00	-63.158	71.344	
161.00	-59.632	95.547	
162.00	-58.499	119.246	
163.00	-58.823	133.306	
164.00	-61.066	121.554	
165.00	-65.043	111.317	
166.00	-65.729	51.837	
167.00	-62.797	25.336	
168.00	-61.267	3.357	
169.00	-61.135	-12.741	
170.00	-61.787	-39.352	
171.00	-60.337	-92.895	
172.00	-56.537	-124.717	
173.00	-52.318	-148.852	
174.00	-48.298	-159.436	
175.00	-45.007	-160.775	
176.00	-42.358	-167.451	
177.00	-40.385	-158.951	
178.00	-38.925	-165.247	
179.00	-38.086	-156.208	
180.00	-37.824	-163.789	
181.00	-38.146	-164.335	
182.00	-39.049	-161.480	
183.00	-40.577	-169.898	
184.00	-42.778	-168.521	
185.00	-45.805	-178.859	
186.00	-50.253	-176.190	
187.00	-57.050	-161.213	
188.00	-66.009	-89.812	
189.00	-59.931	-39.799	
190.00	-57.414	-28.906	
191.00	-57.511	-31.351	
192.00	-59.850	-23.449	
193.00	-64.392	-3.924	
194.00	-64.107	55.757	
195.00	-58.677	77.914	
196.00	-55.358	82.292	
197.00	-53.713	83.981	
198.00	-53.442	79.277	
199.00	-54.231	73.990	
200.00	-56.616	74.787	
201.00	-61.201	80.709	
202.00	-68.114	117.203	
203.00	-65.386	-171.894	
204.00	-62.219	-160.681	
205.00	-62.094	-145.817	
206.00	-64.994	-138.207	
207.00	-67.139	-83.601	
208.00	-61.446	-48.325	
209.00	-56.686	-34.187	
210.00	-54.140	-53.732	
211.00	-52.503	-50.428	
212.00	-51.964	-73.064	
213.00	-51.999	-70.585	
214.00	-52.949	-86.127	
215.00	-54.583	-93.113	
216.00	-57.343	-116.871	
217.00	-61.692	-125.684	
218.00	-69.775	-153.000	
219.00	-77.945	76.491	
220.00	-68.553	10.169	
221.00	-64.902	-17.265	
222.00	-63.290	-35.562	
223.00	-62.263	-63.558	
224.00	-62.325	-89.705	
225.00	-62.942	-120.564	
226.00	-64.769	-140.286	
227.00	-66.023	169.440	
228.00	-67.286	141.861	
229.00	-67.230	82.362	
230.00	-66.182	54.502	
231.00	-65.155	11.830	
232.00	-63.235	-5.630	
233.00	-62.277	-33.050	
234.00	-61.479	-55.646	
235.00	-61.043	-85.443	
236.00	-60.796	-73.780	
237.00	-61.014	-95.011	
238.00	-61.654	-94.840	
239.00	-62.212	-115.066	
240.00	-63.208	-131.654	
241.00	-64.140	-142.848	
242.00	-65.221	-153.007	
243.00	-65.900	-174.651	
244.00	-66.615	165.738	
245.00	-67.943	143.175	
246.00	-69.639	128.993	
247.00	-71.226	115.775	
248.00	-72.683	105.054	
249.00	-74.383	100.414	
250.00	-76.189	102.771	
251.00	-74.833	106.896	
252.00	-73.175	110.501	
253.00	-70.941	100.575	
254.00	-69.771	88.143	
255.00	-68.474	71.178	
256.00	-68.658	46.502	
257.00	-68.940	41.622	
258.00	-70.201	2.048	
259.00	-70.655	-8.382	
260.00	-71.766	-22.149	
261.00	-73.301	-92.318	
262.00	-74.340	-83.557	
263.00	-73.457	-154.170	
264.00	-73.282	-167.560	
265.00	-71.983	158.922	
266.00	-71.908	130.324	
267.00	-71.138	107.342	
268.00	-71.472	77.484	
269.00	-72.490	65.990	
270.00	-74.294	41.105	
271.00	-76.517	31.427	
272.00	-83.493	15.664	
273.00	-88.876	-120.617	
274.00	-83.013	176.162	
275.00	-78.267	133.511	
276.00	-76.320	111.577	
277.00	-76.193	93.450	
278.00	-77.067	74.199	
279.00	-78.938	55.204	
280.00	-83.681	33.813	
281.00	-100.925	70.208	
282.00	-82.793	172.576	
283.00	-76.530	141.739	
284.00	-73.971	129.994	
285.00	-72.537	109.696	
286.00	-73.073	92.743	
287.00	-73.282	76.881	
288.00	-75.110	59.683	
289.00	-80.342	46.672	
290.00	-83.944	60.748	
291.00	-89.682	58.536	
292.00	-83.469	143.426	
293.00	-79.954	119.862	
294.00	-78.706	127.748	
295.00	-77.955	128.234	
296.00	-76.700	108.886	
297.00	-76.102	110.813	
298.00	-75.397	93.228	
299.00	-74.388	80.910	
300.00	-76.691	75.931	
301.00	-78.230	64.092	
302.00	-81.853	70.630	
303.00	-86.895	94.641	
304.00	-80.087	102.619	
305.00	-77.021	87.412	
306.00	-77.090	70.686	
307.00	-79.128	57.144	
308.00	-85.484	72.690	
309.00	-84.630	67.448	
310.00	-80.564	82.650	
311.00	-81.480	63.961	
312.00	-80.118	36.734	
313.00	-80.199	28.261	
314.00	-89.182	62.449	
315.00	-85.943	74.223	
316.00	-81.910	89.484	
317.00	-77.644	85.514	
318.00	-79.763	34.024	
319.00	-81.754	32.114	
320.00	-99.286	-12.489	
321.00	-91.934	125.584	
322.00	-88.072	116.505	
323.00	-90.968	168.853	
324.00	-95.461	147.447	
325.00	-86.560	140.072	
326.00	-86.568	135.661	
327.00	-80.798	108.382	
328.00	-79.536	94.614	
329.00	-80.076	84.475	
330.00	-83.011	82.188	
331.00	-84.416	73.102	
332.00	-85.742	70.327	
333.00	-82.872	100.386	
334.00	-83.883	97.336	
335.00	-84.454	78.266	
336.00	-95.181	90.582	
337.00	-89.172	126.010	
338.00	-82.102	132.985	
339.00	-81.111	95.769	
340.00	-80.274	76.481	
341.00	-82.505	76.464	
342.00	-86.178	84.414	
343.00	-83.666	98.008	
344.00	-82.342	102.610	
345.00	-81.464	89.459	
346.00	-80.602	73.852	
347.00	-81.816	91.410	
348.00	-83.992	87.248	
349.00	-81.692	89.533	
350.00	-82.692	81.807	
351.00	-82.549	68.266	
352.00	-87.859	19.189	
353.00	-92.630	-86.782	
354.00	-88.824	-96.792	
355.00	-79.593	-177.828	
356.00	-83.624	166.309	
357.00	-90.703	132.000	
358.00	-98.657	-179.584	
359.00	-98.431	21.069	
Frequency	3550.00	MHz	
Channel	test		
Scan Axis name	Azimuth  [deg]		
Scan Axis	Amplitude	Phase	
			
0.00	-82.085	-84.546	
1.00	-81.906	-87.751	
2.00	-85.134	-88.130	
3.00	-83.210	-127.368	
4.00	-84.667	-120.188	
5.00	-79.895	-117.642	
6.00	-81.566	-121.238	
7.00	-83.324	-98.126	
8.00	-90.668	-109.570	
9.00	-88.433	-129.102	
10.00	-85.927	-125.977	
11.00	-82.186	-81.114	
12.00	-82.097	-91.353	
13.00	-81.697	-85.235	
14.00	-78.920	-110.289	
15.00	-77.920	-114.735	
16.00	-79.331	-86.413	
17.00	-81.126	-104.194	
18.00	-82.186	-102.758	
19.00	-82.919	-128.406	
20.00	-90.413	174.833	
21.00	-82.413	173.624	
22.00	-76.492	166.918	
23.00	-77.746	-164.656	
24.00	-79.331	178.217	
25.00	-81.248	175.150	
26.00	-81.955	164.344	
27.00	-89.348	107.058	
28.00	-85.580	65.088	
29.00	-78.131	77.199	
30.00	-76.794	88.955	
31.00	-78.631	105.643	
32.00	-81.648	101.835	
33.00	-87.309	83.355	
34.00	-95.198	0.519	
35.00	-87.603	-33.195	
36.00	-84.314	-28.837	
37.00	-78.964	-39.058	
38.00	-78.304	18.703	
39.00	-83.042	37.721	
40.00	-84.029	90.078	
41.00	-83.536	162.335	
42.00	-83.061	-157.468	
43.00	-81.931	-123.697	
44.00	-83.948	-104.907	
45.00	-85.621	-109.802	
46.00	-87.222	-136.428	
47.00	-83.043	-139.553	
48.00	-82.698	-137.214	
49.00	-81.964	-159.971	
50.00	-76.969	-153.863	
51.00	-74.559	-147.580	
52.00	-73.334	-126.973	
53.00	-74.642	-85.979	
54.00	-77.831	-48.449	
55.00	-84.238	25.562	
56.00	-79.298	107.583	
57.00	-74.229	151.780	
58.00	-71.442	176.265	
59.00	-70.785	-159.202	
60.00	-71.652	-123.694	
61.00	-72.410	-91.240	
62.00	-75.359	-56.814	
63.00	-80.467	-7.208	
64.00	-80.327	91.312	
65.00	-79.901	142.256	
66.00	-77.431	178.170	
67.00	-76.577	-153.770	
68.00	-76.793	-133.719	
69.00	-76.538	-108.018	
70.00	-78.067	-86.307	
71.00	-78.136	-72.483	
72.00	-77.811	-45.493	
73.00	-78.777	-16.565	
74.00	-77.067	9.737	
75.00	-78.880	43.525	
76.00	-78.383	88.951	
77.00	-77.083	133.835	
78.00	-74.714	179.912	
79.00	-72.598	-152.455	
80.00	-70.979	-119.053	
81.00	-70.423	-89.172	
82.00	-69.813	-51.956	
83.00	-69.291	-28.292	
84.00	-68.807	11.500	
85.00	-68.538	46.694	
86.00	-68.532	82.321	
87.00	-67.879	118.947	
88.00	-66.885	152.851	
89.00	-65.764	-177.104	
90.00	-65.157	-148.291	
91.00	-64.156	-120.134	
92.00	-63.944	-95.759	
93.00	-63.816	-68.124	
94.00	-63.968	-47.433	
95.00	-64.216	-18.810	
96.00	-64.457	6.107	
97.00	-64.859	33.204	
98.00	-65.565	65.064	
99.00	-65.537	95.818	
100.00	-65.634	128.333	
101.00	-65.538	149.993	
102.00	-65.807	178.590	
103.00	-66.733	-157.110	
104.00	-67.853	-134.022	
105.00	-68.300	-107.744	
106.00	-70.370	-86.490	
107.00	-72.770	-59.507	
108.00	-77.858	-9.319	
109.00	-80.380	57.877	
110.00	-77.005	137.599	
111.00	-72.468	168.007	
112.00	-69.324	-156.191	
113.00	-68.346	-127.343	
114.00	-66.816	-98.645	
115.00	-65.679	-69.540	
116.00	-64.300	-38.953	
117.00	-62.769	-10.922	
118.00	-61.603	22.357	
119.00	-60.610	38.150	
120.00	-60.564	66.866	
121.00	-60.437	80.256	
122.00	-60.884	104.148	
123.00	-62.006	126.186	
124.00	-62.705	139.768	
125.00	-63.640	156.281	
126.00	-64.175	170.616	
127.00	-64.294	173.658	
128.00	-63.625	-156.411	
129.00	-63.156	-157.284	
130.00	-62.678	-118.449	
131.00	-63.075	-101.190	
132.00	-64.748	-65.987	
133.00	-66.505	-34.711	
134.00	-66.554	37.178	
135.00	-63.040	73.095	
136.00	-59.932	100.871	
137.00	-58.222	120.268	
138.00	-57.181	123.908	
139.00	-56.687	149.075	
140.00	-56.372	145.892	
141.00	-56.318	148.244	
142.00	-56.857	173.824	
143.00	-57.969	153.587	
144.00	-60.257	-173.142	
145.00	-64.980	-159.767	
146.00	-75.611	-71.681	
147.00	-65.493	36.646	
148.00	-59.639	57.262	
149.00	-57.192	58.422	
150.00	-56.678	95.427	
151.00	-57.212	96.076	
152.00	-58.825	117.320	
153.00	-60.674	89.214	
154.00	-60.504	92.603	
155.00	-59.821	84.704	
156.00	-59.897	90.692	
157.00	-61.844	101.254	
158.00	-64.607	139.631	
159.00	-66.488	-171.601	
160.00	-65.924	-130.747	
161.00	-65.095	-117.816	
162.00	-64.564	-121.977	
163.00	-61.960	-135.446	
164.00	-59.243	-155.975	
165.00	-57.568	-146.163	
166.00	-57.577	-150.146	
167.00	-59.722	-144.049	
168.00	-65.938	-156.465	
169.00	-76.220	98.297	
170.00	-64.821	56.977	
171.00	-61.396	19.187	
172.00	-57.624	-13.932	
173.00	-52.263	-39.811	
174.00	-47.563	-45.355	
175.00	-44.148	-41.248	
176.00	-41.693	-43.575	
177.00	-40.024	-32.745	
178.00	-38.937	-38.098	
179.00	-38.449	-29.563	
180.00	-38.458	-38.625	
181.00	-38.913	-40.733	
182.00	-39.813	-39.704	
183.00	-41.239	-50.470	
184.00	-43.211	-50.104	
185.00	-45.858	-62.297	
186.00	-49.729	-58.863	
187.00	-55.275	-45.966	
188.00	-62.812	3.992	
189.00	-60.093	62.885	
190.00	-57.375	82.180	
191.00	-57.325	86.489	
192.00	-59.720	103.834	
193.00	-62.939	140.492	
194.00	-59.491	-171.658	
195.00	-55.369	-155.742	
196.00	-53.137	-149.894	
197.00	-52.431	-147.220	
198.00	-53.098	-152.222	
199.00	-55.356	-158.659	
200.00	-60.123	-160.741	
201.00	-72.711	-158.798	
202.00	-66.332	2.790	
203.00	-60.535	1.457	
204.00	-58.489	-3.840	
205.00	-59.072	2.723	
206.00	-60.571	2.547	
207.00	-62.070	32.117	
208.00	-60.052	53.461	
209.00	-57.261	70.241	
210.00	-55.259	50.254	
211.00	-53.967	49.217	
212.00	-53.272	23.056	
213.00	-53.063	21.103	
214.00	-53.503	1.995	
215.00	-54.656	-7.549	
216.00	-56.698	-32.261	
217.00	-60.359	-43.976	
218.00	-67.802	-72.762	
219.00	-73.271	139.102	
220.00	-63.595	100.431	
221.00	-59.925	79.207	
222.00	-58.211	67.258	
223.00	-57.758	48.534	
224.00	-58.709	30.676	
225.00	-60.879	11.516	
226.00	-65.439	2.972	
227.00	-74.685	-36.961	
228.00	-73.639	168.081	
229.00	-65.710	124.052	
230.00	-62.318	119.039	
231.00	-60.658	93.299	
232.00	-59.933	90.695	
233.00	-59.466	69.758	
234.00	-59.790	53.774	
235.00	-59.957	27.453	
236.00	-61.026	45.266	
237.00	-61.544	31.283	
238.00	-62.184	40.348	
239.00	-62.585	28.192	
240.00	-62.601	20.230	
241.00	-63.101	12.835	
242.00	-63.351	8.444	
243.00	-64.126	-11.834	
244.00	-64.929	-15.353	
245.00	-65.240	-28.908	
246.00	-65.855	-32.472	
247.00	-65.883	-37.638	
248.00	-66.056	-45.989	
249.00	-65.424	-54.950	
250.00	-65.366	-67.499	
251.00	-64.511	-87.393	
252.00	-64.295	-99.286	
253.00	-64.254	-119.973	
254.00	-64.141	-140.810	
255.00	-63.906	-161.843	
256.00	-64.671	165.729	
257.00	-65.083	154.262	
258.00	-66.011	114.325	
259.00	-66.181	104.723	
260.00	-67.473	84.165	
261.00	-67.913	30.771	
262.00	-68.040	36.711	
263.00	-68.209	-15.027	
264.00	-68.949	-22.910	
265.00	-68.971	-55.272	
266.00	-69.782	-83.869	
267.00	-71.224	-104.764	
268.00	-71.857	-140.726	
269.00	-72.534	-157.204	
270.00	-75.774	157.910	
271.00	-78.359	131.910	
272.00	-78.638	89.234	
273.00	-80.785	24.029	
274.00	-77.974	-10.684	
275.00	-77.896	-44.455	
276.00	-78.316	-79.500	
277.00	-77.992	-101.673	
278.00	-80.351	-127.081	
279.00	-82.598	175.542	
280.00	-86.024	126.993	
281.00	-89.137	82.967	
282.00	-84.278	-10.570	
283.00	-79.997	-67.767	
284.00	-76.966	-84.056	
285.00	-74.984	-120.410	
286.00	-75.918	-135.813	
287.00	-75.720	-161.879	
288.00	-75.700	174.407	
289.00	-80.277	129.145	
290.00	-78.803	85.879	
291.00	-80.333	28.533	
292.00	-79.214	-13.557	
293.00	-78.093	-67.968	
294.00	-77.810	-95.429	
295.00	-78.421	-112.207	
296.00	-76.867	-137.387	
297.00	-78.201	-146.548	
298.00	-79.613	-153.506	
299.00	-80.269	-170.655	
300.00	-80.880	-172.243	
301.00	-81.714	-177.847	
302.00	-82.509	159.261	
303.00	-85.206	137.020	
304.00	-88.633	56.443	
305.00	-97.294	-33.370	
306.00	-93.117	-17.101	
307.00	-90.231	-43.453	
308.00	-96.194	135.324	
309.00	-90.708	153.648	
310.00	-88.044	112.210	
311.00	-88.179	42.249	
312.00	-91.252	2.258	
313.00	-90.284	24.348	
314.00	-85.852	-88.882	
315.00	-83.451	-124.625	
316.00	-80.370	-135.187	
317.00	-77.833	179.721	
318.00	-80.081	167.870	
319.00	-81.462	132.535	
320.00	-87.467	76.260	
321.00	-88.936	-89.716	
322.00	-97.527	-156.623	
323.00	-85.450	157.618	
324.00	-84.675	174.507	
325.00	-89.151	163.959	
326.00	-86.530	-177.881	
327.00	-93.947	121.828	
328.00	-97.358	29.603	
329.00	-90.513	-18.334	
330.00	-85.459	-93.576	
331.00	-82.644	-67.330	
332.00	-82.954	-100.093	
333.00	-85.636	-108.893	
334.00	-89.013	-120.269	
335.00	-84.859	-87.598	
336.00	-83.149	-102.299	
337.00	-79.877	-117.932	
338.00	-81.761	-166.926	
339.00	-84.889	138.197	
340.00	-84.835	83.434	
341.00	-87.964	70.723	
342.00	-87.657	6.508	
343.00	-88.747	-52.881	
344.00	-88.228	-116.527	
345.00	-93.913	136.371	
346.00	-92.569	110.657	
347.00	-85.013	11.919	
348.00	-81.726	-53.530	
349.00	-78.193	-86.409	
350.00	-81.101	-68.262	
351.00	-83.099	-97.394	
352.00	-84.175	-104.867	
353.00	-81.206	-74.142	
354.00	-78.504	-70.923	
355.00	-78.727	-96.592	
356.00	-77.369	-94.751	
357.00	-77.840	-99.208	
358.00	-78.976	-111.829	
359.00	-80.460	-115.116	
Frequency	3600.00	MHz	
Channel	test		
Scan Axis name	Azimuth  [deg]		
Scan Axis	Amplitude	Phase	
			
0.00	-79.246	10.975	
1.00	-83.645	13.925	
2.00	-83.627	-0.308	
3.00	-83.818	5.538	
4.00	-84.667	33.135	
5.00	-84.672	38.463	
6.00	-87.624	-22.234	
7.00	-81.920	11.721	
8.00	-83.589	-11.946	
9.00	-87.024	8.038	
10.00	-87.358	-11.444	
11.00	-83.687	20.448	
12.00	-81.238	19.897	
13.00	-81.770	42.194	
14.00	-81.921	34.710	
15.00	-77.460	31.427	
16.00	-75.843	29.505	
17.00	-76.692	25.094	
18.00	-77.478	14.663	
19.00	-79.083	27.007	
20.00	-79.558	32.781	
21.00	-81.250	61.384	
22.00	-85.497	47.435	
23.00	-84.941	62.597	
24.00	-84.921	23.007	
25.00	-84.449	31.619	
26.00	-82.930	52.271	
27.00	-81.986	62.019	
28.00	-83.930	80.949	
29.00	-79.577	86.179	
30.00	-81.956	108.463	
31.00	-86.428	113.623	
32.00	-93.913	165.029	
33.00	-88.203	15.597	
34.00	-80.841	31.635	
35.00	-81.054	39.304	
36.00	-77.766	59.205	
37.00	-76.510	57.149	
38.00	-76.003	75.632	
39.00	-74.681	74.578	
40.00	-78.352	97.465	
41.00	-83.241	118.510	
42.00	-117.060	23.942	
43.00	-84.458	-15.997	
44.00	-80.317	-1.235	
45.00	-79.396	18.615	
46.00	-82.334	31.970	
47.00	-83.998	17.290	
48.00	-80.308	-3.541	
49.00	-78.701	-3.207	
50.00	-76.722	-1.186	
51.00	-76.528	-9.204	
52.00	-73.542	-10.293	
53.00	-71.696	5.585	
54.00	-72.041	22.536	
55.00	-73.206	44.716	
56.00	-79.456	48.720	
57.00	-91.420	62.905	
58.00	-82.655	-75.179	
59.00	-74.660	-45.730	
60.00	-71.876	-20.646	
61.00	-71.129	10.332	
62.00	-71.535	36.916	
63.00	-72.879	69.312	
64.00	-77.277	117.154	
65.00	-85.648	155.912	
66.00	-82.337	-85.470	
67.00	-82.705	-13.147	
68.00	-77.938	14.629	
69.00	-78.289	37.345	
70.00	-78.361	69.699	
71.00	-80.303	82.905	
72.00	-83.337	89.232	
73.00	-88.659	79.280	
74.00	-90.114	39.002	
75.00	-89.986	16.730	
76.00	-90.091	-33.271	
77.00	-87.952	-24.370	
78.00	-79.846	-19.975	
79.00	-76.377	-15.245	
80.00	-73.082	11.963	
81.00	-71.391	32.127	
82.00	-70.363	54.176	
83.00	-70.098	76.815	
84.00	-70.007	106.883	
85.00	-70.771	133.481	
86.00	-71.027	172.387	
87.00	-70.480	-152.613	
88.00	-69.815	-112.562	
89.00	-68.975	-80.703	
90.00	-67.190	-50.270	
91.00	-66.315	-19.629	
92.00	-65.405	3.291	
93.00	-65.045	31.488	
94.00	-64.912	52.368	
95.00	-64.698	78.715	
96.00	-65.226	103.286	
97.00	-65.491	126.692	
98.00	-65.892	158.484	
99.00	-65.887	-175.816	
100.00	-65.818	-142.335	
101.00	-65.846	-118.881	
102.00	-65.365	-92.122	
103.00	-65.297	-69.894	
104.00	-65.006	-48.633	
105.00	-64.640	-30.653	
106.00	-65.463	-17.170	
107.00	-65.894	5.447	
108.00	-66.646	29.144	
109.00	-68.303	48.400	
110.00	-69.956	76.859	
111.00	-71.912	91.292	
112.00	-73.858	107.149	
113.00	-76.405	82.955	
114.00	-73.160	66.463	
115.00	-68.048	67.957	
116.00	-64.925	82.701	
117.00	-62.661	98.817	
118.00	-60.716	126.891	
119.00	-59.625	140.088	
120.00	-59.428	170.404	
121.00	-59.426	-175.658	
122.00	-60.086	-150.710	
123.00	-60.866	-123.631	
124.00	-62.632	-106.089	
125.00	-64.960	-94.784	
126.00	-66.831	-86.733	
127.00	-66.845	-97.316	
128.00	-64.828	-76.491	
129.00	-63.110	-79.322	
130.00	-61.677	-42.542	
131.00	-61.330	-28.527	
132.00	-62.094	1.034	
133.00	-63.893	30.003	
134.00	-65.860	93.126	
135.00	-63.797	138.217	
136.00	-60.849	177.770	
137.00	-58.525	-157.998	
138.00	-57.136	-149.001	
139.00	-56.237	-118.211	
140.00	-55.933	-118.340	
141.00	-56.459	-111.072	
142.00	-57.317	-83.910	
143.00	-59.763	-103.435	
144.00	-63.537	-65.248	
145.00	-73.402	-54.783	
146.00	-71.243	139.043	
147.00	-63.425	163.539	
148.00	-60.061	177.547	
149.00	-59.095	174.987	
150.00	-59.602	-152.913	
151.00	-61.098	-162.444	
152.00	-62.151	-153.380	
153.00	-61.239	172.022	
154.00	-60.357	-170.220	
155.00	-60.500	-171.079	
156.00	-62.832	-162.418	
157.00	-66.604	-161.117	
158.00	-75.311	-157.680	
159.00	-84.624	144.349	
160.00	-89.838	-116.198	
161.00	-70.567	-69.986	
162.00	-62.774	-46.424	
163.00	-58.868	-31.210	
164.00	-57.254	-35.287	
165.00	-57.381	-21.157	
166.00	-59.499	-30.296	
167.00	-63.246	-51.449	
168.00	-61.984	-102.343	
169.00	-58.884	-112.528	
170.00	-59.000	-106.192	
171.00	-65.271	-90.288	
172.00	-60.922	35.420	
173.00	-51.356	50.502	
174.00	-46.353	61.551	
175.00	-43.065	70.912	
176.00	-40.977	71.468	
177.00	-39.568	82.555	
178.00	-38.620	77.019	
179.00	-38.089	84.841	
180.00	-37.998	75.209	
181.00	-38.324	73.463	
182.00	-39.157	75.300	
183.00	-40.632	65.501	
184.00	-42.788	67.361	
185.00	-45.962	55.620	
186.00	-50.669	59.656	
187.00	-57.960	73.289	
188.00	-67.833	161.087	
189.00	-60.020	-157.625	
190.00	-57.914	-146.600	
191.00	-58.616	-144.915	
192.00	-61.665	-118.730	
193.00	-61.733	-73.051	
194.00	-57.317	-44.956	
195.00	-54.339	-39.525	
196.00	-52.882	-37.111	
197.00	-52.983	-37.114	
198.00	-54.705	-45.748	
199.00	-58.440	-59.978	
200.00	-65.452	-90.688	
201.00	-67.007	168.319	
202.00	-61.061	132.967	
203.00	-59.167	119.390	
204.00	-58.737	102.659	
205.00	-60.269	100.635	
206.00	-63.213	90.178	
207.00	-67.696	114.648	
208.00	-64.888	152.915	
209.00	-59.979	165.966	
210.00	-56.473	142.850	
211.00	-54.402	141.078	
212.00	-53.055	116.223	
213.00	-52.608	116.805	
214.00	-52.923	100.999	
215.00	-54.707	94.647	
216.00	-57.864	71.744	
217.00	-64.545	60.210	
218.00	-76.519	-74.313	
219.00	-63.181	-130.471	
220.00	-58.792	-149.157	
221.00	-57.122	-163.948	
222.00	-56.789	-172.241	
223.00	-57.713	174.354	
224.00	-60.328	160.797	
225.00	-64.774	153.812	
226.00	-72.511	-156.730	
227.00	-67.705	-120.116	
228.00	-62.799	-97.454	
229.00	-60.294	-127.285	
230.00	-59.151	-125.705	
231.00	-58.822	-146.422	
232.00	-59.025	-144.423	
233.00	-59.427	-157.549	
234.00	-60.224	-166.244	
235.00	-60.595	175.497	
236.00	-60.778	-163.238	
237.00	-60.782	-173.680	
238.00	-61.110	-164.764	
239.00	-61.315	179.368	
240.00	-62.039	168.385	
241.00	-62.878	164.090	
242.00	-63.979	162.714	
243.00	-65.240	149.280	
244.00	-65.848	151.617	
245.00	-66.279	141.162	
246.00	-66.017	141.965	
247.00	-65.094	134.234	
248.00	-64.679	121.110	
249.00	-64.058	101.478	
250.00	-63.737	87.242	
251.00	-63.716	63.820	
252.00	-63.917	47.852	
253.00	-64.345	24.446	
254.00	-65.438	8.420	
255.00	-66.490	-8.852	
256.00	-68.586	-38.520	
257.00	-70.450	-49.825	
258.00	-74.015	-85.723	
259.00	-77.151	-99.674	
260.00	-81.818	-122.126	
261.00	-81.464	159.011	
262.00	-90.173	-160.151	
263.00	-84.087	119.441	
264.00	-87.289	79.468	
265.00	-81.217	78.690	
266.00	-81.024	90.082	
267.00	-81.348	67.749	
268.00	-77.222	67.299	
269.00	-77.100	59.242	
270.00	-76.026	32.671	
271.00	-75.779	31.687	
272.00	-77.391	6.803	
273.00	-79.185	-10.229	
274.00	-79.989	-31.362	
275.00	-83.475	-40.004	
276.00	-91.776	86.520	
277.00	-84.844	84.201	
278.00	-82.439	71.155	
279.00	-81.217	48.809	
280.00	-79.214	30.195	
281.00	-80.724	17.552	
282.00	-84.725	24.018	
283.00	-87.430	58.623	
284.00	-83.885	60.721	
285.00	-81.217	44.295	
286.00	-79.844	30.256	
287.00	-76.290	4.840	
288.00	-78.188	-15.817	
289.00	-79.148	-54.537	
290.00	-80.231	-92.846	
291.00	-80.193	-154.468	
292.00	-80.435	147.531	
293.00	-78.255	105.888	
294.00	-77.282	52.837	
295.00	-77.310	29.938	
296.00	-77.648	-12.132	
297.00	-79.095	-39.801	
298.00	-83.185	-89.208	
299.00	-85.451	-125.050	
300.00	-83.214	-153.413	
301.00	-86.258	152.318	
302.00	-84.451	166.595	
303.00	-83.508	153.596	
304.00	-82.574	139.875	
305.00	-80.092	99.711	
306.00	-82.263	97.407	
307.00	-85.896	70.804	
308.00	-91.300	78.845	
309.00	-85.817	110.326	
310.00	-79.989	112.613	
311.00	-77.305	83.960	
312.00	-76.380	63.667	
313.00	-79.934	71.026	
314.00	-80.577	51.431	
315.00	-83.757	43.437	
316.00	-81.689	50.274	
317.00	-83.406	45.869	
318.00	-83.437	4.653	
319.00	-94.661	-32.038	
320.00	-88.606	167.484	
321.00	-82.603	112.995	
322.00	-83.319	71.617	
323.00	-83.239	85.147	
324.00	-85.687	121.395	
325.00	-83.583	126.119	
326.00	-82.919	104.362	
327.00	-81.117	84.613	
328.00	-79.198	61.492	
329.00	-78.035	52.188	
330.00	-76.471	36.227	
331.00	-77.574	23.031	
332.00	-77.300	5.999	
333.00	-78.855	-11.833	
334.00	-82.504	2.846	
335.00	-85.497	28.953	
336.00	-79.154	30.951	
337.00	-79.900	9.886	
338.00	-83.247	-36.256	
339.00	-85.873	-60.853	
340.00	-92.633	143.712	
341.00	-87.362	138.426	
342.00	-83.730	80.403	
343.00	-81.685	49.795	
344.00	-81.331	33.796	
345.00	-81.524	35.487	
346.00	-85.158	48.230	
347.00	-79.663	58.439	
348.00	-76.228	37.087	
349.00	-75.658	15.132	
350.00	-75.581	15.809	
351.00	-77.197	9.545	
352.00	-83.976	-1.420	
353.00	-84.637	37.145	
354.00	-80.919	25.495	
355.00	-80.691	-16.160	
356.00	-80.143	3.078	
357.00	-77.754	3.764	
358.00	-80.366	-21.898	
359.00	-78.895	-23.853	
Frequency	3650.00	MHz	
Channel	test		
Scan Axis name	Azimuth  [deg]		
Scan Axis	Amplitude	Phase	
			
0.00	-78.098	73.601	
1.00	-79.753	62.837	
2.00	-82.522	44.146	
3.00	-83.976	47.298	
4.00	-85.283	68.605	
5.00	-85.030	93.583	
6.00	-86.910	88.926	
7.00	-81.018	72.025	
8.00	-87.066	60.533	
9.00	-85.304	97.930	
10.00	-86.814	90.309	
11.00	-81.007	116.383	
12.00	-83.110	88.006	
13.00	-80.836	99.172	
14.00	-79.760	87.379	
15.00	-79.352	81.806	
16.00	-78.376	80.718	
17.00	-80.804	74.902	
18.00	-81.279	108.096	
19.00	-79.121	123.687	
20.00	-79.674	136.284	
21.00	-80.558	153.812	
22.00	-81.475	128.042	
23.00	-80.368	107.041	
24.00	-79.132	74.940	
25.00	-80.173	62.560	
26.00	-80.653	55.101	
27.00	-83.898	56.175	
28.00	-95.933	75.900	
29.00	-96.281	174.403	
30.00	-92.789	-49.682	
31.00	-84.490	-42.068	
32.00	-83.091	-36.210	
33.00	-81.114	-31.566	
34.00	-91.285	-15.801	
35.00	-91.467	111.975	
36.00	-81.489	147.555	
37.00	-79.074	154.012	
38.00	-77.062	-173.782	
39.00	-75.069	-164.138	
40.00	-75.761	-157.781	
41.00	-76.627	-150.264	
42.00	-77.607	-134.386	
43.00	-81.854	-129.461	
44.00	-86.125	-132.482	
45.00	-89.695	-126.110	
46.00	-96.207	-119.198	
47.00	-97.759	133.417	
48.00	-98.558	80.199	
49.00	-88.445	11.883	
50.00	-79.743	26.404	
51.00	-78.831	21.184	
52.00	-76.223	32.210	
53.00	-75.564	52.925	
54.00	-76.904	64.026	
55.00	-78.261	78.136	
56.00	-83.138	102.195	
57.00	-84.293	43.411	
58.00	-81.908	41.311	
59.00	-79.814	23.383	
60.00	-76.897	56.798	
61.00	-76.944	74.476	
62.00	-79.108	87.630	
63.00	-86.641	105.164	
64.00	-84.487	-18.726	
65.00	-78.013	-8.899	
66.00	-72.661	27.659	
67.00	-73.091	52.730	
68.00	-73.513	81.022	
69.00	-74.554	108.683	
70.00	-75.952	140.933	
71.00	-78.530	-172.714	
72.00	-78.312	-135.482	
73.00	-77.366	-78.193	
74.00	-75.944	-50.126	
75.00	-73.917	-18.167	
76.00	-72.840	-0.925	
77.00	-72.257	18.810	
78.00	-71.849	39.082	
79.00	-71.580	52.120	
80.00	-71.448	77.597	
81.00	-72.829	95.588	
82.00	-71.852	134.249	
83.00	-72.188	155.644	
84.00	-72.082	-166.733	
85.00	-71.188	-135.088	
86.00	-70.550	-104.432	
87.00	-69.555	-73.179	
88.00	-68.086	-43.995	
89.00	-67.435	-15.752	
90.00	-66.846	9.804	
91.00	-66.460	40.431	
92.00	-66.334	62.770	
93.00	-66.092	91.967	
94.00	-65.998	116.576	
95.00	-65.837	149.091	
96.00	-65.378	172.612	
97.00	-65.103	-161.117	
98.00	-65.374	-130.067	
99.00	-65.236	-101.356	
100.00	-65.320	-67.283	
101.00	-65.068	-43.931	
102.00	-65.536	-18.503	
103.00	-65.967	10.295	
104.00	-66.574	32.925	
105.00	-68.613	50.473	
106.00	-70.170	66.024	
107.00	-74.500	71.098	
108.00	-76.835	71.062	
109.00	-74.500	41.537	
110.00	-70.535	54.460	
111.00	-67.829	64.479	
112.00	-65.313	88.775	
113.00	-63.554	106.845	
114.00	-62.351	129.644	
115.00	-61.114	148.540	
116.00	-60.638	172.547	
117.00	-60.287	-164.239	
118.00	-59.957	-129.464	
119.00	-59.995	-115.100	
120.00	-60.482	-83.619	
121.00	-60.690	-68.355	
122.00	-61.929	-44.922	
123.00	-63.182	-25.466	
124.00	-65.269	-16.364	
125.00	-67.547	-11.372	
126.00	-67.946	-5.910	
127.00	-66.239	-5.433	
128.00	-64.435	23.656	
129.00	-63.163	24.542	
130.00	-61.769	61.697	
131.00	-61.127	74.334	
132.00	-61.711	103.260	
133.00	-63.772	120.587	
134.00	-66.810	175.297	
135.00	-67.434	-123.297	
136.00	-63.651	-77.090	
137.00	-60.591	-48.199	
138.00	-58.901	-37.590	
139.00	-58.080	-4.626	
140.00	-57.384	-4.290	
141.00	-57.588	5.613	
142.00	-58.198	29.402	
143.00	-59.772	5.140	
144.00	-61.779	28.691	
145.00	-65.527	5.156	
146.00	-66.197	-13.831	
147.00	-62.335	-32.464	
148.00	-59.133	-41.063	
149.00	-57.436	-52.888	
150.00	-56.694	-22.895	
151.00	-56.920	-29.863	
152.00	-57.643	-4.958	
153.00	-59.875	-23.596	
154.00	-62.779	-7.684	
155.00	-67.189	-37.297	
156.00	-67.705	-77.279	
157.00	-64.704	-96.869	
158.00	-64.121	-83.197	
159.00	-64.758	-56.105	
160.00	-65.633	0.510	
161.00	-61.368	55.199	
162.00	-57.838	93.394	
163.00	-55.786	114.316	
164.00	-55.680	115.216	
165.00	-58.199	133.159	
166.00	-65.333	117.049	
167.00	-65.904	7.026	
168.00	-57.693	-7.188	
169.00	-54.785	-0.397	
170.00	-54.988	10.625	
171.00	-59.800	13.706	
172.00	-64.487	147.581	
173.00	-52.480	172.429	
174.00	-47.054	-177.248	
175.00	-43.643	-169.967	
176.00	-41.350	-170.420	
177.00	-39.826	-161.021	
178.00	-38.705	-167.314	
179.00	-38.082	-159.789	
180.00	-37.882	-169.066	
181.00	-38.219	-169.622	
182.00	-39.136	-166.586	
183.00	-40.796	-175.167	
184.00	-43.290	-170.872	
185.00	-46.981	178.972	
186.00	-52.593	-172.494	
187.00	-61.685	-146.072	
188.00	-64.265	-42.788	
189.00	-59.094	-26.294	
190.00	-58.358	-16.711	
191.00	-59.659	-12.666	
192.00	-61.514	13.746	
193.00	-60.778	41.654	
194.00	-57.801	59.826	
195.00	-55.444	62.448	
196.00	-54.476	64.737	
197.00	-54.795	64.069	
198.00	-56.605	55.397	
199.00	-60.903	43.459	
200.00	-72.162	15.466	
201.00	-66.467	-122.943	
202.00	-59.867	-141.916	
203.00	-57.493	-147.032	
204.00	-56.871	-155.338	
205.00	-57.626	-146.719	
206.00	-59.238	-145.652	
207.00	-59.542	-119.944	
208.00	-57.600	-106.506	
209.00	-55.225	-92.528	
210.00	-53.670	-112.414	
211.00	-52.961	-110.843	
212.00	-53.018	-135.484	
213.00	-54.106	-138.752	
214.00	-55.757	-162.361	
215.00	-58.575	173.797	
216.00	-60.853	120.382	
217.00	-60.122	76.739	
218.00	-58.478	34.009	
219.00	-57.103	11.093	
220.00	-56.769	-15.730	
221.00	-56.768	-37.132	
222.00	-57.813	-50.324	
223.00	-59.755	-69.391	
224.00	-63.721	-90.718	
225.00	-71.718	-102.255	
226.00	-77.006	40.032	
227.00	-67.058	24.735	
228.00	-63.368	30.561	
229.00	-62.014	-6.829	
230.00	-61.715	-12.331	
231.00	-62.041	-31.986	
232.00	-63.573	-32.468	
233.00	-64.736	-46.975	
234.00	-66.108	-52.822	
235.00	-66.405	-65.670	
236.00	-66.390	-38.013	
237.00	-65.895	-48.077	
238.00	-65.411	-39.603	
239.00	-65.639	-49.110	
240.00	-66.401	-59.031	
241.00	-67.540	-58.738	
242.00	-68.610	-59.231	
243.00	-69.197	-66.016	
244.00	-68.669	-66.721	
245.00	-68.556	-74.150	
246.00	-67.671	-84.739	
247.00	-67.290	-94.023	
248.00	-66.871	-110.547	
249.00	-66.561	-137.210	
250.00	-66.543	-156.651	
251.00	-66.729	176.352	
252.00	-67.730	159.946	
253.00	-68.411	139.075	
254.00	-69.747	120.973	
255.00	-70.520	105.123	
256.00	-73.236	83.737	
257.00	-75.177	83.976	
258.00	-78.163	66.112	
259.00	-79.756	78.327	
260.00	-79.592	81.929	
261.00	-79.027	58.443	
262.00	-76.840	63.107	
263.00	-77.167	7.639	
264.00	-77.414	4.664	
265.00	-78.120	-26.876	
266.00	-78.722	-51.138	
267.00	-79.095	-84.553	
268.00	-78.649	-127.595	
269.00	-77.397	-157.685	
270.00	-77.386	156.962	
271.00	-77.725	137.228	
272.00	-75.652	104.036	
273.00	-77.676	65.669	
274.00	-77.283	39.208	
275.00	-78.527	12.018	
276.00	-81.205	-45.765	
277.00	-78.927	-46.577	
278.00	-84.495	-94.032	
279.00	-83.817	-108.200	
280.00	-84.921	-164.289	
281.00	-84.860	-179.186	
282.00	-83.955	134.805	
283.00	-86.482	116.114	
284.00	-84.057	139.447	
285.00	-83.193	128.422	
286.00	-80.692	97.693	
287.00	-78.438	75.860	
288.00	-79.321	37.112	
289.00	-78.413	3.309	
290.00	-77.899	-16.807	
291.00	-77.620	-60.211	
292.00	-78.332	-99.228	
293.00	-78.673	-156.808	
294.00	-77.954	171.308	
295.00	-78.846	138.663	
296.00	-80.685	97.346	
297.00	-83.790	58.547	
298.00	-85.993	-15.425	
299.00	-84.947	-34.428	
300.00	-87.997	-88.215	
301.00	-87.777	-147.129	
302.00	-87.658	162.201	
303.00	-92.667	-151.851	
304.00	-83.123	-141.653	
305.00	-81.434	-168.200	
306.00	-78.804	175.282	
307.00	-78.268	147.553	
308.00	-81.673	126.802	
309.00	-85.428	121.634	
310.00	-85.129	171.108	
311.00	-80.207	156.904	
312.00	-76.260	142.028	
313.00	-75.559	137.927	
314.00	-75.676	102.950	
315.00	-76.633	88.331	
316.00	-77.706	64.218	
317.00	-79.299	42.761	
318.00	-77.925	14.322	
319.00	-77.847	-10.558	
320.00	-82.494	-68.254	
321.00	-83.296	-142.147	
322.00	-86.667	-123.258	
323.00	-88.673	-122.716	
324.00	-84.845	-106.474	
325.00	-81.288	-122.488	
326.00	-82.787	-149.590	
327.00	-80.852	156.956	
328.00	-79.005	152.740	
329.00	-78.158	126.999	
330.00	-77.113	99.948	
331.00	-76.193	93.158	
332.00	-74.465	85.472	
333.00	-74.148	65.853	
334.00	-75.230	45.378	
335.00	-75.317	29.952	
336.00	-76.504	32.379	
337.00	-76.370	22.269	
338.00	-77.034	-31.999	
339.00	-78.168	-49.993	
340.00	-79.128	-84.684	
341.00	-84.659	-106.349	
342.00	-83.585	-156.228	
343.00	-92.978	-168.472	
344.00	-87.626	100.025	
345.00	-91.245	103.063	
346.00	-87.861	133.278	
347.00	-85.172	146.138	
348.00	-81.730	89.594	
349.00	-80.024	67.412	
350.00	-83.372	35.466	
351.00	-85.630	16.221	
352.00	-89.554	150.038	
353.00	-88.076	146.815	
354.00	-83.720	93.104	
355.00	-87.075	55.730	
356.00	-83.829	45.715	
357.00	-82.233	53.308	
358.00	-78.891	27.891	
359.00	-78.030	25.454	
Frequency	3700.00	MHz	
Channel	test		
Scan Axis name	Azimuth  [deg]		
Scan Axis	Amplitude	Phase	
			
0.00	-88.440	-156.184	
1.00	-91.960	125.043	
2.00	-86.874	41.289	
3.00	-96.746	53.289	
4.00	-90.429	-68.116	
5.00	-86.003	-108.040	
6.00	-83.568	-83.309	
7.00	-83.365	-102.880	
8.00	-89.597	-105.269	
9.00	-91.013	-70.866	
10.00	-86.625	-14.072	
11.00	-96.978	-48.768	
12.00	-95.630	-145.268	
13.00	-88.765	-165.991	
14.00	-89.062	147.530	
15.00	-86.228	-178.745	
16.00	-89.563	175.274	
17.00	-83.696	156.263	
18.00	-89.021	159.313	
19.00	-85.182	-127.103	
20.00	-83.279	-142.913	
21.00	-81.878	-107.102	
22.00	-82.103	-126.575	
23.00	-85.318	-144.472	
24.00	-82.833	-144.619	
25.00	-81.376	-152.679	
26.00	-82.561	-159.216	
27.00	-82.473	-161.297	
28.00	-83.567	-163.779	
29.00	-91.742	-175.078	
30.00	-92.221	132.614	
31.00	-81.945	75.796	
32.00	-81.242	82.562	
33.00	-80.841	85.928	
34.00	-81.779	114.551	
35.00	-83.332	115.206	
36.00	-85.976	144.391	
37.00	-84.748	-163.656	
38.00	-80.493	-138.176	
39.00	-82.061	-109.120	
40.00	-81.352	-107.081	
41.00	-81.733	-115.851	
42.00	-81.476	-118.775	
43.00	-78.133	-122.169	
44.00	-78.944	-119.342	
45.00	-79.433	-106.396	
46.00	-78.532	-76.756	
47.00	-81.344	-85.015	
48.00	-84.794	-47.522	
49.00	-86.844	-104.094	
50.00	-84.480	-104.092	
51.00	-86.412	-97.200	
52.00	-84.328	-117.910	
53.00	-79.062	-101.765	
54.00	-81.074	-84.223	
55.00	-82.282	-75.997	
56.00	-89.175	-64.558	
57.00	-89.965	-149.712	
58.00	-85.339	-177.718	
59.00	-78.673	-173.246	
60.00	-74.368	-145.366	
61.00	-72.553	-120.732	
62.00	-73.209	-88.375	
63.00	-74.035	-52.672	
64.00	-77.094	-4.750	
65.00	-76.890	39.739	
66.00	-77.269	106.374	
67.00	-74.976	128.813	
68.00	-74.435	174.458	
69.00	-74.428	-156.836	
70.00	-73.204	-127.839	
71.00	-73.607	-97.159	
72.00	-74.686	-79.696	
73.00	-75.474	-47.667	
74.00	-77.789	-27.832	
75.00	-77.816	6.899	
76.00	-79.199	46.696	
77.00	-81.437	89.814	
78.00	-82.134	139.147	
79.00	-80.070	177.762	
80.00	-77.962	-151.478	
81.00	-77.140	-117.084	
82.00	-76.882	-90.012	
83.00	-76.134	-64.567	
84.00	-76.938	-43.298	
85.00	-79.153	-19.803	
86.00	-80.176	-15.676	
87.00	-85.026	18.029	
88.00	-94.626	10.914	
89.00	-95.642	-120.635	
90.00	-83.493	-80.333	
91.00	-80.733	-88.574	
92.00	-77.645	-83.486	
93.00	-75.286	-70.576	
94.00	-77.479	-63.768	
95.00	-74.998	-44.791	
96.00	-73.791	-37.413	
97.00	-73.829	-21.216	
98.00	-73.272	6.507	
99.00	-72.231	27.995	
100.00	-73.486	70.309	
101.00	-70.945	90.250	
102.00	-70.986	124.078	
103.00	-70.134	156.210	
104.00	-69.442	-173.270	
105.00	-69.426	-140.538	
106.00	-68.815	-110.992	
107.00	-69.620	-69.233	
108.00	-69.514	-28.741	
109.00	-68.451	8.447	
110.00	-67.736	53.353	
111.00	-67.280	90.959	
112.00	-66.138	129.720	
113.00	-66.310	162.581	
114.00	-66.090	-157.479	
115.00	-65.303	-123.056	
116.00	-64.371	-81.167	
117.00	-62.807	-48.341	
118.00	-61.967	-9.822	
119.00	-61.577	6.929	
120.00	-61.972	42.223	
121.00	-62.610	58.748	
122.00	-63.938	91.091	
123.00	-65.463	111.734	
124.00	-67.795	129.580	
125.00	-70.701	139.467	
126.00	-70.055	132.548	
127.00	-67.574	134.347	
128.00	-65.739	160.711	
129.00	-63.675	150.485	
130.00	-62.464	-176.556	
131.00	-62.603	-168.658	
132.00	-63.513	-147.162	
133.00	-65.715	-138.347	
134.00	-70.131	-95.992	
135.00	-73.932	-32.293	
136.00	-69.454	42.531	
137.00	-64.290	74.634	
138.00	-61.405	84.124	
139.00	-59.370	116.855	
140.00	-58.842	114.162	
141.00	-58.621	120.361	
142.00	-59.740	143.572	
143.00	-61.827	113.486	
144.00	-64.551	127.300	
145.00	-66.308	84.761	
146.00	-63.858	74.994	
147.00	-61.072	69.838	
148.00	-58.663	63.680	
149.00	-57.091	51.494	
150.00	-56.216	80.417	
151.00	-56.170	75.042	
152.00	-57.056	100.800	
153.00	-59.022	81.245	
154.00	-62.418	98.394	
155.00	-65.402	69.304	
156.00	-64.467	40.603	
157.00	-62.779	31.443	
158.00	-62.804	55.051	
159.00	-64.404	87.189	
160.00	-64.293	138.075	
161.00	-61.232	-178.067	
162.00	-58.605	-142.640	
163.00	-57.648	-124.824	
164.00	-58.379	-128.994	
165.00	-61.371	-123.120	
166.00	-66.854	-166.552	
167.00	-63.167	143.952	
168.00	-59.585	122.888	
169.00	-58.647	121.418	
170.00	-60.939	116.657	
171.00	-69.378	53.119	
172.00	-60.102	-32.458	
173.00	-52.913	-49.832	
174.00	-48.505	-51.370	
175.00	-45.134	-51.452	
176.00	-42.614	-54.336	
177.00	-40.651	-46.553	
178.00	-39.163	-51.832	
179.00	-38.295	-42.704	
180.00	-38.049	-50.592	
181.00	-38.443	-49.664	
182.00	-39.495	-45.727	
183.00	-41.314	-54.489	
184.00	-44.003	-50.775	
185.00	-47.712	-63.488	
186.00	-53.414	-59.443	
187.00	-63.097	-47.843	
188.00	-69.520	86.646	
189.00	-61.944	95.155	
190.00	-60.554	96.171	
191.00	-61.550	89.971	
192.00	-64.020	107.795	
193.00	-64.928	139.143	
194.00	-60.795	169.321	
195.00	-57.346	175.744	
196.00	-55.451	179.409	
197.00	-55.418	-178.037	
198.00	-56.957	179.115	
199.00	-61.643	178.424	
200.00	-74.209	-120.895	
201.00	-62.913	-32.544	
202.00	-58.017	-34.392	
203.00	-56.514	-31.247	
204.00	-56.638	-35.236	
205.00	-58.394	-23.344	
206.00	-60.629	-19.251	
207.00	-61.271	11.429	
208.00	-59.307	18.798	
209.00	-57.308	25.250	
210.00	-56.172	-1.024	
211.00	-55.573	-7.986	
212.00	-55.337	-40.441	
213.00	-55.624	-49.560	
214.00	-56.276	-78.839	
215.00	-56.976	-99.955	
216.00	-58.178	-140.269	
217.00	-59.302	-168.364	
218.00	-59.760	146.012	
219.00	-59.553	111.959	
220.00	-58.446	76.661	
221.00	-58.159	51.297	
222.00	-58.517	35.446	
223.00	-59.858	10.098	
224.00	-62.934	-14.156	
225.00	-67.620	-45.356	
226.00	-75.129	-105.615	
227.00	-72.003	149.978	
228.00	-67.725	139.207	
229.00	-65.871	94.648	
230.00	-65.854	88.241	
231.00	-66.084	69.198	
232.00	-68.029	71.289	
233.00	-69.771	62.094	
234.00	-70.600	61.401	
235.00	-70.089	53.214	
236.00	-68.754	78.656	
237.00	-67.680	61.956	
238.00	-67.466	63.502	
239.00	-68.221	47.527	
240.00	-69.128	34.241	
241.00	-70.337	28.158	
242.00	-72.301	34.850	
243.00	-72.149	26.042	
244.00	-72.658	25.696	
245.00	-71.618	18.911	
246.00	-70.472	13.079	
247.00	-70.099	-1.016	
248.00	-69.301	-17.505	
249.00	-69.235	-46.254	
250.00	-69.196	-60.395	
251.00	-69.374	-92.206	
252.00	-70.093	-105.171	
253.00	-70.701	-125.087	
254.00	-72.795	-139.807	
255.00	-74.607	-152.569	
256.00	-77.996	-166.275	
257.00	-77.560	-164.411	
258.00	-81.818	-176.851	
259.00	-82.944	-170.299	
260.00	-85.293	-161.412	
261.00	-90.720	-178.320	
262.00	-95.057	-164.268	
263.00	-100.537	-53.054	
264.00	-90.655	-32.464	
265.00	-83.245	-44.241	
266.00	-82.372	-59.622	
267.00	-80.289	-94.923	
268.00	-81.262	-122.293	
269.00	-81.576	-138.473	
270.00	-81.221	-179.867	
271.00	-84.554	149.785	
272.00	-80.533	100.069	
273.00	-80.966	45.283	
274.00	-79.071	7.223	
275.00	-79.584	-27.073	
276.00	-77.589	-67.723	
277.00	-78.137	-85.317	
278.00	-78.586	-119.218	
279.00	-78.114	-139.214	
280.00	-83.245	176.664	
281.00	-87.361	151.791	
282.00	-92.805	31.263	
283.00	-83.046	-35.920	
284.00	-81.464	-84.439	
285.00	-79.725	-94.857	
286.00	-82.886	-112.121	
287.00	-81.918	-132.421	
288.00	-87.847	-157.915	
289.00	-91.663	-170.499	
290.00	-94.757	-99.057	
291.00	-101.740	58.034	
292.00	-86.760	-84.927	
293.00	-85.427	-73.232	
294.00	-85.319	-88.760	
295.00	-81.671	-78.867	
296.00	-78.665	-100.365	
297.00	-78.919	-111.144	
298.00	-76.736	-142.524	
299.00	-75.118	-165.829	
300.00	-77.430	172.231	
301.00	-80.952	111.502	
302.00	-79.986	49.273	
303.00	-80.190	2.335	
304.00	-77.212	-49.942	
305.00	-78.974	-90.929	
306.00	-79.771	-111.305	
307.00	-85.076	-121.186	
308.00	-96.274	171.459	
309.00	-91.969	-104.175	
310.00	-84.645	-118.089	
311.00	-80.908	-134.343	
312.00	-80.268	-154.518	
313.00	-77.614	-164.933	
314.00	-80.507	154.477	
315.00	-80.992	111.946	
316.00	-82.500	81.729	
317.00	-83.034	17.849	
318.00	-81.119	-14.995	
319.00	-82.317	-26.956	
320.00	-85.783	-24.477	
321.00	-80.508	-20.017	
322.00	-76.371	-35.969	
323.00	-73.678	-49.433	
324.00	-74.410	-59.462	
325.00	-74.084	-84.565	
326.00	-74.175	-93.189	
327.00	-77.659	-126.904	
328.00	-80.072	-139.204	
329.00	-83.328	-153.111	
330.00	-83.077	-179.872	
331.00	-81.467	-172.070	
332.00	-79.867	164.144	
333.00	-79.285	125.090	
334.00	-78.268	95.875	
335.00	-78.760	62.218	
336.00	-78.997	39.427	
337.00	-79.980	-1.938	
338.00	-79.247	-54.915	
339.00	-80.166	-58.677	
340.00	-82.434	-48.237	
341.00	-80.606	-42.293	
342.00	-80.903	-36.184	
343.00	-78.237	-31.818	
344.00	-77.306	-55.401	
345.00	-78.314	-54.477	
346.00	-81.068	-95.676	
347.00	-84.079	-129.291	
348.00	-92.004	157.613	
349.00	-87.416	27.248	
350.00	-88.705	-26.770	
351.00	-81.349	-74.033	
352.00	-83.090	-112.208	
353.00	-78.504	-137.511	
354.00	-80.781	-154.513	
355.00	-92.456	142.618	
356.00	-93.253	-5.555	
357.00	-87.674	-23.743	
358.00	-85.684	-48.932	
359.00	-87.186	-42.412	
Frequency	3750.00	MHz	
Channel	test		
Scan Axis name	Azimuth  [deg]		
Scan Axis	Amplitude	Phase	
			
0.00	-84.346	-141.353	
1.00	-85.421	170.449	
2.00	-84.657	130.977	
3.00	-88.376	112.483	
4.00	-90.246	-143.106	
5.00	-88.176	-144.748	
6.00	-89.875	157.706	
7.00	-94.417	-112.017	
8.00	-96.067	35.253	
9.00	-89.109	33.274	
10.00	-85.505	21.234	
11.00	-91.545	-23.849	
12.00	-87.858	-126.008	
13.00	-86.254	-141.097	
14.00	-82.088	174.538	
15.00	-85.988	158.837	
16.00	-95.218	-137.616	
17.00	-98.353	24.800	
18.00	-87.612	67.714	
19.00	-84.547	53.793	
20.00	-85.333	20.648	
21.00	-85.279	17.001	
22.00	-84.076	63.536	
23.00	-87.019	63.405	
24.00	-97.095	-11.465	
25.00	-88.589	-20.885	
26.00	-83.252	-51.939	
27.00	-85.776	-72.519	
28.00	-84.477	-48.591	
29.00	-88.804	-27.616	
30.00	-84.505	70.703	
31.00	-79.111	136.210	
32.00	-77.504	143.128	
33.00	-78.578	160.801	
34.00	-79.445	158.992	
35.00	-86.532	178.130	
36.00	-92.299	-163.158	
37.00	-101.532	-111.418	
38.00	-86.184	85.266	
39.00	-82.283	89.589	
40.00	-80.060	107.282	
41.00	-80.280	117.695	
42.00	-84.374	128.810	
43.00	-89.953	146.225	
44.00	-93.570	44.771	
45.00	-87.725	89.787	
46.00	-83.224	94.981	
47.00	-80.784	101.348	
48.00	-80.742	119.644	
49.00	-84.353	142.869	
50.00	-85.579	148.703	
51.00	-95.761	-131.670	
52.00	-87.965	-48.813	
53.00	-87.248	15.739	
54.00	-82.015	47.075	
55.00	-83.055	60.810	
56.00	-83.283	137.966	
57.00	-80.053	164.152	
58.00	-79.401	-153.816	
59.00	-77.222	-121.335	
60.00	-75.388	-83.853	
61.00	-75.030	-43.729	
62.00	-75.111	0.438	
63.00	-75.509	42.629	
64.00	-75.726	96.938	
65.00	-74.601	124.746	
66.00	-75.644	177.155	
67.00	-76.339	-158.738	
68.00	-76.189	-123.547	
69.00	-76.788	-93.544	
70.00	-77.821	-45.493	
71.00	-77.622	-15.341	
72.00	-78.795	13.040	
73.00	-80.673	58.608	
74.00	-78.397	101.565	
75.00	-78.785	141.093	
76.00	-81.848	178.981	
77.00	-78.549	-160.205	
78.00	-81.150	-129.457	
79.00	-78.733	-83.232	
80.00	-79.972	-31.733	
81.00	-79.287	17.290	
82.00	-77.496	66.236	
83.00	-76.983	93.151	
84.00	-76.121	126.139	
85.00	-76.348	161.620	
86.00	-75.396	-169.469	
87.00	-75.658	-139.425	
88.00	-74.896	-105.280	
89.00	-76.089	-61.559	
90.00	-75.712	-33.201	
91.00	-75.271	-0.149	
92.00	-73.737	29.238	
93.00	-74.285	51.843	
94.00	-74.529	62.878	
95.00	-74.942	82.405	
96.00	-74.579	88.596	
97.00	-74.065	104.590	
98.00	-73.521	121.728	
99.00	-71.851	140.862	
100.00	-71.220	168.077	
101.00	-70.036	-164.204	
102.00	-68.955	-131.760	
103.00	-68.593	-96.110	
104.00	-67.081	-68.775	
105.00	-66.536	-34.293	
106.00	-65.630	-6.699	
107.00	-65.468	25.324	
108.00	-64.556	66.468	
109.00	-63.989	95.289	
110.00	-64.239	134.168	
111.00	-64.408	164.453	
112.00	-64.274	-158.405	
113.00	-65.393	-127.845	
114.00	-67.259	-88.606	
115.00	-68.579	-44.958	
116.00	-67.768	14.870	
117.00	-65.140	51.743	
118.00	-63.787	98.412	
119.00	-63.561	116.987	
120.00	-63.757	152.005	
121.00	-63.385	169.334	
122.00	-64.436	-161.142	
123.00	-65.390	-135.469	
124.00	-67.454	-117.758	
125.00	-70.296	-96.141	
126.00	-70.809	-81.781	
127.00	-71.602	-84.880	
128.00	-69.251	-55.848	
129.00	-67.132	-68.852	
130.00	-67.448	-38.018	
131.00	-67.320	-39.746	
132.00	-68.067	-15.732	
133.00	-73.039	-7.070	
134.00	-77.392	44.613	
135.00	-74.717	120.729	
136.00	-68.560	162.970	
137.00	-63.916	179.769	
138.00	-60.900	-170.452	
139.00	-58.524	-138.468	
140.00	-57.423	-139.650	
141.00	-56.796	-129.950	
142.00	-56.989	-103.869	
143.00	-57.853	-123.564	
144.00	-60.112	-95.842	
145.00	-64.641	-109.329	
146.00	-68.436	-148.718	
147.00	-62.690	-176.567	
148.00	-57.905	177.069	
149.00	-55.417	171.865	
150.00	-54.533	-154.378	
151.00	-54.913	-153.964	
152.00	-57.206	-125.094	
153.00	-61.043	-151.142	
154.00	-64.739	-166.240	
155.00	-60.828	149.329	
156.00	-57.597	151.727	
157.00	-56.682	158.001	
158.00	-57.414	-172.897	
159.00	-59.881	-142.993	
160.00	-62.345	-95.219	
161.00	-61.373	-47.050	
162.00	-59.758	-9.627	
163.00	-58.808	2.776	
164.00	-59.364	-9.569	
165.00	-60.153	-9.706	
166.00	-60.617	-38.585	
167.00	-60.794	-49.739	
168.00	-61.439	-70.519	
169.00	-64.687	-87.970	
170.00	-69.584	-132.825	
171.00	-66.686	127.043	
172.00	-59.115	92.107	
173.00	-52.967	70.576	
174.00	-48.129	66.854	
175.00	-44.493	67.094	
176.00	-41.882	65.894	
177.00	-40.069	75.239	
178.00	-38.882	71.014	
179.00	-38.305	79.566	
180.00	-38.294	70.484	
181.00	-38.838	69.591	
182.00	-39.902	71.519	
183.00	-41.581	60.085	
184.00	-43.947	62.442	
185.00	-47.196	48.528	
186.00	-52.389	57.200	
187.00	-61.424	79.934	
188.00	-63.549	-170.835	
189.00	-57.636	-152.882	
190.00	-56.323	-141.130	
191.00	-57.133	-137.827	
192.00	-59.519	-115.887	
193.00	-60.717	-89.685	
194.00	-59.168	-62.482	
195.00	-57.316	-49.972	
196.00	-56.793	-43.392	
197.00	-57.835	-39.991	
198.00	-61.543	-42.350	
199.00	-71.405	-28.502	
200.00	-66.913	102.446	
201.00	-60.155	111.590	
202.00	-57.837	109.051	
203.00	-57.575	113.415	
204.00	-58.948	113.695	
205.00	-60.827	132.122	
206.00	-62.027	136.012	
207.00	-61.391	152.361	
208.00	-59.968	142.516	
209.00	-58.443	133.682	
210.00	-56.815	98.409	
211.00	-55.437	88.647	
212.00	-54.622	57.611	
213.00	-54.438	53.614	
214.00	-55.180	30.547	
215.00	-56.890	14.113	
216.00	-59.526	-25.871	
217.00	-61.963	-63.927	
218.00	-61.559	-123.960	
219.00	-59.536	-157.053	
220.00	-58.101	172.142	
221.00	-57.835	149.523	
222.00	-59.092	134.565	
223.00	-61.696	111.094	
224.00	-66.863	81.841	
225.00	-76.099	-11.411	
226.00	-67.082	-84.275	
227.00	-62.728	-119.368	
228.00	-60.926	-118.764	
229.00	-59.994	-154.041	
230.00	-60.450	-155.630	
231.00	-61.471	-173.457	
232.00	-63.173	-170.114	
233.00	-64.958	-176.538	
234.00	-65.516	179.394	
235.00	-65.990	167.814	
236.00	-65.737	-170.020	
237.00	-65.820	177.403	
238.00	-66.382	-175.249	
239.00	-67.874	169.319	
240.00	-69.610	162.545	
241.00	-71.334	171.208	
242.00	-71.246	-173.215	
243.00	-70.622	179.794	
244.00	-69.353	-176.846	
245.00	-67.674	167.042	
246.00	-66.897	153.291	
247.00	-65.797	141.138	
248.00	-65.852	124.802	
249.00	-65.635	103.364	
250.00	-65.748	87.888	
251.00	-65.985	63.011	
252.00	-66.678	51.841	
253.00	-67.318	30.590	
254.00	-67.598	14.369	
255.00	-68.123	0.975	
256.00	-68.960	-30.250	
257.00	-69.854	-37.693	
258.00	-70.613	-74.387	
259.00	-70.674	-83.579	
260.00	-71.305	-106.096	
261.00	-71.360	-150.991	
262.00	-72.374	-150.463	
263.00	-70.663	155.676	
264.00	-71.901	148.324	
265.00	-71.955	109.075	
266.00	-72.729	85.615	
267.00	-74.381	60.907	
268.00	-75.753	18.751	
269.00	-78.483	-9.678	
270.00	-82.293	-59.282	
271.00	-81.074	-126.325	
272.00	-78.848	-168.856	
273.00	-76.240	144.241	
274.00	-74.498	112.092	
275.00	-74.933	77.681	
276.00	-76.213	42.964	
277.00	-77.404	26.112	
278.00	-79.071	-12.882	
279.00	-80.629	-67.348	
280.00	-82.027	-133.292	
281.00	-79.714	-172.906	
282.00	-76.247	130.325	
283.00	-75.366	88.803	
284.00	-75.181	55.956	
285.00	-75.557	26.510	
286.00	-75.796	-6.968	
287.00	-77.744	-41.751	
288.00	-79.718	-80.845	
289.00	-83.415	-119.572	
290.00	-82.167	-153.097	
291.00	-89.847	110.142	
292.00	-92.177	56.386	
293.00	-87.208	-15.890	
294.00	-99.897	-179.420	
295.00	-95.503	-119.007	
296.00	-89.559	73.406	
297.00	-88.733	20.581	
298.00	-89.933	-16.162	
299.00	-82.694	-89.491	
300.00	-80.689	-116.288	
301.00	-78.287	-156.323	
302.00	-78.397	155.092	
303.00	-78.468	115.517	
304.00	-80.815	43.465	
305.00	-80.456	-17.445	
306.00	-81.982	-77.194	
307.00	-84.241	-157.790	
308.00	-82.697	155.306	
309.00	-84.351	95.089	
310.00	-87.950	57.463	
311.00	-89.996	-53.836	
312.00	-85.271	-110.559	
313.00	-88.632	-112.368	
314.00	-84.621	-136.819	
315.00	-85.219	-107.466	
316.00	-82.848	-166.356	
317.00	-80.791	-171.075	
318.00	-83.404	150.136	
319.00	-87.919	145.114	
320.00	-95.314	101.885	
321.00	-82.197	149.370	
322.00	-78.415	112.469	
323.00	-77.129	85.422	
324.00	-77.009	63.777	
325.00	-80.469	24.971	
326.00	-80.879	-5.497	
327.00	-85.957	-70.497	
328.00	-94.473	-145.246	
329.00	-95.542	-153.935	
330.00	-95.105	-114.004	
331.00	-89.599	-113.514	
332.00	-87.205	-126.853	
333.00	-81.566	-161.888	
334.00	-79.638	-179.230	
335.00	-76.611	155.111	
336.00	-77.808	133.067	
337.00	-78.151	110.083	
338.00	-77.976	89.290	
339.00	-78.747	76.681	
340.00	-79.535	58.583	
341.00	-79.253	56.322	
342.00	-83.156	41.477	
343.00	-81.705	50.624	
344.00	-78.956	37.365	
345.00	-78.652	40.625	
346.00	-80.620	-8.332	
347.00	-83.883	-43.534	
348.00	-88.529	161.454	
349.00	-82.500	99.003	
350.00	-81.818	94.504	
351.00	-83.995	80.353	
352.00	-84.956	-16.253	
353.00	-88.788	-97.972	
354.00	-84.781	-172.058	
355.00	-80.868	158.058	
356.00	-81.455	164.759	
357.00	-83.740	159.423	
358.00	-94.302	172.600	
359.00	-94.932	150.774	
Frequency	3800.00	MHz	
Channel	test		
Scan Axis name	Azimuth  [deg]		
Scan Axis	Amplitude	Phase	
			
0.00	-89.479	-104.708	
1.00	-93.229	124.542	
2.00	-94.835	98.898	
3.00	-94.048	48.183	
4.00	-89.812	-17.685	
5.00	-90.585	-64.417	
6.00	-85.940	171.061	
7.00	-93.853	176.869	
8.00	-93.156	144.542	
9.00	-93.646	79.486	
10.00	-91.416	74.736	
11.00	-100.862	2.641	
12.00	-97.974	-175.049	
13.00	-91.004	-125.427	
14.00	-85.030	-176.062	
15.00	-84.329	-177.227	
16.00	-94.039	-169.977	
17.00	-88.853	-25.454	
18.00	-86.978	20.841	
19.00	-86.304	56.844	
20.00	-87.836	36.547	
21.00	-83.843	77.352	
22.00	-82.378	105.860	
23.00	-82.159	138.530	
24.00	-94.379	135.142	
25.00	-87.645	-59.581	
26.00	-82.224	-16.832	
27.00	-79.528	-15.252	
28.00	-79.511	10.136	
29.00	-79.422	32.896	
30.00	-78.917	76.299	
31.00	-81.894	118.654	
32.00	-86.457	174.159	
33.00	-86.300	-129.339	
34.00	-84.561	-48.270	
35.00	-82.587	-63.903	
36.00	-82.182	-12.935	
37.00	-83.373	-16.883	
38.00	-93.603	13.502	
39.00	-94.947	108.462	
40.00	-89.254	-166.334	
41.00	-81.830	-155.167	
42.00	-84.204	-130.364	
43.00	-91.675	-149.636	
44.00	-87.637	130.819	
45.00	-83.569	134.975	
46.00	-77.906	141.602	
47.00	-77.467	151.447	
48.00	-78.252	147.158	
49.00	-78.952	152.521	
50.00	-80.711	154.330	
51.00	-79.961	131.782	
52.00	-79.532	108.783	
53.00	-76.243	110.339	
54.00	-75.162	110.305	
55.00	-75.694	135.811	
56.00	-77.203	153.695	
57.00	-81.194	-167.028	
58.00	-92.855	-106.466	
59.00	-80.248	16.258	
60.00	-77.088	36.310	
61.00	-74.536	60.138	
62.00	-76.443	100.339	
63.00	-76.995	135.506	
64.00	-79.097	-165.538	
65.00	-80.524	-120.958	
66.00	-78.619	-62.016	
67.00	-77.825	-40.401	
68.00	-80.692	1.655	
69.00	-79.102	28.492	
70.00	-78.778	65.311	
71.00	-77.214	94.502	
72.00	-77.455	125.156	
73.00	-76.875	157.739	
74.00	-78.290	176.548	
75.00	-76.637	-139.162	
76.00	-77.651	-107.738	
77.00	-78.577	-56.307	
78.00	-79.971	-13.746	
79.00	-80.027	28.850	
80.00	-78.849	85.355	
81.00	-77.389	123.622	
82.00	-75.728	166.387	
83.00	-75.217	-161.210	
84.00	-74.529	-113.274	
85.00	-74.282	-79.945	
86.00	-73.743	-38.941	
87.00	-73.064	-4.874	
88.00	-73.477	28.322	
89.00	-72.266	73.552	
90.00	-71.940	107.103	
91.00	-71.464	138.853	
92.00	-71.695	170.615	
93.00	-72.347	-159.927	
94.00	-72.954	-137.098	
95.00	-74.445	-107.498	
96.00	-75.361	-76.780	
97.00	-76.749	-49.653	
98.00	-78.498	-4.673	
99.00	-79.533	17.895	
100.00	-81.754	49.454	
101.00	-84.522	29.075	
102.00	-80.498	29.761	
103.00	-77.061	45.161	
104.00	-73.891	54.368	
105.00	-71.128	67.113	
106.00	-70.041	81.289	
107.00	-69.344	112.882	
108.00	-69.405	141.122	
109.00	-68.851	172.041	
110.00	-68.780	-151.170	
111.00	-68.331	-119.683	
112.00	-67.881	-88.206	
113.00	-67.224	-67.587	
114.00	-68.072	-42.672	
115.00	-69.246	-26.244	
116.00	-72.197	-0.334	
117.00	-75.264	50.113	
118.00	-78.528	124.864	
119.00	-76.971	174.077	
120.00	-71.902	-123.531	
121.00	-69.037	-94.761	
122.00	-65.877	-57.362	
123.00	-63.604	-30.080	
124.00	-62.378	-0.957	
125.00	-61.560	32.533	
126.00	-60.701	63.433	
127.00	-60.996	77.099	
128.00	-61.928	109.933	
129.00	-64.310	99.638	
130.00	-67.938	116.300	
131.00	-68.794	74.957	
132.00	-66.032	77.960	
133.00	-64.474	77.004	
134.00	-63.835	112.200	
135.00	-64.490	134.486	
136.00	-66.834	177.006	
137.00	-66.291	-123.661	
138.00	-62.712	-83.340	
139.00	-59.204	-39.372	
140.00	-57.437	-32.814	
141.00	-56.546	-17.445	
142.00	-56.222	9.065	
143.00	-57.177	-10.536	
144.00	-59.521	18.189	
145.00	-63.916	3.793	
146.00	-67.023	-31.398	
147.00	-61.634	-56.842	
148.00	-57.549	-64.543	
149.00	-55.662	-68.041	
150.00	-55.240	-35.551	
151.00	-56.177	-37.336	
152.00	-58.826	-10.975	
153.00	-63.306	-49.014	
154.00	-63.887	-68.216	
155.00	-59.806	-99.264	
156.00	-57.581	-91.810	
157.00	-57.582	-86.684	
158.00	-59.059	-58.855	
159.00	-62.896	-35.631	
160.00	-67.080	12.194	
161.00	-65.846	59.130	
162.00	-62.035	92.081	
163.00	-59.369	96.918	
164.00	-57.820	83.375	
165.00	-57.146	91.613	
166.00	-57.573	78.866	
167.00	-59.041	74.899	
168.00	-61.888	47.679	
169.00	-62.726	17.952	
170.00	-62.947	-0.096	
171.00	-68.083	-27.289	
172.00	-65.594	175.600	
173.00	-53.866	166.731	
174.00	-48.034	174.778	
175.00	-44.177	-179.125	
176.00	-41.672	-175.760	
177.00	-40.082	-165.291	
178.00	-39.157	-169.003	
179.00	-38.785	-160.770	
180.00	-38.849	-170.621	
181.00	-39.380	-172.330	
182.00	-40.377	-170.798	
183.00	-41.971	177.703	
184.00	-44.397	-178.468	
185.00	-47.939	168.123	
186.00	-53.772	-179.313	
187.00	-63.441	-137.930	
188.00	-60.574	-41.156	
189.00	-56.730	-33.002	
190.00	-56.437	-20.406	
191.00	-58.599	-14.380	
192.00	-61.980	26.243	
193.00	-60.477	64.398	
194.00	-57.110	83.567	
195.00	-55.398	83.347	
196.00	-55.212	84.098	
197.00	-56.839	81.150	
198.00	-60.499	68.841	
199.00	-68.615	39.190	
200.00	-69.275	-82.463	
201.00	-62.615	-110.544	
202.00	-60.517	-124.625	
203.00	-60.380	-129.444	
204.00	-61.897	-136.296	
205.00	-64.101	-117.960	
206.00	-63.946	-110.563	
207.00	-61.706	-100.537	
208.00	-58.938	-112.694	
209.00	-56.668	-118.122	
210.00	-55.262	-148.315	
211.00	-54.475	-155.665	
212.00	-54.480	172.001	
213.00	-55.290	164.056	
214.00	-56.777	133.980	
215.00	-58.245	105.602	
216.00	-58.838	55.498	
217.00	-58.437	26.793	
218.00	-58.119	-12.719	
219.00	-58.473	-36.932	
220.00	-59.523	-65.821	
221.00	-62.195	-92.780	
222.00	-65.983	-124.897	
223.00	-70.231	161.796	
224.00	-67.028	86.723	
225.00	-62.857	50.582	
226.00	-61.089	32.559	
227.00	-60.328	0.628	
228.00	-60.994	1.904	
229.00	-62.462	-34.322	
230.00	-65.237	-30.884	
231.00	-68.805	-42.634	
232.00	-71.732	-10.305	
233.00	-70.287	11.522	
234.00	-68.273	1.895	
235.00	-67.052	-15.810	
236.00	-67.000	-2.669	
237.00	-68.062	-19.554	
238.00	-69.380	-4.384	
239.00	-70.679	-9.949	
240.00	-70.481	-1.898	
241.00	-68.817	6.996	
242.00	-66.972	6.652	
243.00	-65.928	-8.294	
244.00	-65.290	-20.497	
245.00	-64.873	-44.689	
246.00	-65.244	-55.348	
247.00	-66.089	-72.148	
248.00	-66.757	-96.448	
249.00	-67.463	-119.538	
250.00	-68.423	-140.407	
251.00	-68.615	-167.724	
252.00	-68.622	-177.479	
253.00	-68.979	161.843	
254.00	-69.003	153.039	
255.00	-68.903	137.648	
256.00	-68.658	114.077	
257.00	-69.031	107.462	
258.00	-69.055	73.278	
259.00	-69.658	76.951	
260.00	-70.948	46.670	
261.00	-71.714	10.203	
262.00	-72.567	1.226	
263.00	-73.731	-45.634	
264.00	-74.394	-64.426	
265.00	-74.624	-113.010	
266.00	-75.182	-138.632	
267.00	-74.589	-171.595	
268.00	-75.249	157.302	
269.00	-75.494	138.443	
270.00	-76.047	110.127	
271.00	-78.038	88.821	
272.00	-81.109	68.866	
273.00	-82.077	40.110	
274.00	-91.499	23.669	
275.00	-98.554	-128.895	
276.00	-92.372	94.497	
277.00	-87.436	109.422	
278.00	-87.174	84.620	
279.00	-83.973	70.716	
280.00	-88.522	50.470	
281.00	-93.891	38.247	
282.00	-93.491	-160.203	
283.00	-85.510	147.562	
284.00	-80.226	122.990	
285.00	-78.385	104.082	
286.00	-77.244	82.287	
287.00	-76.753	68.697	
288.00	-76.163	42.296	
289.00	-78.430	2.994	
290.00	-78.990	-22.218	
291.00	-81.259	-52.050	
292.00	-85.802	-92.557	
293.00	-85.539	-150.350	
294.00	-91.338	-170.827	
295.00	-89.551	179.224	
296.00	-97.668	104.984	
297.00	-91.104	81.135	
298.00	-96.711	111.305	
299.00	-89.548	54.503	
300.00	-92.338	56.764	
301.00	-94.195	-20.595	
302.00	-92.688	-53.017	
303.00	-88.038	-154.931	
304.00	-82.735	177.312	
305.00	-82.573	143.874	
306.00	-82.051	120.391	
307.00	-86.664	84.609	
308.00	-84.425	86.798	
309.00	-93.094	15.853	
310.00	-98.276	102.993	
311.00	-92.623	129.023	
312.00	-86.995	129.409	
313.00	-85.517	130.980	
314.00	-84.029	94.945	
315.00	-85.788	56.101	
316.00	-84.818	40.954	
317.00	-87.818	-20.316	
318.00	-87.679	-127.980	
319.00	-87.353	-160.917	
320.00	-88.806	171.417	
321.00	-112.431	142.429	
322.00	-84.547	171.524	
323.00	-82.068	154.667	
324.00	-78.904	139.910	
325.00	-79.034	104.912	
326.00	-80.602	107.968	
327.00	-83.003	51.709	
328.00	-82.711	61.628	
329.00	-81.518	62.762	
330.00	-78.042	34.419	
331.00	-80.565	20.095	
332.00	-81.425	-9.990	
333.00	-85.264	-9.504	
334.00	-87.158	-42.145	
335.00	-99.007	-129.908	
336.00	-87.950	-57.292	
337.00	-84.437	-151.019	
338.00	-82.681	-178.698	
339.00	-80.905	147.034	
340.00	-80.761	107.812	
341.00	-84.597	95.178	
342.00	-97.755	45.772	
343.00	-95.363	134.841	
344.00	-86.845	146.485	
345.00	-86.787	112.069	
346.00	-86.496	44.542	
347.00	-79.502	33.909	
348.00	-84.669	-32.069	
349.00	-98.150	158.392	
350.00	-93.057	178.157	
351.00	-87.927	95.084	
352.00	-83.120	53.843	
353.00	-86.531	45.384	
354.00	-103.490	-21.778	
355.00	-86.621	164.871	
356.00	-83.171	-154.360	
357.00	-83.238	-151.464	
358.00	-81.773	-154.579	
359.00	-84.682	-175.263	
Frequency	3850.00	MHz	
Channel	test		
Scan Axis name	Azimuth  [deg]		
Scan Axis	Amplitude	Phase	
			
0.00	-82.314	-65.840	
1.00	-82.722	-92.281	
2.00	-89.530	-120.751	
3.00	-100.031	-93.891	
4.00	-86.415	-92.654	
5.00	-89.732	-50.402	
6.00	-88.335	-103.575	
7.00	-85.447	-84.617	
8.00	-86.672	-135.151	
9.00	-91.700	-134.270	
10.00	-99.450	172.420	
11.00	-87.130	-129.595	
12.00	-86.425	-102.409	
13.00	-84.954	-86.539	
14.00	-84.701	-66.916	
15.00	-84.282	-53.135	
16.00	-82.731	-42.111	
17.00	-83.135	-10.863	
18.00	-82.145	-24.056	
19.00	-83.735	-5.650	
20.00	-97.040	-77.747	
21.00	-94.452	-119.902	
22.00	-90.562	-89.716	
23.00	-85.252	-78.307	
24.00	-79.933	-44.325	
25.00	-80.556	-24.776	
26.00	-78.828	-0.041	
27.00	-83.167	9.055	
28.00	-86.729	76.342	
29.00	-86.006	128.152	
30.00	-79.124	173.596	
31.00	-79.736	-166.747	
32.00	-82.286	-170.521	
33.00	-92.156	-91.726	
34.00	-85.713	16.266	
35.00	-80.610	50.590	
36.00	-79.862	76.950	
37.00	-81.420	58.631	
38.00	-90.150	68.933	
39.00	-87.625	-7.503	
40.00	-86.751	-44.187	
41.00	-85.321	-48.302	
42.00	-87.065	-28.191	
43.00	-91.570	0.530	
44.00	-88.979	88.073	
45.00	-80.597	-156.721	
46.00	-76.937	-131.393	
47.00	-75.206	-110.934	
48.00	-76.529	-80.580	
49.00	-79.230	-55.878	
50.00	-83.994	-27.070	
51.00	-92.100	16.301	
52.00	-91.814	151.982	
53.00	-81.075	-170.698	
54.00	-77.091	-157.068	
55.00	-75.681	-134.932	
56.00	-75.545	-106.610	
57.00	-75.894	-75.713	
58.00	-78.854	-38.979	
59.00	-77.723	31.937	
60.00	-77.880	77.246	
61.00	-77.035	124.376	
62.00	-76.112	-171.894	
63.00	-74.688	-126.079	
64.00	-74.199	-73.335	
65.00	-75.102	-51.895	
66.00	-76.163	-1.463	
67.00	-78.891	26.424	
68.00	-79.349	72.114	
69.00	-81.000	116.563	
70.00	-79.789	153.467	
71.00	-79.524	-171.809	
72.00	-76.552	-138.320	
73.00	-75.439	-107.068	
74.00	-77.050	-80.401	
75.00	-77.151	-48.098	
76.00	-76.956	5.466	
77.00	-78.380	33.945	
78.00	-78.145	100.037	
79.00	-76.791	149.895	
80.00	-77.070	-155.406	
81.00	-73.478	-117.798	
82.00	-71.810	-77.661	
83.00	-70.180	-45.160	
84.00	-69.263	-8.865	
85.00	-68.756	25.452	
86.00	-68.790	59.947	
87.00	-68.863	95.285	
88.00	-69.468	130.103	
89.00	-68.446	169.631	
90.00	-67.722	-152.671	
91.00	-66.692	-120.262	
92.00	-66.336	-88.828	
93.00	-66.015	-60.346	
94.00	-66.546	-32.437	
95.00	-66.597	-6.334	
96.00	-67.720	19.381	
97.00	-68.422	47.793	
98.00	-69.153	81.039	
99.00	-69.329	114.501	
100.00	-70.068	147.351	
101.00	-70.879	171.551	
102.00	-71.449	-157.074	
103.00	-73.025	-140.184	
104.00	-73.705	-112.598	
105.00	-77.351	-97.016	
106.00	-82.839	-89.674	
107.00	-87.432	-139.148	
108.00	-79.777	-117.235	
109.00	-77.706	-99.640	
110.00	-74.480	-72.925	
111.00	-70.965	-56.843	
112.00	-68.691	-27.064	
113.00	-67.334	-13.472	
114.00	-66.641	5.650	
115.00	-66.769	17.451	
116.00	-67.970	36.118	
117.00	-70.665	47.787	
118.00	-73.824	60.611	
119.00	-74.172	35.588	
120.00	-70.689	38.950	
121.00	-66.556	32.666	
122.00	-63.559	57.973	
123.00	-61.442	80.441	
124.00	-59.770	103.401	
125.00	-59.257	133.350	
126.00	-58.632	161.265	
127.00	-59.088	177.927	
128.00	-59.617	-149.616	
129.00	-61.769	-158.692	
130.00	-64.515	-137.273	
131.00	-67.533	-163.468	
132.00	-66.040	-172.510	
133.00	-63.578	178.773	
134.00	-62.998	-147.927	
135.00	-63.206	-136.509	
136.00	-65.144	-104.926	
137.00	-67.459	-65.192	
138.00	-67.666	-7.155	
139.00	-63.640	49.326	
140.00	-61.463	62.940	
141.00	-59.881	83.569	
142.00	-58.945	109.252	
143.00	-59.511	90.326	
144.00	-61.118	116.793	
145.00	-64.240	99.387	
146.00	-66.331	84.502	
147.00	-62.784	61.157	
148.00	-59.398	48.792	
149.00	-57.420	39.973	
150.00	-56.681	68.802	
151.00	-56.897	64.226	
152.00	-57.976	88.599	
153.00	-59.918	61.931	
154.00	-62.712	67.749	
155.00	-62.873	28.974	
156.00	-60.479	13.384	
157.00	-59.138	5.404	
158.00	-58.735	24.171	
159.00	-59.653	37.570	
160.00	-62.524	64.926	
161.00	-64.668	113.397	
162.00	-61.947	176.823	
163.00	-58.779	-155.354	
164.00	-57.507	-154.504	
165.00	-58.237	-137.751	
166.00	-61.142	-150.376	
167.00	-64.851	175.761	
168.00	-61.322	123.923	
169.00	-58.024	118.953	
170.00	-57.683	126.878	
171.00	-61.562	133.095	
172.00	-64.117	-117.197	
173.00	-53.486	-85.375	
174.00	-48.056	-69.881	
175.00	-44.513	-62.788	
176.00	-42.168	-58.596	
177.00	-40.561	-49.522	
178.00	-39.431	-53.945	
179.00	-38.798	-46.373	
180.00	-38.686	-55.894	
181.00	-39.112	-56.377	
182.00	-40.097	-53.454	
183.00	-41.898	-63.599	
184.00	-44.715	-58.404	
185.00	-48.751	-71.680	
186.00	-55.800	-58.676	
187.00	-69.718	2.934	
188.00	-61.349	94.432	
189.00	-58.485	96.477	
190.00	-59.499	107.349	
191.00	-63.343	115.591	
192.00	-65.612	169.787	
193.00	-62.221	-166.803	
194.00	-59.072	-165.837	
195.00	-57.486	-174.217	
196.00	-56.923	177.258	
197.00	-57.450	168.791	
198.00	-59.503	152.881	
199.00	-64.471	131.035	
200.00	-72.764	60.178	
201.00	-65.316	-16.159	
202.00	-61.337	-34.812	
203.00	-60.381	-34.598	
204.00	-60.886	-35.235	
205.00	-61.773	-8.572	
206.00	-60.390	2.226	
207.00	-58.139	15.836	
208.00	-56.628	6.560	
209.00	-56.069	2.834	
210.00	-56.251	-29.421	
211.00	-57.107	-44.107	
212.00	-57.692	-88.995	
213.00	-57.862	-108.658	
214.00	-57.413	-146.230	
215.00	-56.791	-170.209	
216.00	-56.751	152.586	
217.00	-57.596	134.775	
218.00	-59.104	101.110	
219.00	-61.799	76.797	
220.00	-65.624	35.212	
221.00	-68.873	-27.744	
222.00	-67.012	-84.568	
223.00	-64.258	-134.239	
224.00	-62.514	-166.018	
225.00	-61.491	171.018	
226.00	-61.724	153.128	
227.00	-62.930	123.293	
228.00	-65.147	129.758	
229.00	-68.617	101.441	
230.00	-70.142	130.688	
231.00	-68.573	136.790	
232.00	-66.921	144.815	
233.00	-65.866	127.130	
234.00	-65.367	101.257	
235.00	-65.686	72.066	
236.00	-67.340	73.149	
237.00	-69.823	37.511	
238.00	-74.354	12.640	
239.00	-78.338	-58.825	
240.00	-74.923	-127.979	
241.00	-71.660	-169.069	
242.00	-69.211	166.037	
243.00	-68.290	139.005	
244.00	-68.048	120.244	
245.00	-68.341	88.296	
246.00	-69.398	71.970	
247.00	-70.545	51.071	
248.00	-71.294	30.997	
249.00	-71.890	3.257	
250.00	-74.416	-4.845	
251.00	-74.576	-17.764	
252.00	-75.123	-18.617	
253.00	-75.760	-32.266	
254.00	-73.800	-35.518	
255.00	-74.646	-56.757	
256.00	-74.185	-84.686	
257.00	-74.729	-98.515	
258.00	-75.789	-138.097	
259.00	-76.277	-153.930	
260.00	-79.373	178.801	
261.00	-80.010	117.915	
262.00	-84.390	131.746	
263.00	-84.684	31.324	
264.00	-85.870	15.110	
265.00	-81.991	-47.869	
266.00	-81.700	-84.258	
267.00	-82.174	-121.514	
268.00	-80.962	-166.436	
269.00	-80.313	176.320	
270.00	-82.136	117.815	
271.00	-83.165	81.724	
272.00	-81.373	57.362	
273.00	-82.204	12.337	
274.00	-79.736	-24.227	
275.00	-82.191	-50.217	
276.00	-86.224	-58.165	
277.00	-92.047	-134.850	
278.00	-99.889	156.481	
279.00	-92.741	52.922	
280.00	-87.648	-0.077	
281.00	-83.667	10.563	
282.00	-81.414	-41.889	
283.00	-84.224	-41.436	
284.00	-84.185	-58.970	
285.00	-90.975	-29.783	
286.00	-97.443	-75.724	
287.00	-96.870	-11.047	
288.00	-91.138	18.481	
289.00	-83.113	32.699	
290.00	-83.328	6.158	
291.00	-80.763	5.199	
292.00	-79.579	-23.184	
293.00	-77.512	-30.150	
294.00	-79.015	-48.058	
295.00	-80.827	-66.944	
296.00	-83.056	-93.905	
297.00	-82.760	-93.710	
298.00	-88.595	-110.628	
299.00	-88.446	-76.264	
300.00	-90.346	-78.114	
301.00	-86.826	-60.348	
302.00	-88.421	-55.385	
303.00	-89.799	-62.473	
304.00	-90.503	-66.294	
305.00	-83.215	-108.762	
306.00	-88.220	-109.596	
307.00	-91.739	-142.146	
308.00	-102.559	27.307	
309.00	-94.019	-41.974	
310.00	-87.608	-55.011	
311.00	-80.401	-102.596	
312.00	-81.008	-123.891	
313.00	-83.332	-108.755	
314.00	-85.227	-133.813	
315.00	-85.177	-151.704	
316.00	-101.857	-151.166	
317.00	-101.071	-30.229	
318.00	-96.830	11.479	
319.00	-86.944	-15.692	
320.00	-80.225	-67.121	
321.00	-80.279	-92.227	
322.00	-78.906	-119.610	
323.00	-78.653	-137.149	
324.00	-79.576	-137.403	
325.00	-85.116	-136.238	
326.00	-87.505	-130.336	
327.00	-87.934	-110.843	
328.00	-88.596	-145.259	
329.00	-93.514	177.146	
330.00	-87.409	62.226	
331.00	-85.607	94.278	
332.00	-82.307	42.755	
333.00	-83.527	-17.198	
334.00	-84.210	-12.428	
335.00	-83.280	-35.618	
336.00	-83.470	-31.765	
337.00	-81.760	-53.418	
338.00	-78.997	-102.907	
339.00	-78.898	-117.648	
340.00	-81.394	-123.562	
341.00	-81.284	-113.671	
342.00	-81.834	-106.958	
343.00	-83.041	-91.694	
344.00	-79.792	-87.640	
345.00	-82.305	-92.662	
346.00	-84.263	-140.185	
347.00	-90.296	-98.019	
348.00	-94.116	-99.948	
349.00	-96.437	179.090	
350.00	-88.255	-124.002	
351.00	-91.812	160.668	
352.00	-92.309	-48.999	
353.00	-86.235	-44.155	
354.00	-85.530	-105.206	
355.00	-83.221	-145.352	
356.00	-81.630	-99.660	
357.00	-81.553	-98.794	
358.00	-81.912	-99.249	
359.00	-79.424	-82.975	
Frequency	3900.00	MHz	
Channel	test		
Scan Axis name	Azimuth  [deg]		
Scan Axis	Amplitude	Phase	
			
0.00	-90.747	54.663	
1.00	-99.242	-125.097	
2.00	-87.885	-162.857	
3.00	-88.454	-147.758	
4.00	-89.400	-129.538	
5.00	-87.487	-136.660	
6.00	-83.762	-144.295	
7.00	-93.364	-163.710	
8.00	-88.328	106.459	
9.00	-86.329	121.894	
10.00	-86.751	101.428	
11.00	-85.552	116.457	
12.00	-83.543	124.347	
13.00	-95.558	97.064	
14.00	-86.447	16.017	
15.00	-83.271	27.192	
16.00	-80.980	44.525	
17.00	-82.933	58.462	
18.00	-77.542	76.074	
19.00	-77.919	93.506	
20.00	-78.759	96.989	
21.00	-83.494	100.647	
22.00	-85.289	55.534	
23.00	-81.579	49.044	
24.00	-79.832	34.177	
25.00	-78.226	53.275	
26.00	-77.148	71.603	
27.00	-76.750	77.356	
28.00	-79.035	118.911	
29.00	-82.955	159.766	
30.00	-84.011	-145.970	
31.00	-84.826	-96.315	
32.00	-85.211	-97.649	
33.00	-89.997	-6.314	
34.00	-89.436	63.632	
35.00	-84.554	110.361	
36.00	-81.668	124.714	
37.00	-83.945	141.446	
38.00	-97.724	86.787	
39.00	-88.409	36.392	
40.00	-86.941	48.553	
41.00	-82.102	92.859	
42.00	-81.788	101.912	
43.00	-80.535	128.464	
44.00	-80.520	136.603	
45.00	-80.417	-160.201	
46.00	-81.592	-121.094	
47.00	-83.745	-61.763	
48.00	-80.551	9.495	
49.00	-77.429	43.217	
50.00	-77.339	78.411	
51.00	-76.269	96.110	
52.00	-78.270	124.222	
53.00	-80.229	141.471	
54.00	-85.893	119.422	
55.00	-92.327	72.507	
56.00	-86.638	45.838	
57.00	-79.382	55.088	
58.00	-79.350	65.035	
59.00	-77.543	99.303	
60.00	-78.948	133.925	
61.00	-80.535	-160.437	
62.00	-79.941	-106.036	
63.00	-82.340	-41.825	
64.00	-80.616	13.694	
65.00	-78.612	46.328	
66.00	-77.793	79.737	
67.00	-78.242	108.503	
68.00	-82.015	138.697	
69.00	-81.686	-175.143	
70.00	-77.849	-128.306	
71.00	-78.334	-83.701	
72.00	-77.309	-40.926	
73.00	-76.064	0.065	
74.00	-73.946	28.490	
75.00	-74.709	82.068	
76.00	-72.193	124.792	
77.00	-71.958	162.842	
78.00	-71.250	-153.291	
79.00	-70.248	-113.069	
80.00	-69.184	-72.614	
81.00	-68.632	-35.001	
82.00	-67.493	12.032	
83.00	-67.175	41.722	
84.00	-66.887	86.125	
85.00	-66.583	122.756	
86.00	-66.304	163.184	
87.00	-66.137	-163.639	
88.00	-65.851	-124.611	
89.00	-65.790	-85.676	
90.00	-65.216	-49.771	
91.00	-64.717	-13.380	
92.00	-64.395	20.052	
93.00	-64.257	54.200	
94.00	-64.781	82.553	
95.00	-64.534	114.822	
96.00	-65.267	142.514	
97.00	-65.662	175.302	
98.00	-65.919	-146.977	
99.00	-66.838	-117.260	
100.00	-67.400	-80.757	
101.00	-68.614	-49.103	
102.00	-70.917	-12.374	
103.00	-72.070	26.493	
104.00	-73.024	64.860	
105.00	-74.078	110.729	
106.00	-74.694	154.747	
107.00	-76.674	-162.580	
108.00	-79.195	-108.498	
109.00	-79.044	-38.817	
110.00	-74.148	23.239	
111.00	-70.936	60.841	
112.00	-69.419	93.335	
113.00	-68.190	120.450	
114.00	-68.827	152.956	
115.00	-70.967	-175.865	
116.00	-72.985	-121.286	
117.00	-72.010	-60.053	
118.00	-70.215	13.395	
119.00	-67.243	42.803	
120.00	-64.297	92.723	
121.00	-61.964	112.329	
122.00	-60.378	151.559	
123.00	-59.709	-177.026	
124.00	-59.040	-145.797	
125.00	-59.321	-108.680	
126.00	-59.200	-80.690	
127.00	-59.973	-63.327	
128.00	-61.371	-36.720	
129.00	-63.424	-54.162	
130.00	-65.042	-39.564	
131.00	-65.163	-60.975	
132.00	-64.226	-52.063	
133.00	-64.013	-51.465	
134.00	-63.905	-20.434	
135.00	-65.255	-15.100	
136.00	-67.413	-0.537	
137.00	-71.819	5.829	
138.00	-80.784	2.182	
139.00	-78.819	-147.355	
140.00	-70.054	-144.655	
141.00	-65.536	-140.113	
142.00	-62.566	-129.873	
143.00	-61.031	-152.616	
144.00	-61.132	-126.598	
145.00	-62.339	-136.627	
146.00	-63.950	-130.927	
147.00	-64.541	-152.638	
148.00	-61.823	176.923	
149.00	-59.150	163.805	
150.00	-57.876	-171.513	
151.00	-57.457	-177.517	
152.00	-58.057	-152.307	
153.00	-59.351	-175.966	
154.00	-61.829	-161.057	
155.00	-65.085	163.653	
156.00	-63.228	132.681	
157.00	-60.485	117.403	
158.00	-58.919	132.987	
159.00	-59.174	148.291	
160.00	-61.129	178.152	
161.00	-63.739	-133.544	
162.00	-61.695	-63.049	
163.00	-58.227	-32.890	
164.00	-56.844	-26.894	
165.00	-57.941	-8.303	
166.00	-61.669	-19.139	
167.00	-67.277	-68.073	
168.00	-60.994	-122.195	
169.00	-57.537	-120.442	
170.00	-57.328	-114.768	
171.00	-61.511	-121.363	
172.00	-70.116	22.632	
173.00	-55.039	46.512	
174.00	-49.188	57.178	
175.00	-45.493	60.204	
176.00	-43.011	62.033	
177.00	-41.231	69.426	
178.00	-39.901	64.937	
179.00	-39.108	72.398	
180.00	-38.909	63.183	
181.00	-39.298	63.723	
182.00	-40.405	67.193	
183.00	-42.346	57.006	
184.00	-45.329	62.060	
185.00	-49.732	46.866	
186.00	-57.460	54.406	
187.00	-91.321	151.361	
188.00	-61.836	-125.348	
189.00	-59.644	-130.687	
190.00	-61.138	-124.611	
191.00	-65.794	-115.814	
192.00	-67.812	-60.284	
193.00	-63.212	-44.864	
194.00	-60.146	-45.833	
195.00	-58.026	-55.361	
196.00	-57.627	-60.628	
197.00	-58.505	-68.531	
198.00	-61.553	-82.106	
199.00	-68.723	-110.278	
200.00	-71.875	133.033	
201.00	-63.811	106.436	
202.00	-61.313	98.576	
203.00	-60.913	103.492	
204.00	-61.882	114.006	
205.00	-61.273	141.433	
206.00	-59.618	144.291	
207.00	-58.178	148.739	
208.00	-58.090	135.992	
209.00	-59.026	120.623	
210.00	-59.614	75.963	
211.00	-59.255	47.483	
212.00	-58.023	2.618	
213.00	-57.132	-9.325	
214.00	-57.208	-38.237	
215.00	-58.133	-60.181	
216.00	-59.201	-102.717	
217.00	-60.418	-129.813	
218.00	-61.342	-175.647	
219.00	-62.406	153.395	
220.00	-62.944	115.152	
221.00	-65.084	79.953	
222.00	-66.620	36.636	
223.00	-66.692	-25.783	
224.00	-64.358	-69.810	
225.00	-62.829	-96.541	
226.00	-62.487	-114.694	
227.00	-62.387	-141.626	
228.00	-63.807	-133.707	
229.00	-65.172	-159.780	
230.00	-65.598	-147.448	
231.00	-65.135	-152.090	
232.00	-64.439	-146.069	
233.00	-63.802	-167.266	
234.00	-64.021	166.113	
235.00	-64.592	138.417	
236.00	-65.573	135.310	
237.00	-67.679	106.397	
238.00	-70.918	81.731	
239.00	-76.101	25.298	
240.00	-73.542	-51.146	
241.00	-71.651	-84.132	
242.00	-69.399	-112.556	
243.00	-68.890	-142.029	
244.00	-69.239	-162.130	
245.00	-69.701	169.656	
246.00	-71.688	157.528	
247.00	-74.174	135.749	
248.00	-77.355	127.452	
249.00	-79.901	125.163	
250.00	-79.165	148.100	
251.00	-76.008	135.559	
252.00	-73.727	125.337	
253.00	-72.300	92.784	
254.00	-72.009	71.946	
255.00	-70.753	45.287	
256.00	-70.909	3.035	
257.00	-70.834	-15.207	
258.00	-71.720	-61.169	
259.00	-72.537	-74.330	
260.00	-73.367	-122.100	
261.00	-72.770	-161.556	
262.00	-73.492	-178.700	
263.00	-73.609	121.742	
264.00	-73.778	98.818	
265.00	-74.079	50.716	
266.00	-73.692	19.531	
267.00	-73.656	-19.919	
268.00	-74.190	-59.159	
269.00	-73.464	-85.231	
270.00	-73.497	-134.332	
271.00	-72.965	-154.937	
272.00	-73.312	166.794	
273.00	-72.185	119.025	
274.00	-72.280	84.128	
275.00	-73.018	50.234	
276.00	-75.396	13.140	
277.00	-76.922	-12.459	
278.00	-77.457	-65.132	
279.00	-82.419	-106.725	
280.00	-81.212	179.710	
281.00	-78.766	163.228	
282.00	-79.606	102.029	
283.00	-78.938	53.912	
284.00	-81.636	34.834	
285.00	-83.114	10.649	
286.00	-89.019	-36.983	
287.00	-91.781	-90.510	
288.00	-92.510	161.111	
289.00	-89.465	142.473	
290.00	-91.928	118.921	
291.00	-97.782	145.714	
292.00	-95.284	125.266	
293.00	-87.762	111.781	
294.00	-83.040	71.964	
295.00	-81.962	25.826	
296.00	-83.156	12.516	
297.00	-80.376	-13.163	
298.00	-81.743	-68.530	
299.00	-81.738	-94.390	
300.00	-79.915	-124.971	
301.00	-81.748	-177.776	
302.00	-83.779	117.485	
303.00	-84.938	77.772	
304.00	-87.620	31.187	
305.00	-85.358	-53.939	
306.00	-87.553	-132.853	
307.00	-84.872	152.532	
308.00	-83.873	82.195	
309.00	-83.795	55.891	
310.00	-89.260	16.989	
311.00	-85.826	-43.934	
312.00	-86.481	-88.537	
313.00	-85.275	-78.730	
314.00	-86.216	-127.055	
315.00	-95.494	-135.665	
316.00	-95.381	-63.870	
317.00	-87.760	-80.205	
318.00	-86.576	-134.791	
319.00	-82.820	173.629	
320.00	-82.446	105.133	
321.00	-82.814	38.897	
322.00	-83.220	-28.448	
323.00	-88.337	-55.735	
324.00	-89.566	-24.152	
325.00	-87.030	-36.739	
326.00	-84.855	-22.793	
327.00	-89.873	-38.711	
328.00	-93.356	-5.621	
329.00	-104.152	-108.395	
330.00	-96.549	-127.408	
331.00	-90.515	-155.811	
332.00	-84.489	177.551	
333.00	-81.804	140.323	
334.00	-80.035	114.732	
335.00	-79.973	90.728	
336.00	-80.158	69.870	
337.00	-80.755	51.466	
338.00	-91.302	-16.453	
339.00	-91.573	-8.395	
340.00	-92.533	-42.778	
341.00	-85.201	-23.109	
342.00	-81.145	-36.868	
343.00	-82.262	-54.313	
344.00	-79.979	-77.329	
345.00	-82.554	-59.857	
346.00	-85.136	-109.953	
347.00	-88.843	176.660	
348.00	-86.314	120.209	
349.00	-81.574	93.646	
350.00	-82.957	114.693	
351.00	-84.679	93.232	
352.00	-92.773	54.814	
353.00	-85.583	49.741	
354.00	-93.134	4.235	
355.00	-86.222	-43.773	
356.00	-88.356	-16.041	
357.00	-85.165	7.421	
358.00	-85.654	-38.230	
359.00	-86.708	-22.849	
Frequency	3950.00	MHz	
Channel	test		
Scan Axis name	Azimuth  [deg]		
Scan Axis	Amplitude	Phase	
			
0.00	-83.134	81.215	
1.00	-85.399	100.385	
2.00	-86.198	71.222	
3.00	-88.765	101.139	
4.00	-93.125	58.380	
5.00	-98.178	84.314	
6.00	-87.079	64.272	
7.00	-89.579	12.938	
8.00	-87.348	-4.366	
9.00	-89.353	35.222	
10.00	-89.314	78.305	
11.00	-87.609	60.893	
12.00	-89.481	38.043	
13.00	-83.306	91.602	
14.00	-85.441	105.085	
15.00	-84.502	99.989	
16.00	-84.120	108.899	
17.00	-83.935	66.626	
18.00	-82.641	84.004	
19.00	-87.311	80.231	
20.00	-90.451	76.543	
21.00	-88.387	122.483	
22.00	-87.002	114.230	
23.00	-81.243	137.322	
24.00	-84.266	121.142	
25.00	-79.277	118.192	
26.00	-81.105	130.352	
27.00	-86.154	126.419	
28.00	-89.657	130.225	
29.00	-88.797	46.527	
30.00	-84.495	73.317	
31.00	-88.479	62.217	
32.00	-86.317	71.406	
33.00	-94.706	107.764	
34.00	-96.887	129.786	
35.00	-89.262	-118.667	
36.00	-87.434	-47.519	
37.00	-91.803	-30.137	
38.00	-87.464	25.950	
39.00	-90.955	68.511	
40.00	-92.741	156.029	
41.00	-85.116	159.690	
42.00	-84.534	-164.341	
43.00	-78.537	-143.355	
44.00	-82.568	-138.371	
45.00	-81.346	-83.235	
46.00	-84.024	-23.558	
47.00	-87.759	66.444	
48.00	-84.936	126.675	
49.00	-81.200	162.861	
50.00	-82.647	-167.505	
51.00	-89.327	171.322	
52.00	-87.643	161.430	
53.00	-89.010	97.152	
54.00	-90.956	116.275	
55.00	-81.243	105.078	
56.00	-82.573	118.469	
57.00	-79.677	121.665	
58.00	-78.809	156.696	
59.00	-78.227	-156.838	
60.00	-79.054	-104.526	
61.00	-80.026	-66.797	
62.00	-83.194	-5.660	
63.00	-84.454	34.358	
64.00	-84.560	112.144	
65.00	-91.766	136.818	
66.00	-87.476	-95.982	
67.00	-95.940	-64.996	
68.00	-91.036	-93.836	
69.00	-83.161	-83.057	
70.00	-82.622	-13.552	
71.00	-78.898	-0.718	
72.00	-79.123	33.927	
73.00	-77.012	86.845	
74.00	-75.606	134.236	
75.00	-74.943	178.521	
76.00	-72.244	-142.664	
77.00	-70.820	-90.136	
78.00	-69.623	-51.058	
79.00	-68.682	-12.699	
80.00	-68.418	28.328	
81.00	-68.018	71.432	
82.00	-67.092	120.478	
83.00	-66.228	157.163	
84.00	-65.358	-155.953	
85.00	-64.486	-118.348	
86.00	-63.688	-79.721	
87.00	-63.159	-47.166	
88.00	-63.219	-8.996	
89.00	-62.887	28.043	
90.00	-62.498	64.543	
91.00	-62.159	103.650	
92.00	-61.906	135.723	
93.00	-61.635	172.862	
94.00	-61.354	-158.694	
95.00	-61.386	-122.740	
96.00	-61.484	-95.726	
97.00	-61.584	-64.544	
98.00	-61.953	-29.753	
99.00	-62.250	4.216	
100.00	-62.945	40.275	
101.00	-63.684	65.870	
102.00	-65.130	100.950	
103.00	-66.243	133.427	
104.00	-68.063	167.183	
105.00	-70.178	-159.586	
106.00	-73.455	-129.510	
107.00	-78.798	-100.085	
108.00	-92.041	-172.487	
109.00	-75.499	152.603	
110.00	-70.308	-173.302	
111.00	-67.621	-154.282	
112.00	-66.110	-123.303	
113.00	-64.999	-102.507	
114.00	-65.580	-74.298	
115.00	-66.195	-45.094	
116.00	-67.853	-5.249	
117.00	-68.787	28.727	
118.00	-69.768	88.070	
119.00	-71.004	127.934	
120.00	-68.472	-160.807	
121.00	-65.396	-128.767	
122.00	-63.185	-86.420	
123.00	-61.578	-55.946	
124.00	-60.246	-26.681	
125.00	-59.509	8.242	
126.00	-59.323	33.723	
127.00	-59.558	46.809	
128.00	-60.120	70.851	
129.00	-61.418	56.855	
130.00	-62.332	76.855	
131.00	-62.986	68.097	
132.00	-62.673	79.918	
133.00	-62.601	81.542	
134.00	-63.437	110.763	
135.00	-66.163	116.085	
136.00	-70.512	135.695	
137.00	-79.765	150.248	
138.00	-78.611	-44.804	
139.00	-71.382	-27.590	
140.00	-67.174	-35.631	
141.00	-64.142	-31.816	
142.00	-61.406	-25.807	
143.00	-60.111	-49.630	
144.00	-59.946	-23.572	
145.00	-60.470	-30.059	
146.00	-62.077	-11.635	
147.00	-64.039	-25.808	
148.00	-63.006	-62.796	
149.00	-60.047	-82.428	
150.00	-58.018	-57.300	
151.00	-57.257	-59.681	
152.00	-57.895	-29.621	
153.00	-59.989	-49.087	
154.00	-64.008	-28.860	
155.00	-67.782	-79.969	
156.00	-64.913	-113.113	
157.00	-62.329	-121.634	
158.00	-61.933	-101.502	
159.00	-63.078	-85.673	
160.00	-66.023	-51.551	
161.00	-67.740	6.214	
162.00	-64.384	65.871	
163.00	-61.162	84.581	
164.00	-60.213	81.881	
165.00	-60.414	94.309	
166.00	-61.495	79.260	
167.00	-63.503	67.276	
168.00	-64.785	31.752	
169.00	-64.366	6.290	
170.00	-64.869	-16.401	
171.00	-68.016	-62.474	
172.00	-65.714	-148.108	
173.00	-56.371	177.638	
174.00	-50.547	179.379	
175.00	-46.410	178.271	
176.00	-43.564	-179.230	
177.00	-41.594	-171.613	
178.00	-40.311	-174.689	
179.00	-39.680	-166.731	
180.00	-39.650	-176.313	
181.00	-40.264	-176.954	
182.00	-41.499	-175.371	
183.00	-43.452	172.080	
184.00	-46.313	174.822	
185.00	-50.413	158.106	
186.00	-57.516	168.679	
187.00	-71.847	-130.701	
188.00	-62.192	-34.340	
189.00	-59.371	-33.543	
190.00	-60.233	-16.369	
191.00	-63.047	7.260	
192.00	-62.099	59.254	
193.00	-58.150	70.895	
194.00	-55.872	75.208	
195.00	-55.057	72.765	
196.00	-56.134	71.218	
197.00	-59.100	67.966	
198.00	-65.533	52.786	
199.00	-77.866	-43.479	
200.00	-67.365	-108.147	
201.00	-64.144	-119.828	
202.00	-64.773	-126.175	
203.00	-66.971	-116.267	
204.00	-68.489	-90.431	
205.00	-66.464	-64.441	
206.00	-63.922	-78.338	
207.00	-62.888	-94.290	
208.00	-62.134	-127.052	
209.00	-61.268	-152.756	
210.00	-59.780	164.716	
211.00	-58.702	146.526	
212.00	-58.128	109.994	
213.00	-58.704	97.915	
214.00	-59.404	61.973	
215.00	-59.911	33.158	
216.00	-59.986	-14.508	
217.00	-59.656	-36.415	
218.00	-59.733	-68.304	
219.00	-61.279	-85.611	
220.00	-64.698	-113.873	
221.00	-70.714	-152.617	
222.00	-74.391	98.699	
223.00	-67.153	48.449	
224.00	-63.627	19.926	
225.00	-61.967	6.788	
226.00	-62.203	-8.517	
227.00	-63.222	-29.021	
228.00	-64.536	-22.274	
229.00	-65.750	-44.637	
230.00	-65.978	-34.294	
231.00	-65.696	-43.499	
232.00	-65.453	-41.859	
233.00	-65.655	-59.749	
234.00	-66.981	-89.706	
235.00	-67.570	-119.968	
236.00	-69.567	-131.161	
237.00	-71.250	-169.170	
238.00	-72.990	159.490	
239.00	-74.351	106.280	
240.00	-73.149	59.521	
241.00	-71.265	33.152	
242.00	-70.842	9.431	
243.00	-70.555	-16.065	
244.00	-70.622	-35.920	
245.00	-70.799	-56.967	
246.00	-71.020	-54.110	
247.00	-71.001	-66.090	
248.00	-70.224	-74.755	
249.00	-69.633	-89.177	
250.00	-68.941	-109.053	
251.00	-68.754	-135.933	
252.00	-67.716	-152.588	
253.00	-67.379	174.970	
254.00	-67.026	151.401	
255.00	-67.468	125.622	
256.00	-67.504	83.940	
257.00	-67.538	69.141	
258.00	-69.002	18.217	
259.00	-68.337	12.823	
260.00	-70.338	-32.484	
261.00	-69.769	-73.859	
262.00	-70.480	-85.584	
263.00	-70.394	-146.508	
264.00	-70.594	-161.748	
265.00	-70.728	144.754	
266.00	-70.713	121.566	
267.00	-70.435	81.151	
268.00	-71.682	40.456	
269.00	-71.768	13.324	
270.00	-71.827	-36.483	
271.00	-72.215	-52.780	
272.00	-72.270	-101.285	
273.00	-72.081	-146.857	
274.00	-72.533	174.331	
275.00	-71.796	141.524	
276.00	-72.539	102.126	
277.00	-74.753	78.099	
278.00	-76.060	32.222	
279.00	-76.085	2.345	
280.00	-79.381	-63.559	
281.00	-80.226	-84.105	
282.00	-78.971	-160.366	
283.00	-77.914	148.288	
284.00	-79.768	132.083	
285.00	-79.432	81.997	
286.00	-81.589	62.699	
287.00	-87.268	5.588	
288.00	-90.621	-21.859	
289.00	-85.933	-120.854	
290.00	-87.140	168.239	
291.00	-86.429	139.375	
292.00	-91.350	102.639	
293.00	-94.930	-64.059	
294.00	-94.155	-41.882	
295.00	-88.810	-173.295	
296.00	-83.949	168.800	
297.00	-82.422	130.923	
298.00	-81.792	78.479	
299.00	-83.928	17.179	
300.00	-81.805	-19.877	
301.00	-82.327	-71.906	
302.00	-82.889	-131.780	
303.00	-85.161	-174.621	
304.00	-82.420	135.140	
305.00	-86.725	83.081	
306.00	-89.575	81.472	
307.00	-92.280	-7.361	
308.00	-93.973	113.316	
309.00	-85.860	75.021	
310.00	-85.579	53.688	
311.00	-89.058	12.704	
312.00	-92.793	3.624	
313.00	-101.766	159.479	
314.00	-91.372	-79.998	
315.00	-88.440	-39.662	
316.00	-99.018	-19.277	
317.00	-95.555	-139.923	
318.00	-98.145	-127.198	
319.00	-95.437	-33.738	
320.00	-92.478	-61.469	
321.00	-89.559	-55.209	
322.00	-94.545	-41.303	
323.00	-94.104	-12.292	
324.00	-96.236	90.585	
325.00	-100.050	18.087	
326.00	-90.694	20.543	
327.00	-90.095	39.040	
328.00	-93.044	29.975	
329.00	-85.651	31.413	
330.00	-83.671	8.289	
331.00	-84.939	-18.932	
332.00	-84.937	-37.829	
333.00	-86.678	-122.898	
334.00	-85.024	166.094	
335.00	-85.679	147.918	
336.00	-88.863	153.676	
337.00	-95.300	140.440	
338.00	-88.914	98.820	
339.00	-96.115	74.032	
340.00	-93.657	63.182	
341.00	-91.059	83.202	
342.00	-92.703	26.602	
343.00	-87.532	30.194	
344.00	-85.503	-67.074	
345.00	-89.797	7.006	
346.00	-96.049	-32.612	
347.00	-88.473	71.993	
348.00	-85.451	52.370	
349.00	-84.456	25.133	
350.00	-88.398	47.543	
351.00	-85.951	-4.256	
352.00	-88.834	-75.160	
353.00	-96.469	105.545	
354.00	-94.254	49.128	
355.00	-91.645	23.213	
356.00	-86.649	33.150	
357.00	-85.490	29.778	
358.00	-84.510	18.235	
359.00	-82.176	25.664	
Frequency	4000.00	MHz	
Channel	test		
Scan Axis name	Azimuth  [deg]		
Scan Axis	Amplitude	Phase	
			
0.00	-84.751	99.123	
1.00	-83.496	48.435	
2.00	-85.560	24.394	
3.00	-92.500	69.833	
4.00	-94.399	-157.153	
5.00	-91.254	47.374	
6.00	-89.320	103.885	
7.00	-86.354	35.194	
8.00	-89.135	16.648	
9.00	-90.892	30.202	
10.00	-91.685	-6.504	
11.00	-92.958	32.260	
12.00	-86.733	56.740	
13.00	-82.055	70.952	
14.00	-84.021	64.330	
15.00	-130.378	-132.509	
16.00	-92.387	169.371	
17.00	-94.635	-133.722	
18.00	-90.652	-59.641	
19.00	-91.450	-78.297	
20.00	-88.058	7.712	
21.00	-84.501	44.810	
22.00	-89.044	83.632	
23.00	-86.629	168.901	
24.00	-91.399	150.973	
25.00	-85.672	-159.849	
26.00	-92.491	-122.972	
27.00	-85.975	-70.676	
28.00	-80.776	-19.517	
29.00	-81.088	-0.203	
30.00	-85.048	48.719	
31.00	-92.365	135.956	
32.00	-86.548	146.422	
33.00	-88.947	-176.138	
34.00	-86.438	176.002	
35.00	-91.540	-144.137	
36.00	-89.891	-18.357	
37.00	-81.201	49.879	
38.00	-79.839	95.751	
39.00	-82.059	92.392	
40.00	-91.123	110.460	
41.00	-84.900	-38.897	
42.00	-83.853	-14.262	
43.00	-80.942	-14.706	
44.00	-78.754	-14.485	
45.00	-79.674	15.116	
46.00	-80.067	52.845	
47.00	-86.404	127.371	
48.00	-82.435	-129.735	
49.00	-78.338	-98.264	
50.00	-77.645	-47.533	
51.00	-79.970	-25.090	
52.00	-81.575	5.741	
53.00	-90.218	-0.886	
54.00	-96.233	114.398	
55.00	-98.189	-20.250	
56.00	-92.531	-128.757	
57.00	-85.340	-117.760	
58.00	-79.276	-94.179	
59.00	-77.674	-47.684	
60.00	-75.755	-20.809	
61.00	-78.016	8.614	
62.00	-80.892	48.595	
63.00	-96.075	37.326	
64.00	-85.845	-54.192	
65.00	-85.217	-49.394	
66.00	-86.909	14.072	
67.00	-87.549	-32.313	
68.00	-86.230	-25.448	
69.00	-82.667	-27.194	
70.00	-80.437	1.791	
71.00	-77.715	64.650	
72.00	-76.740	120.677	
73.00	-73.408	174.472	
74.00	-71.555	-141.115	
75.00	-69.527	-95.485	
76.00	-68.743	-60.153	
77.00	-66.844	-14.792	
78.00	-66.815	25.845	
79.00	-66.565	65.527	
80.00	-66.130	110.079	
81.00	-66.210	158.399	
82.00	-65.939	-154.412	
83.00	-64.501	-113.369	
84.00	-63.649	-67.730	
85.00	-62.669	-29.675	
86.00	-62.394	10.149	
87.00	-62.128	46.588	
88.00	-61.934	84.603	
89.00	-61.339	124.512	
90.00	-60.869	164.315	
91.00	-60.333	-158.860	
92.00	-59.945	-122.745	
93.00	-59.618	-85.833	
94.00	-59.152	-56.853	
95.00	-58.922	-23.643	
96.00	-58.847	4.766	
97.00	-58.863	36.627	
98.00	-59.249	72.357	
99.00	-59.734	104.773	
100.00	-60.205	142.040	
101.00	-60.890	172.209	
102.00	-61.968	-149.904	
103.00	-62.798	-116.576	
104.00	-63.803	-83.115	
105.00	-64.688	-51.546	
106.00	-66.515	-28.750	
107.00	-69.521	-1.027	
108.00	-73.601	13.136	
109.00	-76.495	-16.657	
110.00	-72.068	-29.133	
111.00	-69.380	-20.308	
112.00	-67.530	-0.573	
113.00	-67.554	25.730	
114.00	-68.109	51.444	
115.00	-68.653	76.284	
116.00	-69.298	111.632	
117.00	-70.482	134.905	
118.00	-72.587	172.528	
119.00	-78.281	-158.886	
120.00	-80.226	-75.293	
121.00	-75.793	-30.512	
122.00	-70.909	6.873	
123.00	-68.138	29.310	
124.00	-65.448	60.133	
125.00	-63.099	92.157	
126.00	-60.632	118.851	
127.00	-59.406	136.240	
128.00	-58.567	164.980	
129.00	-59.013	160.849	
130.00	-60.207	-166.405	
131.00	-62.000	-166.708	
132.00	-63.376	-158.046	
133.00	-63.722	-165.357	
134.00	-63.635	-142.158	
135.00	-63.742	-140.445	
136.00	-64.378	-114.370	
137.00	-66.489	-100.079	
138.00	-70.041	-80.676	
139.00	-75.199	-2.703	
140.00	-71.286	30.231	
141.00	-66.968	63.144	
142.00	-63.747	75.305	
143.00	-61.832	55.626	
144.00	-60.940	85.933	
145.00	-61.096	82.529	
146.00	-62.793	103.395	
147.00	-65.695	91.043	
148.00	-63.855	46.453	
149.00	-59.956	30.234	
150.00	-57.278	60.504	
151.00	-56.436	64.317	
152.00	-57.002	99.474	
153.00	-59.589	84.906	
154.00	-65.284	111.459	
155.00	-70.242	31.964	
156.00	-63.774	11.715	
157.00	-61.517	12.636	
158.00	-61.461	37.775	
159.00	-63.406	51.728	
160.00	-66.343	76.682	
161.00	-69.381	109.407	
162.00	-67.404	161.735	
163.00	-63.328	-177.259	
164.00	-60.626	-177.647	
165.00	-58.846	-158.323	
166.00	-58.727	-161.707	
167.00	-60.704	-157.471	
168.00	-64.366	179.164	
169.00	-65.820	144.032	
170.00	-64.626	120.993	
171.00	-68.755	108.303	
172.00	-68.112	-79.240	
173.00	-55.493	-81.447	
174.00	-49.597	-68.460	
175.00	-45.667	-64.452	
176.00	-43.066	-59.242	
177.00	-41.270	-51.608	
178.00	-40.139	-54.414	
179.00	-39.582	-47.138	
180.00	-39.607	-57.034	
181.00	-40.253	-57.606	
182.00	-41.551	-55.621	
183.00	-43.630	-68.008	
184.00	-46.737	-64.064	
185.00	-51.355	-81.594	
186.00	-59.500	-71.955	
187.00	-75.090	60.530	
188.00	-61.263	101.077	
189.00	-59.308	99.616	
190.00	-60.237	120.594	
191.00	-61.285	149.220	
192.00	-59.168	-171.510	
193.00	-56.455	-164.216	
194.00	-55.229	-160.365	
195.00	-55.658	-164.231	
196.00	-57.580	-167.764	
197.00	-61.665	179.586	
198.00	-67.157	135.050	
199.00	-67.596	73.989	
200.00	-66.358	55.935	
201.00	-68.199	47.007	
202.00	-74.270	50.198	
203.00	-78.772	121.613	
204.00	-76.054	127.588	
205.00	-77.156	104.859	
206.00	-72.425	23.956	
207.00	-65.778	-9.980	
208.00	-62.807	-32.739	
209.00	-61.831	-43.068	
210.00	-61.845	-82.729	
211.00	-62.920	-108.039	
212.00	-62.657	-163.394	
213.00	-60.398	171.225	
214.00	-58.426	139.247	
215.00	-57.349	120.577	
216.00	-57.191	92.007	
217.00	-58.022	79.329	
218.00	-59.742	49.235	
219.00	-63.439	30.812	
220.00	-70.679	-11.730	
221.00	-72.653	-116.957	
222.00	-66.619	-162.711	
223.00	-63.624	171.442	
224.00	-62.589	145.413	
225.00	-63.033	133.788	
226.00	-64.359	124.457	
227.00	-66.460	109.172	
228.00	-68.720	128.483	
229.00	-70.082	123.360	
230.00	-69.489	131.450	
231.00	-69.377	115.464	
232.00	-69.732	102.289	
233.00	-71.426	71.736	
234.00	-75.373	22.408	
235.00	-76.410	-40.849	
236.00	-73.251	-83.300	
237.00	-69.873	-114.355	
238.00	-67.646	-130.023	
239.00	-66.754	-162.402	
240.00	-66.820	172.913	
241.00	-66.687	158.785	
242.00	-67.737	139.048	
243.00	-68.743	116.701	
244.00	-70.604	101.341	
245.00	-71.806	82.517	
246.00	-73.517	76.848	
247.00	-73.897	66.070	
248.00	-72.616	56.264	
249.00	-71.253	30.395	
250.00	-70.623	13.795	
251.00	-70.093	-20.909	
252.00	-69.355	-36.446	
253.00	-69.518	-73.727	
254.00	-69.793	-101.519	
255.00	-69.696	-124.872	
256.00	-71.253	-174.239	
257.00	-71.472	166.338	
258.00	-72.493	104.229	
259.00	-72.219	95.947	
260.00	-72.491	46.452	
261.00	-71.915	6.334	
262.00	-72.721	-4.940	
263.00	-72.344	-69.535	
264.00	-72.083	-84.946	
265.00	-72.453	-139.799	
266.00	-71.845	-168.310	
267.00	-71.389	144.685	
268.00	-71.417	110.035	
269.00	-71.655	82.785	
270.00	-71.603	42.678	
271.00	-71.745	13.115	
272.00	-73.001	-25.216	
273.00	-72.753	-75.504	
274.00	-73.416	-115.772	
275.00	-73.196	-155.260	
276.00	-73.714	159.153	
277.00	-73.967	138.441	
278.00	-75.074	94.115	
279.00	-75.402	74.040	
280.00	-78.189	20.006	
281.00	-79.471	-7.156	
282.00	-84.281	-61.797	
283.00	-84.024	-117.372	
284.00	-82.278	-158.030	
285.00	-82.607	152.837	
286.00	-83.647	123.862	
287.00	-86.560	85.703	
288.00	-88.759	68.088	
289.00	-83.992	57.363	
290.00	-91.457	14.519	
291.00	-92.012	35.748	
292.00	-98.611	13.724	
293.00	-91.153	-33.294	
294.00	-90.162	-41.339	
295.00	-88.570	-55.828	
296.00	-86.415	-77.052	
297.00	-86.234	-119.168	
298.00	-86.170	-165.869	
299.00	-88.659	-151.135	
300.00	-86.932	133.518	
301.00	-87.192	90.992	
302.00	-85.031	20.019	
303.00	-82.278	-32.181	
304.00	-82.880	-71.237	
305.00	-94.938	-159.336	
306.00	-90.068	26.573	
307.00	-86.007	49.677	
308.00	-84.688	-2.095	
309.00	-88.890	-52.733	
310.00	-85.744	-61.556	
311.00	-89.015	-65.389	
312.00	-91.466	-129.199	
313.00	-92.865	-129.093	
314.00	-93.651	153.394	
315.00	-85.754	97.381	
316.00	-83.944	80.563	
317.00	-80.702	34.690	
318.00	-85.600	-8.626	
319.00	-91.768	-5.012	
320.00	-87.306	34.405	
321.00	-80.286	11.504	
322.00	-79.709	-29.810	
323.00	-79.306	-67.911	
324.00	-82.390	-83.975	
325.00	-83.501	-175.056	
326.00	-83.986	121.551	
327.00	-88.572	79.012	
328.00	-88.728	67.640	
329.00	-90.126	60.880	
330.00	-89.548	49.981	
331.00	-87.265	55.690	
332.00	-83.276	39.587	
333.00	-83.468	31.217	
334.00	-86.082	35.780	
335.00	-87.255	13.702	
336.00	-85.870	23.840	
337.00	-92.052	13.864	
338.00	-85.530	11.091	
339.00	-82.974	-0.902	
340.00	-86.850	9.831	
341.00	-82.507	-3.429	
342.00	-82.814	-19.948	
343.00	-92.707	-39.467	
344.00	-85.498	7.239	
345.00	-86.932	45.664	
346.00	-82.391	4.962	
347.00	-81.173	-40.781	
348.00	-84.777	-108.284	
349.00	-98.756	-154.665	
350.00	-100.791	45.345	
351.00	-89.965	1.476	
352.00	-84.414	-51.168	
353.00	-86.261	-1.576	
354.00	-89.491	-159.852	
355.00	-98.951	151.345	
356.00	-86.157	97.410	
357.00	-86.231	83.733	
358.00	-83.524	42.644	
359.00	-83.531	53.962	
Frequency	4050.00	MHz	
Channel	test		
Scan Axis name	Azimuth  [deg]		
Scan Axis	Amplitude	Phase	
			
0.00	-81.153	-151.233	
1.00	-85.708	150.170	
2.00	-90.584	47.241	
3.00	-95.822	85.810	
4.00	-94.795	-83.707	
5.00	-84.578	-163.242	
6.00	-88.197	171.565	
7.00	-84.854	172.465	
8.00	-85.858	160.672	
9.00	-89.685	177.008	
10.00	-90.208	168.344	
11.00	-87.481	-167.554	
12.00	-86.049	147.005	
13.00	-82.583	137.219	
14.00	-82.667	116.559	
15.00	-83.128	134.968	
16.00	-90.462	-175.043	
17.00	-90.949	146.314	
18.00	-88.344	-164.916	
19.00	-86.069	170.356	
20.00	-92.426	164.001	
21.00	-79.333	154.559	
22.00	-79.960	155.294	
23.00	-80.912	-165.552	
24.00	-82.076	-151.870	
25.00	-84.196	-144.579	
26.00	-91.074	172.948	
27.00	-92.803	-77.500	
28.00	-86.422	28.053	
29.00	-87.451	74.836	
30.00	-79.581	155.047	
31.00	-80.181	-163.070	
32.00	-80.103	-119.741	
33.00	-81.410	-113.304	
34.00	-83.437	-110.716	
35.00	-84.203	-114.843	
36.00	-87.300	158.203	
37.00	-78.949	153.552	
38.00	-78.997	163.148	
39.00	-80.357	-169.058	
40.00	-85.858	-127.001	
41.00	-88.832	3.090	
42.00	-80.274	34.445	
43.00	-83.959	78.588	
44.00	-84.860	94.149	
45.00	-84.825	167.620	
46.00	-81.805	170.205	
47.00	-82.553	-142.768	
48.00	-79.379	-85.915	
49.00	-78.313	-52.438	
50.00	-78.605	5.750	
51.00	-84.558	41.785	
52.00	-81.744	130.027	
53.00	-84.671	-149.865	
54.00	-95.337	-112.988	
55.00	-99.316	-122.358	
56.00	-95.478	-8.673	
57.00	-108.856	-47.668	
58.00	-85.449	-63.903	
59.00	-83.223	-4.946	
60.00	-88.409	22.282	
61.00	-91.289	-27.491	
62.00	-90.987	-60.159	
63.00	-88.678	-85.500	
64.00	-84.172	42.913	
65.00	-86.245	110.943	
66.00	-82.386	170.190	
67.00	-79.016	-133.272	
68.00	-79.338	-78.962	
69.00	-80.320	-34.917	
70.00	-83.449	56.424	
71.00	-81.072	157.551	
72.00	-76.990	-160.224	
73.00	-72.057	-107.243	
74.00	-70.058	-70.052	
75.00	-69.198	-19.816	
76.00	-68.199	19.985	
77.00	-68.035	72.927	
78.00	-66.553	121.136	
79.00	-65.686	166.883	
80.00	-64.296	-149.042	
81.00	-63.874	-108.790	
82.00	-63.209	-65.066	
83.00	-63.126	-27.457	
84.00	-62.736	21.698	
85.00	-62.308	61.664	
86.00	-61.650	107.222	
87.00	-60.685	144.543	
88.00	-59.853	-174.117	
89.00	-59.177	-138.132	
90.00	-58.780	-101.263	
91.00	-58.158	-64.772	
92.00	-57.915	-31.671	
93.00	-57.682	5.816	
94.00	-57.497	35.134	
95.00	-57.191	70.879	
96.00	-57.188	99.791	
97.00	-57.116	132.426	
98.00	-57.107	169.828	
99.00	-57.234	-157.580	
100.00	-57.455	-120.741	
101.00	-57.974	-92.402	
102.00	-58.481	-56.964	
103.00	-59.208	-25.493	
104.00	-60.040	7.092	
105.00	-60.812	35.553	
106.00	-62.429	57.430	
107.00	-64.223	87.975	
108.00	-66.830	113.355	
109.00	-69.474	126.125	
110.00	-72.209	132.747	
111.00	-73.226	133.973	
112.00	-72.477	150.921	
113.00	-70.956	170.196	
114.00	-70.816	-158.402	
115.00	-70.825	-137.356	
116.00	-72.765	-111.790	
117.00	-76.824	-98.055	
118.00	-82.507	-111.819	
119.00	-76.601	-174.055	
120.00	-73.070	-139.975	
121.00	-72.241	-144.457	
122.00	-74.165	-113.672	
123.00	-79.565	-120.152	
124.00	-76.074	-177.533	
125.00	-67.639	-162.424	
126.00	-62.922	-139.029	
127.00	-60.025	-118.483	
128.00	-58.240	-87.830	
129.00	-57.800	-84.424	
130.00	-58.900	-43.689	
131.00	-61.337	-38.290	
132.00	-64.540	-23.648	
133.00	-66.504	-43.792	
134.00	-64.356	-32.733	
135.00	-61.857	-29.407	
136.00	-61.051	-3.529	
137.00	-61.795	15.458	
138.00	-64.444	33.813	
139.00	-69.065	81.910	
140.00	-76.160	141.626	
141.00	-72.564	-151.118	
142.00	-71.050	-141.735	
143.00	-69.143	178.532	
144.00	-65.894	-173.432	
145.00	-63.194	177.429	
146.00	-61.482	-154.783	
147.00	-61.480	-148.621	
148.00	-61.618	-163.899	
149.00	-61.218	177.032	
150.00	-59.399	-166.575	
151.00	-57.998	-170.747	
152.00	-57.508	-140.928	
153.00	-58.854	-157.633	
154.00	-61.683	-121.889	
155.00	-67.903	-153.763	
156.00	-67.652	155.931	
157.00	-63.636	136.784	
158.00	-62.179	155.724	
159.00	-62.156	163.685	
160.00	-63.175	178.701	
161.00	-63.699	-160.012	
162.00	-63.649	-118.176	
163.00	-62.233	-79.492	
164.00	-60.208	-60.576	
165.00	-59.187	-32.618	
166.00	-60.194	-28.047	
167.00	-64.529	-23.330	
168.00	-70.241	-98.009	
169.00	-62.647	-123.998	
170.00	-60.114	-118.631	
171.00	-62.370	-111.208	
172.00	-64.585	-17.930	
173.00	-55.336	24.384	
174.00	-49.650	47.558	
175.00	-45.859	53.680	
176.00	-43.533	59.865	
177.00	-41.904	67.053	
178.00	-40.742	63.841	
179.00	-40.060	70.060	
180.00	-39.936	60.527	
181.00	-40.507	60.889	
182.00	-41.815	64.153	
183.00	-44.057	53.454	
184.00	-47.632	58.803	
185.00	-53.046	43.410	
186.00	-63.912	61.938	
187.00	-66.913	-151.917	
188.00	-59.901	-137.627	
189.00	-59.145	-136.677	
190.00	-61.150	-114.083	
191.00	-62.223	-81.125	
192.00	-59.503	-41.234	
193.00	-57.065	-39.141	
194.00	-56.380	-39.979	
195.00	-57.098	-49.824	
196.00	-58.705	-63.635	
197.00	-60.596	-82.591	
198.00	-62.570	-111.914	
199.00	-64.613	-141.481	
200.00	-67.991	-160.626	
201.00	-74.473	179.792	
202.00	-98.767	166.805	
203.00	-79.075	-56.003	
204.00	-79.606	-85.938	
205.00	-75.746	-169.828	
206.00	-68.130	139.130	
207.00	-64.420	128.886	
208.00	-63.922	111.446	
209.00	-65.876	102.310	
210.00	-70.466	36.165	
211.00	-66.955	-42.706	
212.00	-61.313	-81.946	
213.00	-58.612	-89.563	
214.00	-57.408	-110.721	
215.00	-57.651	-125.653	
216.00	-58.485	-156.795	
217.00	-60.318	-175.713	
218.00	-62.842	145.486	
219.00	-66.211	105.161	
220.00	-67.669	49.949	
221.00	-66.911	0.148	
222.00	-66.367	-31.015	
223.00	-65.999	-69.744	
224.00	-66.106	-101.750	
225.00	-66.757	-119.129	
226.00	-69.722	-128.379	
227.00	-72.139	-136.131	
228.00	-75.652	-94.892	
229.00	-71.667	-95.297	
230.00	-71.397	-109.627	
231.00	-70.510	-138.006	
232.00	-70.484	-163.174	
233.00	-70.435	156.984	
234.00	-71.693	108.361	
235.00	-72.347	61.935	
236.00	-71.531	35.599	
237.00	-69.531	-10.464	
238.00	-69.266	-29.580	
239.00	-68.448	-66.990	
240.00	-68.701	-98.884	
241.00	-70.164	-119.361	
242.00	-71.592	-145.927	
243.00	-73.895	-167.341	
244.00	-78.021	166.926	
245.00	-84.058	170.848	
246.00	-84.829	-150.944	
247.00	-80.256	-138.168	
248.00	-77.775	-154.911	
249.00	-76.202	161.636	
250.00	-75.139	133.187	
251.00	-73.973	90.810	
252.00	-72.072	60.004	
253.00	-70.867	13.091	
254.00	-69.657	-15.770	
255.00	-69.322	-51.439	
256.00	-68.484	-92.145	
257.00	-67.999	-112.144	
258.00	-67.844	-161.728	
259.00	-68.052	-165.569	
260.00	-68.403	147.200	
261.00	-68.267	109.659	
262.00	-69.221	90.741	
263.00	-68.722	34.929	
264.00	-69.101	11.246	
265.00	-68.470	-39.025	
266.00	-67.655	-68.012	
267.00	-67.510	-111.575	
268.00	-67.063	-142.930	
269.00	-67.959	-167.793	
270.00	-68.371	149.392	
271.00	-68.812	128.536	
272.00	-70.337	77.286	
273.00	-70.450	23.719	
274.00	-70.412	-18.707	
275.00	-69.433	-56.566	
276.00	-69.267	-100.319	
277.00	-69.565	-118.317	
278.00	-69.836	-166.135	
279.00	-71.378	166.159	
280.00	-72.956	113.832	
281.00	-74.275	90.274	
282.00	-76.909	12.511	
283.00	-75.692	-51.572	
284.00	-75.933	-81.075	
285.00	-77.446	-123.557	
286.00	-78.462	-164.766	
287.00	-80.747	-179.195	
288.00	-86.107	106.085	
289.00	-88.651	16.549	
290.00	-84.624	-67.611	
291.00	-84.827	-94.499	
292.00	-81.606	-124.260	
293.00	-83.075	-169.903	
294.00	-90.818	111.752	
295.00	-93.245	-21.693	
296.00	-85.251	-43.185	
297.00	-85.704	-63.919	
298.00	-85.214	-87.840	
299.00	-90.468	-142.052	
300.00	-104.794	97.579	
301.00	-91.139	176.712	
302.00	-88.282	127.682	
303.00	-92.124	90.267	
304.00	-90.282	66.619	
305.00	-87.632	33.791	
306.00	-84.470	-0.204	
307.00	-83.161	-67.304	
308.00	-83.569	-101.344	
309.00	-85.626	172.007	
310.00	-92.318	77.657	
311.00	-83.530	25.555	
312.00	-80.670	-13.431	
313.00	-81.000	-46.607	
314.00	-81.832	-94.797	
315.00	-80.520	-131.399	
316.00	-81.054	179.104	
317.00	-83.670	151.417	
318.00	-82.813	81.184	
319.00	-100.536	-72.510	
320.00	-96.150	177.838	
321.00	-84.979	96.188	
322.00	-79.408	46.342	
323.00	-80.991	-3.591	
324.00	-80.658	-42.045	
325.00	-80.683	-89.127	
326.00	-81.745	-140.142	
327.00	-85.316	-169.214	
328.00	-85.843	146.326	
329.00	-85.678	170.456	
330.00	-85.576	170.720	
331.00	-90.295	-166.205	
332.00	-86.022	-155.173	
333.00	-87.527	178.253	
334.00	-88.518	160.366	
335.00	-82.227	110.230	
336.00	-85.919	72.263	
337.00	-89.720	43.334	
338.00	-89.625	-15.771	
339.00	-96.893	-92.038	
340.00	-99.893	100.930	
341.00	-86.574	52.872	
342.00	-85.628	-18.244	
343.00	-85.952	-69.020	
344.00	-84.495	-116.634	
345.00	-89.614	-177.808	
346.00	-89.508	74.653	
347.00	-86.764	21.991	
348.00	-84.420	-74.981	
349.00	-79.850	-106.604	
350.00	-83.557	-87.865	
351.00	-84.210	-121.810	
352.00	-87.733	-178.820	
353.00	-88.090	-167.357	
354.00	-91.845	139.530	
355.00	-97.879	102.553	
356.00	-82.237	-154.507	
357.00	-82.110	-169.313	
358.00	-84.449	160.700	
359.00	-83.282	166.425	
Frequency	4100.00	MHz	
Channel	test		
Scan Axis name	Azimuth  [deg]		
Scan Axis	Amplitude	Phase	
			
0.00	-81.753	-127.801	
1.00	-82.907	-133.793	
2.00	-90.998	-109.605	
3.00	-87.584	-43.811	
4.00	-85.929	-42.832	
5.00	-85.898	-81.547	
6.00	-90.827	-45.903	
7.00	-96.906	64.118	
8.00	-90.995	-8.034	
9.00	-94.057	35.818	
10.00	-93.240	-21.691	
11.00	-95.773	-130.508	
12.00	-93.567	-176.385	
13.00	-87.632	176.642	
14.00	-88.865	-165.726	
15.00	-92.991	-170.673	
16.00	-88.856	-116.638	
17.00	-96.330	162.906	
18.00	-84.842	162.283	
19.00	-82.109	155.138	
20.00	-85.155	151.155	
21.00	-84.589	144.788	
22.00	-88.614	-150.156	
23.00	-87.912	-101.764	
24.00	-84.709	-104.602	
25.00	-97.996	-140.930	
26.00	-93.058	140.061	
27.00	-84.831	134.911	
28.00	-82.781	137.188	
29.00	-80.357	141.087	
30.00	-83.204	171.790	
31.00	-88.409	-119.815	
32.00	-89.160	-44.957	
33.00	-85.618	9.706	
34.00	-85.073	48.364	
35.00	-89.164	90.303	
36.00	-90.687	108.132	
37.00	-89.177	176.163	
38.00	-89.318	-113.848	
39.00	-81.220	-48.842	
40.00	-80.050	-13.001	
41.00	-81.275	28.552	
42.00	-82.716	50.671	
43.00	-87.469	-176.387	
44.00	-84.030	-143.713	
45.00	-81.225	-100.679	
46.00	-82.799	-87.085	
47.00	-80.876	-59.154	
48.00	-81.884	-30.582	
49.00	-84.523	21.695	
50.00	-87.207	104.492	
51.00	-82.543	174.589	
52.00	-83.149	-141.514	
53.00	-85.682	-73.999	
54.00	-90.194	15.469	
55.00	-84.357	74.814	
56.00	-83.966	130.667	
57.00	-82.715	152.510	
58.00	-82.791	148.781	
59.00	-84.349	-162.947	
60.00	-83.622	-125.553	
61.00	-84.212	-58.563	
62.00	-82.505	-1.344	
63.00	-79.715	57.706	
64.00	-77.837	118.677	
65.00	-79.055	172.327	
66.00	-79.507	-118.297	
67.00	-80.866	-78.490	
68.00	-82.026	-3.398	
69.00	-81.684	81.701	
70.00	-79.096	169.543	
71.00	-77.629	-140.650	
72.00	-75.088	-85.976	
73.00	-71.815	-38.075	
74.00	-70.572	12.254	
75.00	-68.785	65.640	
76.00	-68.091	105.008	
77.00	-67.098	155.687	
78.00	-65.740	-159.811	
79.00	-64.823	-114.788	
80.00	-63.980	-74.248	
81.00	-63.829	-29.876	
82.00	-63.388	16.821	
83.00	-62.415	53.009	
84.00	-62.184	103.931	
85.00	-61.589	145.302	
86.00	-61.017	-173.366	
87.00	-60.392	-136.559	
88.00	-59.751	-99.350	
89.00	-59.149	-60.578	
90.00	-58.878	-25.505	
91.00	-58.717	12.068	
92.00	-58.282	46.570	
93.00	-57.944	85.781	
94.00	-57.560	116.588	
95.00	-57.310	151.224	
96.00	-57.033	178.345	
97.00	-56.902	-149.179	
98.00	-56.999	-111.885	
99.00	-57.107	-80.235	
100.00	-57.352	-42.245	
101.00	-57.548	-12.075	
102.00	-57.685	25.248	
103.00	-57.889	59.731	
104.00	-58.118	92.390	
105.00	-58.510	122.345	
106.00	-59.373	148.645	
107.00	-60.465	-177.730	
108.00	-61.907	-145.367	
109.00	-63.908	-118.364	
110.00	-65.979	-84.431	
111.00	-68.452	-59.996	
112.00	-72.434	-38.757	
113.00	-74.200	-32.793	
114.00	-72.824	-39.877	
115.00	-71.559	-41.784	
116.00	-69.664	-21.873	
117.00	-68.173	-9.680	
118.00	-68.941	17.974	
119.00	-70.255	20.442	
120.00	-72.227	48.747	
121.00	-74.613	53.296	
122.00	-76.697	92.078	
123.00	-81.824	121.306	
124.00	-87.390	-100.357	
125.00	-74.600	-39.174	
126.00	-67.870	-15.536	
127.00	-63.965	5.832	
128.00	-61.497	36.456	
129.00	-60.439	37.749	
130.00	-60.468	77.499	
131.00	-62.163	88.239	
132.00	-64.892	111.926	
133.00	-67.354	99.989	
134.00	-66.184	97.342	
135.00	-63.177	87.124	
136.00	-61.631	108.525	
137.00	-61.189	119.435	
138.00	-63.273	134.826	
139.00	-66.614	164.259	
140.00	-76.551	143.491	
141.00	-81.539	23.373	
142.00	-75.486	28.715	
143.00	-77.118	-20.540	
144.00	-74.179	-50.778	
145.00	-67.512	-67.882	
146.00	-63.511	-41.266	
147.00	-61.850	-33.737	
148.00	-60.913	-47.694	
149.00	-59.926	-57.939	
150.00	-59.021	-37.479	
151.00	-58.096	-41.886	
152.00	-57.744	-16.851	
153.00	-58.575	-37.155	
154.00	-60.246	-3.772	
155.00	-64.130	-24.998	
156.00	-69.957	-50.374	
157.00	-67.510	-110.637	
158.00	-63.700	-106.324	
159.00	-61.725	-102.363	
160.00	-61.338	-87.840	
161.00	-62.411	-70.954	
162.00	-66.460	-26.366	
163.00	-66.517	49.946	
164.00	-62.058	82.325	
165.00	-60.132	111.763	
166.00	-61.172	115.282	
167.00	-65.780	119.665	
168.00	-71.509	22.855	
169.00	-62.624	6.914	
170.00	-60.221	17.408	
171.00	-61.995	27.547	
172.00	-63.453	104.543	
173.00	-55.821	142.927	
174.00	-50.528	166.499	
175.00	-46.700	171.486	
176.00	-44.170	177.818	
177.00	-42.326	-175.593	
178.00	-41.002	-177.835	
179.00	-40.207	-170.964	
180.00	-40.116	-179.443	
181.00	-40.749	-178.070	
182.00	-42.176	-174.513	
183.00	-44.559	174.779	
184.00	-48.222	-179.507	
185.00	-53.469	165.126	
186.00	-62.967	-172.316	
187.00	-68.085	-66.712	
188.00	-62.025	-37.171	
189.00	-61.252	-36.985	
190.00	-64.063	-13.969	
191.00	-66.199	38.655	
192.00	-61.088	82.122	
193.00	-57.886	82.461	
194.00	-57.058	80.543	
195.00	-57.956	69.913	
196.00	-60.107	59.444	
197.00	-63.352	38.536	
198.00	-67.603	-3.403	
199.00	-69.328	-67.484	
200.00	-67.744	-112.709	
201.00	-66.928	-138.390	
202.00	-68.081	-152.324	
203.00	-73.436	-144.186	
204.00	-76.630	-89.299	
205.00	-71.905	-61.663	
206.00	-69.677	-85.699	
207.00	-69.195	-100.173	
208.00	-71.623	-142.143	
209.00	-71.742	142.895	
210.00	-64.899	84.668	
211.00	-60.575	70.994	
212.00	-58.560	44.045	
213.00	-58.242	42.356	
214.00	-58.893	20.410	
215.00	-60.707	0.834	
216.00	-63.547	-39.623	
217.00	-66.473	-82.187	
218.00	-67.247	-143.221	
219.00	-66.854	175.300	
220.00	-66.202	132.141	
221.00	-66.270	96.314	
222.00	-66.874	63.732	
223.00	-66.646	23.932	
224.00	-66.276	-14.207	
225.00	-66.599	-27.486	
226.00	-68.531	-41.031	
227.00	-71.817	-43.734	
228.00	-71.612	-5.488	
229.00	-68.802	-22.124	
230.00	-67.328	-22.379	
231.00	-66.557	-46.454	
232.00	-66.459	-57.106	
233.00	-68.419	-77.796	
234.00	-71.269	-112.540	
235.00	-81.616	-149.107	
236.00	-83.573	51.949	
237.00	-72.738	23.999	
238.00	-68.952	8.667	
239.00	-67.805	-22.382	
240.00	-66.872	-51.518	
241.00	-66.368	-64.829	
242.00	-67.579	-91.831	
243.00	-68.911	-116.633	
244.00	-70.454	-135.477	
245.00	-73.183	-153.538	
246.00	-77.911	-141.338	
247.00	-77.509	-117.260	
248.00	-73.102	-111.642	
249.00	-70.047	-136.353	
250.00	-67.671	-152.347	
251.00	-66.525	169.393	
252.00	-66.040	153.052	
253.00	-65.359	116.349	
254.00	-65.043	88.340	
255.00	-65.099	56.206	
256.00	-64.722	13.411	
257.00	-64.741	-7.537	
258.00	-64.670	-58.753	
259.00	-64.946	-58.652	
260.00	-65.042	-108.511	
261.00	-65.672	-140.129	
262.00	-65.963	-154.083	
263.00	-66.576	152.067	
264.00	-66.971	134.445	
265.00	-67.979	85.060	
266.00	-68.020	56.423	
267.00	-68.871	4.957	
268.00	-68.889	-29.387	
269.00	-68.665	-58.354	
270.00	-69.200	-100.519	
271.00	-69.478	-124.714	
272.00	-69.649	-168.314	
273.00	-70.951	146.596	
274.00	-72.271	109.888	
275.00	-72.935	64.305	
276.00	-73.097	13.174	
277.00	-72.547	-22.179	
278.00	-72.663	-64.492	
279.00	-72.428	-102.181	
280.00	-72.423	-153.762	
281.00	-73.510	-169.467	
282.00	-75.244	117.650	
283.00	-77.874	65.151	
284.00	-81.007	25.918	
285.00	-78.556	-13.039	
286.00	-79.079	-72.563	
287.00	-79.756	-121.671	
288.00	-80.370	-174.575	
289.00	-81.432	136.134	
290.00	-81.218	92.633	
291.00	-81.592	21.159	
292.00	-84.041	-46.570	
293.00	-81.871	-103.927	
294.00	-79.765	-146.607	
295.00	-79.789	171.347	
296.00	-80.650	110.188	
297.00	-83.403	67.673	
298.00	-83.363	-10.815	
299.00	-82.744	-76.325	
300.00	-83.857	-139.789	
301.00	-81.864	-179.683	
302.00	-79.702	118.855	
303.00	-80.926	78.646	
304.00	-92.538	-68.712	
305.00	-86.238	-147.326	
306.00	-83.556	177.399	
307.00	-82.460	105.513	
308.00	-86.645	36.779	
309.00	-87.636	-49.409	
310.00	-94.052	-153.422	
311.00	-84.901	121.073	
312.00	-83.054	99.752	
313.00	-80.825	66.197	
314.00	-82.192	10.205	
315.00	-83.986	-30.510	
316.00	-88.209	-104.355	
317.00	-84.634	-171.173	
318.00	-87.265	104.856	
319.00	-83.637	66.447	
320.00	-86.662	-23.164	
321.00	-89.273	-153.395	
322.00	-89.127	102.097	
323.00	-88.493	79.258	
324.00	-88.297	55.898	
325.00	-95.788	-94.476	
326.00	-96.833	-120.085	
327.00	-87.425	92.003	
328.00	-84.271	66.144	
329.00	-88.606	-11.761	
330.00	-84.650	-134.590	
331.00	-87.098	-160.222	
332.00	-86.612	166.745	
333.00	-93.759	110.715	
334.00	-88.015	-128.343	
335.00	-83.435	175.189	
336.00	-84.418	152.840	
337.00	-88.913	109.116	
338.00	-95.742	92.269	
339.00	-87.886	-177.152	
340.00	-87.319	123.424	
341.00	-83.057	107.286	
342.00	-84.052	78.582	
343.00	-86.833	60.035	
344.00	-83.668	159.668	
345.00	-85.142	149.130	
346.00	-79.367	111.760	
347.00	-80.399	117.674	
348.00	-92.296	84.086	
349.00	-91.982	63.152	
350.00	-90.478	163.447	
351.00	-86.428	79.372	
352.00	-91.258	-39.198	
353.00	-90.302	-10.616	
354.00	-91.175	-109.467	
355.00	-86.038	115.882	
356.00	-94.234	146.145	
357.00	-91.718	149.519	
358.00	-91.432	-130.140	
359.00	-86.281	-135.913	
Frequency	4150.00	MHz	
Channel	test		
Scan Axis name	Azimuth  [deg]		
Scan Axis	Amplitude	Phase	
			
0.00	-81.666	-21.667	
1.00	-87.828	-46.230	
2.00	-88.122	-15.079	
3.00	-89.660	-37.130	
4.00	-83.710	-46.916	
5.00	-81.591	-64.474	
6.00	-83.900	-59.281	
7.00	-88.812	-51.866	
8.00	-89.938	-8.004	
9.00	-89.610	-20.474	
10.00	-89.107	-28.836	
11.00	-88.127	-58.263	
12.00	-87.016	-69.763	
13.00	-88.780	-65.514	
14.00	-88.943	-82.713	
15.00	-88.819	-81.839	
16.00	-89.663	-74.714	
17.00	-89.798	-113.935	
18.00	-84.909	-136.697	
19.00	-82.654	-141.535	
20.00	-86.797	-140.140	
21.00	-84.440	-146.335	
22.00	-83.472	-105.669	
23.00	-82.450	-60.674	
24.00	-87.830	-58.183	
25.00	-88.609	-34.082	
26.00	-97.414	-40.437	
27.00	-87.816	-104.185	
28.00	-91.274	-135.213	
29.00	-84.060	-107.800	
30.00	-81.016	-62.177	
31.00	-81.299	-41.347	
32.00	-82.486	-5.855	
33.00	-88.477	22.053	
34.00	-102.158	-159.617	
35.00	-85.998	-112.699	
36.00	-87.577	-106.636	
37.00	-84.909	-61.720	
38.00	-83.286	10.675	
39.00	-79.751	18.209	
40.00	-79.082	42.400	
41.00	-80.725	87.897	
42.00	-91.868	172.691	
43.00	-85.672	-89.582	
44.00	-78.805	-46.710	
45.00	-77.984	14.068	
46.00	-79.204	29.322	
47.00	-78.639	37.466	
48.00	-80.997	56.309	
49.00	-85.025	121.135	
50.00	-90.529	-103.510	
51.00	-81.720	-69.371	
52.00	-79.097	-25.347	
53.00	-77.687	24.104	
54.00	-79.133	62.609	
55.00	-83.773	118.877	
56.00	-82.024	142.680	
57.00	-84.248	-157.647	
58.00	-82.899	-126.873	
59.00	-85.715	-66.503	
60.00	-81.593	-22.080	
61.00	-80.876	11.716	
62.00	-78.878	67.818	
63.00	-79.636	120.996	
64.00	-82.829	-171.526	
65.00	-82.719	-84.073	
66.00	-79.405	-5.453	
67.00	-78.116	28.131	
68.00	-79.090	80.062	
69.00	-83.070	161.887	
70.00	-79.726	-109.950	
71.00	-76.870	-59.882	
72.00	-72.639	-3.221	
73.00	-71.990	44.020	
74.00	-70.090	95.122	
75.00	-69.380	149.693	
76.00	-68.375	-166.462	
77.00	-66.853	-109.562	
78.00	-65.929	-64.032	
79.00	-64.702	-22.585	
80.00	-64.035	19.344	
81.00	-63.549	61.735	
82.00	-63.302	105.882	
83.00	-63.196	147.206	
84.00	-63.216	-162.536	
85.00	-62.716	-121.449	
86.00	-62.269	-75.921	
87.00	-61.446	-41.138	
88.00	-61.120	0.307	
89.00	-60.386	38.101	
90.00	-60.363	75.183	
91.00	-60.023	113.294	
92.00	-59.957	147.973	
93.00	-59.623	-172.892	
94.00	-59.199	-141.236	
95.00	-58.780	-105.387	
96.00	-58.294	-76.201	
97.00	-58.164	-42.800	
98.00	-57.946	-5.443	
99.00	-57.744	27.011	
100.00	-57.692	65.384	
101.00	-57.552	93.083	
102.00	-57.594	130.452	
103.00	-57.514	163.467	
104.00	-57.720	-163.175	
105.00	-57.666	-131.443	
106.00	-58.029	-105.055	
107.00	-58.486	-66.356	
108.00	-58.958	-33.225	
109.00	-59.723	1.201	
110.00	-60.529	34.185	
111.00	-61.833	61.584	
112.00	-64.160	91.177	
113.00	-67.302	109.622	
114.00	-71.838	105.799	
115.00	-72.688	70.976	
116.00	-67.548	70.197	
117.00	-64.503	78.393	
118.00	-63.620	116.670	
119.00	-63.297	124.641	
120.00	-64.071	165.319	
121.00	-65.538	179.590	
122.00	-69.006	-134.104	
123.00	-76.025	-83.452	
124.00	-75.484	38.467	
125.00	-68.074	100.075	
126.00	-63.709	124.986	
127.00	-61.645	143.728	
128.00	-60.355	167.634	
129.00	-60.608	163.587	
130.00	-60.843	-162.553	
131.00	-61.178	-160.052	
132.00	-61.873	-138.166	
133.00	-62.955	-137.346	
134.00	-63.883	-117.270	
135.00	-64.263	-127.071	
136.00	-64.765	-124.134	
137.00	-64.906	-127.971	
138.00	-65.614	-132.081	
139.00	-68.095	-119.696	
140.00	-71.045	-149.438	
141.00	-76.066	179.864	
142.00	-76.750	121.966	
143.00	-71.967	77.703	
144.00	-68.511	86.103	
145.00	-65.525	74.021	
146.00	-63.213	88.032	
147.00	-61.559	85.529	
148.00	-59.847	68.933	
149.00	-58.796	59.884	
150.00	-57.483	80.438	
151.00	-56.683	76.255	
152.00	-56.495	100.981	
153.00	-57.289	81.132	
154.00	-59.119	112.855	
155.00	-62.271	89.002	
156.00	-66.454	64.524	
157.00	-64.810	19.796	
158.00	-61.432	28.080	
159.00	-60.219	35.168	
160.00	-61.154	52.011	
161.00	-65.387	73.622	
162.00	-73.470	146.515	
163.00	-67.111	-133.817	
164.00	-63.118	-127.557	
165.00	-61.889	-111.236	
166.00	-62.685	-126.069	
167.00	-65.567	-138.098	
168.00	-66.903	169.792	
169.00	-63.878	144.437	
170.00	-62.483	129.987	
171.00	-64.259	112.882	
172.00	-79.685	146.514	
173.00	-61.058	-80.483	
174.00	-53.025	-69.359	
175.00	-47.974	-69.374	
176.00	-44.696	-61.651	
177.00	-42.456	-54.886	
178.00	-41.072	-55.454	
179.00	-40.470	-48.649	
180.00	-40.588	-57.946	
181.00	-41.342	-58.187	
182.00	-42.788	-57.306	
183.00	-45.002	-70.091	
184.00	-48.213	-65.757	
185.00	-52.920	-80.050	
186.00	-60.504	-52.948	
187.00	-65.591	28.011	
188.00	-61.136	69.051	
189.00	-60.849	76.163	
190.00	-63.935	107.285	
191.00	-63.967	165.456	
192.00	-58.948	-159.500	
193.00	-56.096	-162.375	
194.00	-55.435	-160.506	
195.00	-56.711	-166.378	
196.00	-60.325	-169.565	
197.00	-67.996	175.287	
198.00	-73.923	39.758	
199.00	-65.080	8.284	
200.00	-62.759	-4.297	
201.00	-63.677	-11.274	
202.00	-66.955	-14.401	
203.00	-73.068	10.647	
204.00	-72.654	71.558	
205.00	-70.891	83.841	
206.00	-72.552	61.663	
207.00	-77.846	-8.755	
208.00	-69.492	-91.192	
209.00	-64.959	-115.247	
210.00	-62.068	-151.359	
211.00	-60.754	-167.097	
212.00	-59.736	160.823	
213.00	-59.573	148.306	
214.00	-59.446	120.409	
215.00	-60.636	98.973	
216.00	-62.357	62.686	
217.00	-65.080	43.489	
218.00	-69.598	0.510	
219.00	-77.186	-52.882	
220.00	-74.595	-172.403	
221.00	-68.581	157.511	
222.00	-66.067	135.192	
223.00	-65.133	114.262	
224.00	-65.936	91.739	
225.00	-68.114	85.746	
226.00	-69.741	90.508	
227.00	-70.577	104.721	
228.00	-68.002	122.786	
229.00	-66.346	95.272	
230.00	-65.369	89.053	
231.00	-65.664	65.403	
232.00	-67.169	54.664	
233.00	-69.089	33.347	
234.00	-73.713	-1.205	
235.00	-91.891	21.511	
236.00	-78.787	142.489	
237.00	-73.508	127.214	
238.00	-70.285	104.325	
239.00	-69.588	75.914	
240.00	-69.785	46.101	
241.00	-70.182	24.156	
242.00	-72.672	-0.246	
243.00	-74.728	-28.355	
244.00	-84.248	-37.156	
245.00	-84.162	72.196	
246.00	-73.778	75.570	
247.00	-69.009	47.295	
248.00	-66.884	22.263	
249.00	-65.301	-6.543	
250.00	-64.113	-29.484	
251.00	-63.579	-69.299	
252.00	-63.564	-90.108	
253.00	-63.809	-129.543	
254.00	-63.751	-156.369	
255.00	-64.305	171.768	
256.00	-64.295	126.023	
257.00	-64.497	104.398	
258.00	-64.884	49.649	
259.00	-64.944	50.954	
260.00	-65.899	-1.745	
261.00	-66.629	-31.068	
262.00	-67.445	-42.658	
263.00	-68.608	-105.670	
264.00	-70.097	-127.476	
265.00	-70.403	173.644	
266.00	-70.464	140.612	
267.00	-69.992	89.622	
268.00	-69.249	55.277	
269.00	-68.908	26.793	
270.00	-69.042	-14.488	
271.00	-69.972	-38.638	
272.00	-71.884	-80.349	
273.00	-72.493	-137.219	
274.00	-74.218	176.655	
275.00	-73.606	128.008	
276.00	-72.416	79.588	
277.00	-72.244	51.834	
278.00	-72.520	11.204	
279.00	-73.534	-18.363	
280.00	-73.931	-68.137	
281.00	-75.600	-94.362	
282.00	-79.356	-167.414	
283.00	-78.255	138.694	
284.00	-78.079	92.221	
285.00	-78.757	54.643	
286.00	-80.112	31.375	
287.00	-88.257	18.946	
288.00	-94.164	118.957	
289.00	-87.312	154.818	
290.00	-78.859	106.278	
291.00	-78.424	70.696	
292.00	-80.167	47.310	
293.00	-81.682	1.264	
294.00	-81.298	-68.022	
295.00	-84.947	-144.911	
296.00	-85.594	-158.534	
297.00	-84.478	160.275	
298.00	-84.630	102.260	
299.00	-85.428	89.071	
300.00	-95.913	2.191	
301.00	-98.574	-154.563	
302.00	-85.857	154.705	
303.00	-85.790	107.786	
304.00	-87.345	52.209	
305.00	-90.950	47.815	
306.00	-87.095	-169.825	
307.00	-84.548	130.731	
308.00	-84.615	99.963	
309.00	-82.641	47.482	
310.00	-84.674	8.236	
311.00	-94.358	-58.722	
312.00	-89.108	171.490	
313.00	-83.048	137.543	
314.00	-80.697	82.550	
315.00	-79.627	47.874	
316.00	-83.850	49.632	
317.00	-90.046	66.939	
318.00	-82.778	78.436	
319.00	-80.490	60.266	
320.00	-82.642	5.817	
321.00	-81.341	-45.803	
322.00	-91.184	-54.393	
323.00	-93.231	-107.339	
324.00	-91.184	-50.511	
325.00	-93.836	-127.192	
326.00	-91.861	-147.792	
327.00	-89.882	102.204	
328.00	-84.563	69.288	
329.00	-89.492	60.922	
330.00	-89.388	-10.459	
331.00	-92.860	29.132	
332.00	-89.434	33.890	
333.00	-105.476	8.156	
334.00	-101.418	-75.010	
335.00	-94.550	174.633	
336.00	-92.327	-152.673	
337.00	-96.216	5.545	
338.00	-87.852	11.301	
339.00	-86.854	-57.472	
340.00	-87.470	-89.027	
341.00	-87.921	-56.891	
342.00	-88.682	-18.502	
343.00	-103.971	-24.897	
344.00	-87.046	-169.546	
345.00	-82.691	-168.374	
346.00	-81.768	131.687	
347.00	-82.466	107.774	
348.00	-84.779	86.846	
349.00	-86.835	80.200	
350.00	-89.824	88.535	
351.00	-84.184	110.106	
352.00	-84.739	56.335	
353.00	-85.016	16.138	
354.00	-84.294	-39.695	
355.00	-86.857	-53.101	
356.00	-86.788	-85.584	
357.00	-86.312	-52.894	
358.00	-86.517	-8.077	
359.00	-88.098	-24.964	
Frequency	4200.00	MHz	
Channel	test		
Scan Axis name	Azimuth  [deg]		
Scan Axis	Amplitude	Phase	
			
0.00	-82.773	-92.218	
1.00	-83.312	-157.828	
2.00	-86.178	152.529	
3.00	-89.283	102.944	
4.00	-94.232	25.071	
5.00	-94.758	-41.502	
6.00	-92.124	-82.905	
7.00	-91.275	-128.811	
8.00	-84.840	149.058	
9.00	-86.790	163.626	
10.00	-90.722	-174.210	
11.00	-84.027	-127.777	
12.00	-86.845	-162.739	
13.00	-95.949	81.033	
14.00	-86.274	164.009	
15.00	-93.871	142.870	
16.00	-100.006	150.606	
17.00	-84.170	-162.501	
18.00	-84.524	-122.596	
19.00	-84.021	-111.866	
20.00	-85.009	-100.476	
21.00	-94.343	-79.195	
22.00	-90.988	-58.640	
23.00	-88.789	-17.097	
24.00	-88.231	-118.888	
25.00	-84.470	-137.013	
26.00	-80.532	-123.518	
27.00	-87.513	-132.645	
28.00	-89.773	-159.998	
29.00	-93.814	-27.945	
30.00	-85.211	17.011	
31.00	-80.849	36.294	
32.00	-82.742	32.968	
33.00	-97.406	-122.321	
34.00	-83.069	-93.120	
35.00	-79.844	-71.760	
36.00	-79.449	-82.951	
37.00	-88.732	-84.957	
38.00	-107.241	55.964	
39.00	-84.220	98.798	
40.00	-80.843	148.436	
41.00	-76.837	176.703	
42.00	-81.187	-144.370	
43.00	-85.261	-18.225	
44.00	-82.631	8.454	
45.00	-79.040	93.714	
46.00	-78.968	100.317	
47.00	-82.042	156.053	
48.00	-81.879	177.132	
49.00	-83.671	-125.588	
50.00	-80.087	-58.949	
51.00	-79.714	-19.136	
52.00	-79.037	49.102	
53.00	-82.573	95.895	
54.00	-81.991	-165.942	
55.00	-81.804	-115.895	
56.00	-80.016	-80.058	
57.00	-78.323	-63.086	
58.00	-80.379	-52.019	
59.00	-81.971	-32.118	
60.00	-89.979	-33.724	
61.00	-86.906	100.919	
62.00	-82.810	169.072	
63.00	-82.311	-138.117	
64.00	-80.550	-69.645	
65.00	-82.830	-30.657	
66.00	-81.463	84.398	
67.00	-79.315	152.904	
68.00	-75.083	-150.855	
69.00	-73.490	-115.360	
70.00	-72.903	-56.575	
71.00	-73.296	3.285	
72.00	-74.183	62.968	
73.00	-71.609	133.575	
74.00	-69.917	177.592	
75.00	-69.391	-125.546	
76.00	-68.169	-84.125	
77.00	-66.732	-28.568	
78.00	-66.125	19.118	
79.00	-65.185	66.155	
80.00	-64.663	113.062	
81.00	-63.819	157.508	
82.00	-63.161	-155.717	
83.00	-63.168	-116.772	
84.00	-62.412	-67.333	
85.00	-62.359	-26.359	
86.00	-61.565	20.561	
87.00	-61.165	56.659	
88.00	-60.700	100.275	
89.00	-59.962	138.495	
90.00	-59.780	176.678	
91.00	-59.334	-144.624	
92.00	-58.891	-108.885	
93.00	-58.488	-70.160	
94.00	-58.241	-38.476	
95.00	-57.836	-2.397	
96.00	-57.654	26.972	
97.00	-57.489	60.399	
98.00	-57.469	99.620	
99.00	-57.387	129.845	
100.00	-57.196	169.143	
101.00	-57.150	-162.315	
102.00	-57.030	-125.346	
103.00	-56.890	-93.617	
104.00	-56.877	-60.977	
105.00	-56.959	-29.050	
106.00	-57.301	-4.550	
107.00	-57.664	34.525	
108.00	-58.045	68.155	
109.00	-58.961	102.235	
110.00	-59.846	136.635	
111.00	-61.514	166.914	
112.00	-63.612	-161.177	
113.00	-67.232	-138.631	
114.00	-72.808	-133.417	
115.00	-74.771	162.831	
116.00	-67.445	162.495	
117.00	-63.855	-176.805	
118.00	-62.143	-142.255	
119.00	-61.426	-129.811	
120.00	-62.028	-83.595	
121.00	-63.120	-70.781	
122.00	-65.587	-22.906	
123.00	-69.996	15.221	
124.00	-77.355	108.004	
125.00	-70.489	-159.184	
126.00	-65.401	-127.207	
127.00	-63.666	-107.077	
128.00	-62.987	-88.083	
129.00	-62.718	-96.848	
130.00	-62.451	-68.301	
131.00	-60.941	-67.138	
132.00	-60.046	-41.619	
133.00	-59.730	-29.502	
134.00	-61.036	7.439	
135.00	-63.771	10.969	
136.00	-68.758	6.590	
137.00	-67.673	-46.681	
138.00	-63.665	-48.345	
139.00	-62.934	-23.802	
140.00	-64.356	-19.362	
141.00	-69.366	20.926	
142.00	-75.047	121.693	
143.00	-67.708	167.890	
144.00	-64.696	-149.131	
145.00	-64.549	-149.362	
146.00	-66.209	-142.105	
147.00	-64.206	-163.167	
148.00	-60.940	169.701	
149.00	-58.412	167.068	
150.00	-56.925	-166.309	
151.00	-56.610	-165.973	
152.00	-56.840	-140.886	
153.00	-57.919	-161.898	
154.00	-60.365	-130.712	
155.00	-64.138	-164.378	
156.00	-66.824	157.699	
157.00	-62.972	125.078	
158.00	-59.865	138.721	
159.00	-59.115	148.595	
160.00	-60.622	167.903	
161.00	-65.613	-170.345	
162.00	-74.839	-88.473	
163.00	-66.026	-12.468	
164.00	-62.551	-13.327	
165.00	-61.081	-9.782	
166.00	-60.393	-26.797	
167.00	-60.601	-29.693	
168.00	-62.657	-42.657	
169.00	-67.854	-66.917	
170.00	-67.257	-133.723	
171.00	-64.360	-174.360	
172.00	-67.761	167.995	
173.00	-63.300	52.482	
174.00	-53.460	49.020	
175.00	-47.817	46.575	
176.00	-44.313	54.667	
177.00	-42.124	61.366	
178.00	-40.914	61.735	
179.00	-40.539	67.815	
180.00	-40.850	57.398	
181.00	-41.724	55.721	
182.00	-43.204	55.180	
183.00	-45.444	41.748	
184.00	-48.633	46.537	
185.00	-53.664	34.646	
186.00	-62.206	73.551	
187.00	-63.305	159.473	
188.00	-59.746	-169.393	
189.00	-59.826	-162.785	
190.00	-62.187	-125.548	
191.00	-61.458	-81.576	
192.00	-57.754	-51.019	
193.00	-55.469	-54.036	
194.00	-55.371	-52.390	
195.00	-57.012	-57.225	
196.00	-61.461	-62.764	
197.00	-71.213	-95.613	
198.00	-70.153	143.395	
199.00	-65.103	111.742	
200.00	-63.708	93.797	
201.00	-64.551	71.269	
202.00	-65.980	47.712	
203.00	-69.541	27.162	
204.00	-74.083	-0.799	
205.00	-80.811	8.448	
206.00	-78.481	44.126	
207.00	-71.460	33.277	
208.00	-67.603	8.207	
209.00	-64.837	-19.138	
210.00	-61.890	-57.207	
211.00	-59.529	-74.803	
212.00	-58.008	-100.281	
213.00	-57.898	-103.764	
214.00	-58.953	-123.507	
215.00	-61.638	-138.084	
216.00	-67.126	-167.585	
217.00	-79.886	153.940	
218.00	-72.591	10.853	
219.00	-67.578	-14.074	
220.00	-66.046	-41.462	
221.00	-66.402	-68.678	
222.00	-67.867	-88.158	
223.00	-71.321	-112.264	
224.00	-76.868	-155.657	
225.00	-83.002	-159.556	
226.00	-85.376	-78.953	
227.00	-78.186	-89.716	
228.00	-75.940	-107.169	
229.00	-73.062	-149.326	
230.00	-73.016	-177.630	
231.00	-72.149	133.017	
232.00	-71.036	95.612	
233.00	-70.713	63.894	
234.00	-71.433	7.893	
235.00	-71.187	-23.585	
236.00	-71.905	-44.724	
237.00	-74.378	-72.087	
238.00	-78.486	-101.956	
239.00	-82.771	-151.337	
240.00	-84.352	58.857	
241.00	-75.738	12.118	
242.00	-71.871	-15.451	
243.00	-70.823	-47.490	
244.00	-69.116	-75.588	
245.00	-68.343	-118.697	
246.00	-67.200	-144.531	
247.00	-65.901	173.986	
248.00	-65.438	143.477	
249.00	-64.842	105.921	
250.00	-64.012	74.072	
251.00	-63.800	29.015	
252.00	-63.348	4.146	
253.00	-63.281	-39.139	
254.00	-62.847	-67.808	
255.00	-63.101	-101.522	
256.00	-63.194	-141.294	
257.00	-63.777	-160.280	
258.00	-64.122	143.052	
259.00	-64.611	141.060	
260.00	-65.539	82.213	
261.00	-65.268	51.899	
262.00	-66.115	29.386	
263.00	-65.935	-24.208	
264.00	-66.313	-42.032	
265.00	-66.913	-94.379	
266.00	-66.716	-119.931	
267.00	-67.794	-167.064	
268.00	-68.517	152.938	
269.00	-68.719	122.685	
270.00	-69.107	73.134	
271.00	-68.672	48.452	
272.00	-69.728	-6.567	
273.00	-69.674	-54.629	
274.00	-69.796	-91.176	
275.00	-70.226	-132.699	
276.00	-70.929	177.929	
277.00	-71.573	149.037	
278.00	-71.896	100.650	
279.00	-72.030	61.334	
280.00	-72.674	0.470	
281.00	-73.412	-19.544	
282.00	-75.399	-99.096	
283.00	-74.570	-146.508	
284.00	-75.746	-178.404	
285.00	-77.582	138.443	
286.00	-80.468	107.550	
287.00	-90.349	56.193	
288.00	-89.751	-20.054	
289.00	-85.035	-106.282	
290.00	-84.037	-160.138	
291.00	-81.790	159.542	
292.00	-84.288	123.537	
293.00	-86.848	68.517	
294.00	-83.857	-18.396	
295.00	-82.944	-77.500	
296.00	-80.234	-118.454	
297.00	-81.666	-143.724	
298.00	-84.341	173.495	
299.00	-90.730	169.159	
300.00	-92.733	-173.337	
301.00	-85.393	-100.100	
302.00	-84.673	-171.033	
303.00	-88.945	137.882	
304.00	-88.761	35.050	
305.00	-88.137	-76.991	
306.00	-82.373	-122.413	
307.00	-80.287	-171.484	
308.00	-78.940	134.947	
309.00	-80.264	70.693	
310.00	-82.401	6.379	
311.00	-81.680	-82.509	
312.00	-80.105	-112.188	
313.00	-80.704	-141.233	
314.00	-81.040	151.210	
315.00	-85.795	114.005	
316.00	-91.045	115.814	
317.00	-95.801	-158.124	
318.00	-81.972	-177.900	
319.00	-81.534	137.877	
320.00	-80.993	59.269	
321.00	-82.181	-22.549	
322.00	-84.289	-44.115	
323.00	-88.815	-107.866	
324.00	-93.363	-104.165	
325.00	-94.876	-68.356	
326.00	-90.992	-110.177	
327.00	-81.415	-139.141	
328.00	-85.949	169.114	
329.00	-87.552	-176.464	
330.00	-86.047	-176.752	
331.00	-83.453	-167.865	
332.00	-86.840	161.067	
333.00	-91.065	143.019	
334.00	-91.955	-147.023	
335.00	-88.870	-134.874	
336.00	-84.065	-145.381	
337.00	-88.675	115.970	
338.00	-85.709	36.844	
339.00	-86.197	-47.928	
340.00	-85.998	-69.412	
341.00	-84.516	-98.812	
342.00	-92.631	-156.683	
343.00	-99.892	-17.968	
344.00	-84.109	-97.009	
345.00	-81.993	-105.629	
346.00	-82.160	-157.724	
347.00	-84.284	-165.368	
348.00	-88.312	-169.125	
349.00	-82.182	174.228	
350.00	-84.742	-122.780	
351.00	-83.232	-162.044	
352.00	-87.252	-165.978	
353.00	-84.973	-164.384	
354.00	-90.129	-174.745	
355.00	-85.272	132.853	
356.00	-83.842	133.339	
357.00	-88.195	112.071	
358.00	-88.165	25.916	
359.00	-97.106	-9.039	
