Test Title:	Alpha Wireless Indoor Range						
Date:	21/03/2018						
Time:	12:24						
Operator Name:	FL						
Comment:	Radome height is 74mm 

No wings						
Caib. File Name:	C:\Program Files\Midas 2.01d\Calibration Files\test sigma 180900.cal						
							
[Scan Axis] Name: 	Azimuth  [deg]Start: 	0.000000	Stop	359.000000	Increment	1.000000[Step Axis] Name: 	Start: 	0.000000	Stop	0.000000	Increment	0.000000[Tert] Name: 	None [Forth] Name: 	None  [ Freq.]  (List) 	MHz.	3400.000000	3450.000000	3500.000000	3550.000000	3600.000000	3650.000000	3700.000000	3750.000000	3800.000000	3850.000000	3900.000000	3950.000000	4000.000000	4050.000000	4100.000000	4150.000000	4200.000000
 [Switch]  	None [Channel]  	test			 [ Beam] 	None			
Database:			
First Question			
2nd			
3rd			
4th			
			
Frequency	3400.00	MHz	
Channel	test		
Scan Axis name	Azimuth  [deg]		
Scan Axis	Amplitude	Phase	
			
0.00	-76.079	-145.886	
1.00	-76.672	-113.554	
2.00	-74.258	-94.549	
3.00	-74.243	-66.621	
4.00	-74.025	-62.554	
5.00	-72.920	-52.430	
6.00	-73.465	-16.061	
7.00	-73.394	-33.811	
8.00	-74.507	5.570	
9.00	-74.730	5.253	
10.00	-76.637	37.564	
11.00	-76.719	60.095	
12.00	-79.134	71.693	
13.00	-78.570	90.634	
14.00	-75.391	111.327	
15.00	-73.971	119.542	
16.00	-71.568	145.929	
17.00	-69.964	142.512	
18.00	-69.950	143.955	
19.00	-69.447	165.110	
20.00	-69.308	169.997	
21.00	-69.262	-171.618	
22.00	-69.876	-166.646	
23.00	-71.092	-142.556	
24.00	-71.716	-129.958	
25.00	-75.602	-91.575	
26.00	-76.035	-59.752	
27.00	-77.231	-0.646	
28.00	-75.480	39.100	
29.00	-73.250	65.108	
30.00	-72.339	75.040	
31.00	-70.665	92.114	
32.00	-69.334	112.386	
33.00	-68.329	123.627	
34.00	-68.234	140.103	
35.00	-67.774	160.077	
36.00	-67.607	178.081	
37.00	-67.621	-159.410	
38.00	-68.021	-147.235	
39.00	-68.871	-118.011	
40.00	-70.918	-81.477	
41.00	-71.279	-70.172	
42.00	-73.981	-28.488	
43.00	-73.782	-3.445	
44.00	-75.422	37.489	
45.00	-73.441	73.705	
46.00	-72.771	116.251	
47.00	-70.959	122.530	
48.00	-69.457	148.100	
49.00	-68.542	167.455	
50.00	-68.078	-167.573	
51.00	-68.050	-140.606	
52.00	-68.062	-123.022	
53.00	-68.461	-97.996	
54.00	-68.084	-67.756	
55.00	-69.936	-48.013	
56.00	-70.057	-15.779	
57.00	-70.219	0.689	
58.00	-70.443	45.229	
59.00	-69.603	67.682	
60.00	-68.866	108.213	
61.00	-67.835	125.233	
62.00	-67.126	156.777	
63.00	-66.839	175.259	
64.00	-66.288	-151.460	
65.00	-66.216	-137.174	
66.00	-66.010	-100.642	
67.00	-65.716	-91.230	
68.00	-65.301	-59.187	
69.00	-65.016	-40.143	
70.00	-65.027	-9.739	
71.00	-64.953	29.123	
72.00	-64.481	51.049	
73.00	-64.440	87.899	
74.00	-64.050	114.153	
75.00	-63.309	142.169	
76.00	-63.005	173.271	
77.00	-62.835	-159.209	
78.00	-62.359	-125.348	
79.00	-62.044	-103.175	
80.00	-61.579	-72.853	
81.00	-61.492	-42.780	
82.00	-61.366	-15.147	
83.00	-61.330	10.301	
84.00	-60.784	37.771	
85.00	-60.639	64.709	
86.00	-60.153	95.891	
87.00	-60.048	122.096	
88.00	-59.870	148.864	
89.00	-59.570	175.892	
90.00	-59.442	-154.943	
91.00	-59.366	-129.859	
92.00	-59.298	-102.749	
93.00	-59.208	-78.977	
94.00	-59.178	-50.169	
95.00	-59.140	-21.620	
96.00	-59.098	3.564	
97.00	-58.877	31.844	
98.00	-58.730	54.024	
99.00	-58.617	83.166	
100.00	-58.322	98.348	
101.00	-58.179	132.015	
102.00	-58.051	139.110	
103.00	-57.965	165.390	
104.00	-57.676	-173.089	
105.00	-57.740	-148.446	
106.00	-57.588	-124.641	
107.00	-57.621	-104.204	
108.00	-57.735	-77.519	
109.00	-57.701	-66.371	
110.00	-58.124	-39.219	
111.00	-58.320	-34.873	
112.00	-58.657	-8.330	
113.00	-59.149	13.836	
114.00	-59.734	28.667	
115.00	-59.800	63.948	
116.00	-60.340	73.025	
117.00	-60.428	106.411	
118.00	-60.924	119.407	
119.00	-60.935	144.739	
120.00	-60.991	156.502	
121.00	-61.097	177.558	
122.00	-60.815	-171.218	
123.00	-60.809	-163.900	
124.00	-60.305	-148.373	
125.00	-59.678	-143.031	
126.00	-59.275	-137.182	
127.00	-58.717	-118.071	
128.00	-58.027	-104.182	
129.00	-57.489	-89.361	
130.00	-57.050	-77.325	
131.00	-56.591	-56.820	
132.00	-56.243	-28.545	
133.00	-55.741	-23.820	
134.00	-55.492	-11.433	
135.00	-55.061	3.073	
136.00	-54.917	20.324	
137.00	-54.728	39.049	
138.00	-54.553	49.155	
139.00	-54.346	71.724	
140.00	-54.407	80.685	
141.00	-54.323	92.872	
142.00	-54.486	100.300	
143.00	-54.500	118.563	
144.00	-54.742	128.402	
145.00	-54.832	133.295	
146.00	-55.046	142.673	
147.00	-55.144	135.460	
148.00	-55.259	152.816	
149.00	-55.166	145.324	
150.00	-54.966	149.397	
151.00	-54.560	150.428	
152.00	-54.233	154.286	
153.00	-53.757	164.165	
154.00	-53.153	173.556	
155.00	-52.741	-176.978	
156.00	-52.434	-163.097	
157.00	-52.015	-158.850	
158.00	-51.800	-150.420	
159.00	-51.499	-149.160	
160.00	-51.421	-142.383	
161.00	-51.333	-129.749	
162.00	-51.323	-129.430	
163.00	-51.377	-125.195	
164.00	-51.678	-120.830	
165.00	-51.919	-122.078	
166.00	-52.240	-121.803	
167.00	-52.631	-124.413	
168.00	-53.044	-128.012	
169.00	-53.356	-130.349	
170.00	-53.895	-134.227	
171.00	-54.161	-140.123	
172.00	-54.169	-145.685	
173.00	-54.245	-149.931	
174.00	-54.142	-157.369	
175.00	-53.937	-160.210	
176.00	-53.727	-164.124	
177.00	-53.407	-167.420	
178.00	-53.085	-177.371	
179.00	-52.930	178.571	
180.00	-52.785	173.782	
181.00	-52.662	174.501	
182.00	-52.710	163.314	
183.00	-52.869	164.032	
184.00	-53.045	150.326	
185.00	-53.346	150.735	
186.00	-53.791	139.959	
187.00	-54.290	146.137	
188.00	-54.799	137.140	
189.00	-55.354	135.523	
190.00	-55.834	125.440	
191.00	-56.719	112.750	
192.00	-57.104	103.404	
193.00	-57.768	90.835	
194.00	-58.286	71.915	
195.00	-58.120	64.343	
196.00	-57.980	48.215	
197.00	-57.802	40.202	
198.00	-57.347	19.439	
199.00	-57.008	17.973	
200.00	-56.735	-2.397	
201.00	-56.171	-10.591	
202.00	-55.936	-13.194	
203.00	-55.565	-28.347	
204.00	-55.439	-38.156	
205.00	-55.287	-49.975	
206.00	-55.196	-65.220	
207.00	-55.170	-74.115	
208.00	-55.246	-90.371	
209.00	-55.372	-99.989	
210.00	-55.603	-111.275	
211.00	-55.925	-120.962	
212.00	-56.460	-138.059	
213.00	-57.023	-146.007	
214.00	-57.719	-166.454	
215.00	-58.505	-171.783	
216.00	-59.768	160.497	
217.00	-61.069	156.847	
218.00	-62.847	145.287	
219.00	-65.418	125.814	
220.00	-68.968	121.313	
221.00	-74.178	117.382	
222.00	-77.675	-176.859	
223.00	-71.477	-159.930	
224.00	-67.383	-153.013	
225.00	-64.698	-168.978	
226.00	-62.886	179.357	
227.00	-61.168	165.020	
228.00	-59.982	147.458	
229.00	-59.361	129.312	
230.00	-58.505	112.111	
231.00	-57.979	89.843	
232.00	-57.576	62.129	
233.00	-57.135	48.285	
234.00	-56.689	16.058	
235.00	-56.405	-1.653	
236.00	-55.953	-32.343	
237.00	-55.501	-61.458	
238.00	-55.396	-78.592	
239.00	-54.924	-115.945	
240.00	-54.731	-131.725	
241.00	-54.698	-160.002	
242.00	-54.604	168.465	
243.00	-54.811	148.202	
244.00	-54.877	115.161	
245.00	-55.232	89.688	
246.00	-55.365	52.499	
247.00	-55.773	27.449	
248.00	-55.892	14.230	
249.00	-55.976	-30.763	
250.00	-56.024	-18.926	
251.00	-56.447	-73.436	
252.00	-55.749	-112.474	
253.00	-56.207	-130.163	
254.00	-56.009	-178.037	
255.00	-56.615	175.773	
256.00	-56.800	131.448	
257.00	-57.229	107.372	
258.00	-57.767	80.304	
259.00	-57.882	51.394	
260.00	-57.919	26.822	
261.00	-58.404	-4.281	
262.00	-58.368	-38.760	
263.00	-58.592	-59.366	
264.00	-58.592	-101.401	
265.00	-58.741	-115.863	
266.00	-59.135	-153.439	
267.00	-59.288	176.736	
268.00	-59.629	163.299	
269.00	-60.006	131.351	
270.00	-60.492	113.664	
271.00	-61.213	78.359	
272.00	-61.777	53.850	
273.00	-62.035	16.433	
274.00	-62.432	-12.230	
275.00	-62.065	-48.535	
276.00	-62.327	-76.267	
277.00	-62.062	-107.745	
278.00	-62.191	-137.865	
279.00	-62.166	-164.554	
280.00	-62.208	165.741	
281.00	-62.656	136.254	
282.00	-62.762	106.368	
283.00	-63.104	78.634	
284.00	-62.819	49.751	
285.00	-63.215	17.634	
286.00	-63.021	-12.631	
287.00	-63.104	-38.371	
288.00	-62.931	-68.710	
289.00	-63.113	-85.382	
290.00	-63.399	-119.788	
291.00	-63.843	-138.507	
292.00	-64.478	-171.421	
293.00	-65.044	161.560	
294.00	-66.042	130.284	
295.00	-66.304	101.481	
296.00	-67.027	74.791	
297.00	-67.298	36.922	
298.00	-67.153	19.121	
299.00	-67.646	-19.134	
300.00	-68.360	-37.384	
301.00	-69.198	-66.940	
302.00	-69.573	-94.601	
303.00	-70.021	-123.551	
304.00	-71.205	-149.776	
305.00	-72.917	-174.818	
306.00	-73.559	144.777	
307.00	-73.052	114.669	
308.00	-74.324	81.544	
309.00	-75.065	45.424	
310.00	-74.969	7.301	
311.00	-74.341	-23.182	
312.00	-73.283	-60.752	
313.00	-72.332	-88.460	
314.00	-71.048	-118.230	
315.00	-71.155	-136.003	
316.00	-70.025	-159.545	
317.00	-69.601	-178.458	
318.00	-69.347	160.119	
319.00	-69.661	138.410	
320.00	-70.205	123.647	
321.00	-70.722	102.297	
322.00	-71.423	81.750	
323.00	-73.057	52.990	
324.00	-73.689	36.671	
325.00	-73.635	-25.381	
326.00	-73.213	-52.366	
327.00	-73.834	-59.608	
328.00	-73.077	-87.206	
329.00	-73.106	-98.708	
330.00	-72.899	-114.963	
331.00	-73.060	-120.408	
332.00	-73.521	-139.086	
333.00	-73.597	-153.817	
334.00	-74.042	-166.883	
335.00	-74.209	-178.562	
336.00	-75.379	167.703	
337.00	-76.487	156.830	
338.00	-78.170	124.179	
339.00	-78.671	122.931	
340.00	-83.186	104.993	
341.00	-82.593	116.327	
342.00	-91.365	82.634	
343.00	-97.758	78.462	
344.00	-89.104	-133.329	
345.00	-82.548	-164.918	
346.00	-77.496	-152.694	
347.00	-76.921	-164.993	
348.00	-74.810	-167.149	
349.00	-73.170	-152.684	
350.00	-72.332	-164.059	
351.00	-71.309	-177.202	
352.00	-70.983	179.924	
353.00	-71.346	-174.925	
354.00	-71.426	178.183	
355.00	-72.752	-173.328	
356.00	-72.460	-174.591	
357.00	-75.006	-160.454	
358.00	-76.024	-141.376	
359.00	-77.436	-127.775	
Frequency	3450.00	MHz	
Channel	test		
Scan Axis name	Azimuth  [deg]		
Scan Axis	Amplitude	Phase	
			
0.00	-78.021	-30.152	
1.00	-77.029	-3.243	
2.00	-75.309	7.775	
3.00	-73.793	25.137	
4.00	-72.269	25.990	
5.00	-72.182	35.189	
6.00	-72.592	63.365	
7.00	-72.255	52.661	
8.00	-73.556	81.026	
9.00	-74.084	85.021	
10.00	-76.946	99.066	
11.00	-77.262	122.615	
12.00	-77.755	143.526	
13.00	-79.802	137.878	
14.00	-78.213	174.697	
15.00	-78.338	-170.858	
16.00	-77.907	-136.257	
17.00	-76.350	-129.397	
18.00	-76.460	-121.607	
19.00	-74.833	-93.233	
20.00	-74.916	-76.734	
21.00	-72.963	-53.229	
22.00	-73.622	-52.919	
23.00	-72.450	-23.280	
24.00	-71.725	-5.759	
25.00	-72.144	31.304	
26.00	-71.640	41.539	
27.00	-71.223	86.317	
28.00	-70.679	106.932	
29.00	-70.078	132.520	
30.00	-70.485	134.049	
31.00	-70.596	158.463	
32.00	-69.950	178.405	
33.00	-70.255	-164.029	
34.00	-70.728	-143.147	
35.00	-69.940	-117.921	
36.00	-70.020	-97.624	
37.00	-69.623	-68.023	
38.00	-69.819	-50.859	
39.00	-69.262	-18.907	
40.00	-70.173	23.437	
41.00	-71.110	22.855	
42.00	-71.917	63.987	
43.00	-71.840	87.320	
44.00	-74.150	118.129	
45.00	-73.969	149.974	
46.00	-74.815	-175.639	
47.00	-72.824	-164.392	
48.00	-72.062	-131.648	
49.00	-72.557	-109.657	
50.00	-72.424	-77.224	
51.00	-71.799	-45.780	
52.00	-71.965	-22.746	
53.00	-71.831	10.282	
54.00	-72.146	44.059	
55.00	-74.305	56.922	
56.00	-71.405	87.578	
57.00	-72.058	122.241	
58.00	-72.194	153.816	
59.00	-70.139	167.745	
60.00	-70.386	-147.867	
61.00	-68.535	-142.256	
62.00	-68.486	-104.076	
63.00	-69.834	-85.514	
64.00	-68.606	-49.799	
65.00	-69.489	-38.260	
66.00	-68.166	10.441	
67.00	-68.350	12.335	
68.00	-68.063	47.723	
69.00	-67.809	67.979	
70.00	-68.180	84.157	
71.00	-67.694	134.934	
72.00	-66.702	156.234	
73.00	-67.113	-163.665	
74.00	-66.188	-139.922	
75.00	-65.931	-111.927	
76.00	-65.611	-78.265	
77.00	-65.080	-54.068	
78.00	-64.637	-20.030	
79.00	-63.648	-0.104	
80.00	-64.278	29.179	
81.00	-63.423	58.628	
82.00	-63.783	85.217	
83.00	-63.761	112.897	
84.00	-63.266	144.102	
85.00	-63.845	173.114	
86.00	-62.734	-154.946	
87.00	-62.265	-129.562	
88.00	-62.493	-102.662	
89.00	-61.830	-74.516	
90.00	-61.112	-44.491	
91.00	-61.033	-22.007	
92.00	-60.774	6.191	
93.00	-60.465	30.971	
94.00	-60.609	62.216	
95.00	-60.346	85.275	
96.00	-59.982	113.431	
97.00	-60.038	140.665	
98.00	-60.041	161.569	
99.00	-59.757	-169.047	
100.00	-59.704	-154.111	
101.00	-59.367	-119.796	
102.00	-59.297	-114.242	
103.00	-59.023	-85.714	
104.00	-58.708	-64.484	
105.00	-58.852	-38.330	
106.00	-58.472	-14.342	
107.00	-58.456	6.357	
108.00	-58.780	33.861	
109.00	-58.553	44.064	
110.00	-58.614	75.128	
111.00	-58.472	78.734	
112.00	-58.800	105.770	
113.00	-58.948	128.818	
114.00	-59.360	148.368	
115.00	-59.397	-174.701	
116.00	-59.445	-165.510	
117.00	-59.594	-133.292	
118.00	-59.906	-118.088	
119.00	-59.952	-90.893	
120.00	-60.217	-75.988	
121.00	-60.312	-50.880	
122.00	-60.423	-38.758	
123.00	-60.824	-31.163	
124.00	-60.958	-12.492	
125.00	-61.478	-7.912	
126.00	-60.965	-1.550	
127.00	-61.214	14.506	
128.00	-60.583	20.793	
129.00	-60.098	36.759	
130.00	-59.851	46.945	
131.00	-59.252	64.521	
132.00	-58.637	90.181	
133.00	-57.965	92.762	
134.00	-57.260	106.063	
135.00	-56.683	118.820	
136.00	-56.152	135.712	
137.00	-55.620	153.276	
138.00	-55.331	165.509	
139.00	-54.691	-173.100	
140.00	-54.454	-164.474	
141.00	-54.040	-150.756	
142.00	-53.932	-142.173	
143.00	-53.813	-123.551	
144.00	-53.727	-110.558	
145.00	-53.710	-103.443	
146.00	-53.825	-92.373	
147.00	-53.883	-97.186	
148.00	-54.052	-75.414	
149.00	-54.255	-81.084	
150.00	-54.375	-74.533	
151.00	-54.503	-72.911	
152.00	-54.476	-67.914	
153.00	-54.331	-58.243	
154.00	-54.330	-50.267	
155.00	-53.995	-42.311	
156.00	-53.806	-29.181	
157.00	-53.633	-27.560	
158.00	-53.274	-20.086	
159.00	-53.054	-20.608	
160.00	-52.854	-14.522	
161.00	-52.757	-5.089	
162.00	-52.652	-4.401	
163.00	-52.567	-1.515	
164.00	-52.727	2.825	
165.00	-52.779	1.508	
166.00	-53.028	1.329	
167.00	-53.260	-0.861	
168.00	-53.572	-3.084	
169.00	-53.941	-4.275	
170.00	-54.226	-7.728	
171.00	-54.628	-11.624	
172.00	-54.994	-15.464	
173.00	-55.211	-19.004	
174.00	-55.478	-25.770	
175.00	-55.429	-29.622	
176.00	-55.538	-33.683	
177.00	-55.441	-38.115	
178.00	-55.342	-49.358	
179.00	-55.325	-53.447	
180.00	-55.400	-60.450	
181.00	-55.367	-61.483	
182.00	-55.492	-73.166	
183.00	-55.601	-75.348	
184.00	-55.926	-90.073	
185.00	-56.228	-90.411	
186.00	-56.886	-103.291	
187.00	-57.395	-98.211	
188.00	-57.902	-108.617	
189.00	-58.443	-111.723	
190.00	-59.178	-124.189	
191.00	-60.066	-140.363	
192.00	-60.266	-150.892	
193.00	-60.480	-166.380	
194.00	-60.825	174.120	
195.00	-60.437	167.423	
196.00	-60.212	151.129	
197.00	-59.645	144.829	
198.00	-59.185	125.892	
199.00	-58.839	125.119	
200.00	-58.545	105.229	
201.00	-58.210	99.315	
202.00	-57.883	95.920	
203.00	-57.766	81.850	
204.00	-57.393	73.461	
205.00	-57.390	62.215	
206.00	-57.273	47.308	
207.00	-57.329	39.441	
208.00	-57.548	24.291	
209.00	-57.642	15.808	
210.00	-57.875	6.937	
211.00	-58.083	-2.646	
212.00	-58.601	-17.745	
213.00	-59.270	-24.318	
214.00	-59.987	-41.948	
215.00	-60.572	-46.481	
216.00	-61.976	-71.025	
217.00	-62.961	-72.308	
218.00	-64.083	-77.658	
219.00	-65.720	-89.386	
220.00	-66.660	-84.850	
221.00	-67.316	-86.438	
222.00	-67.228	-78.688	
223.00	-65.935	-84.772	
224.00	-64.734	-82.647	
225.00	-63.008	-95.246	
226.00	-61.926	-99.720	
227.00	-60.815	-114.162	
228.00	-60.043	-127.822	
229.00	-59.008	-144.610	
230.00	-58.755	-157.906	
231.00	-58.116	-179.417	
232.00	-57.557	153.767	
233.00	-57.236	141.740	
234.00	-56.740	111.572	
235.00	-56.427	94.768	
236.00	-56.057	65.783	
237.00	-55.810	37.856	
238.00	-55.734	21.238	
239.00	-55.556	-15.572	
240.00	-55.399	-30.967	
241.00	-55.482	-60.100	
242.00	-55.453	-91.931	
243.00	-55.604	-114.008	
244.00	-55.844	-146.646	
245.00	-55.854	-172.370	
246.00	-56.089	152.212	
247.00	-56.123	126.955	
248.00	-56.432	114.906	
249.00	-56.434	71.343	
250.00	-56.749	84.557	
251.00	-57.425	29.170	
252.00	-56.962	-7.056	
253.00	-57.891	-27.248	
254.00	-57.878	-74.845	
255.00	-58.209	-82.033	
256.00	-58.657	-127.685	
257.00	-59.041	-153.059	
258.00	-59.465	-179.570	
259.00	-59.912	151.716	
260.00	-60.342	124.548	
261.00	-60.702	94.693	
262.00	-60.672	58.753	
263.00	-60.896	36.557	
264.00	-60.834	-5.195	
265.00	-61.153	-21.791	
266.00	-61.666	-59.289	
267.00	-61.680	-88.537	
268.00	-62.044	-104.951	
269.00	-62.459	-136.619	
270.00	-62.877	-154.458	
271.00	-63.729	171.294	
272.00	-64.285	145.407	
273.00	-64.989	107.960	
274.00	-65.169	75.342	
275.00	-64.749	40.086	
276.00	-64.544	9.918	
277.00	-64.544	-19.139	
278.00	-63.756	-47.405	
279.00	-64.511	-75.455	
280.00	-64.489	-104.729	
281.00	-65.103	-131.010	
282.00	-65.261	-160.348	
283.00	-66.085	172.513	
284.00	-66.990	140.991	
285.00	-66.994	107.247	
286.00	-66.880	77.443	
287.00	-66.857	47.673	
288.00	-66.860	16.194	
289.00	-66.444	-2.504	
290.00	-66.834	-37.669	
291.00	-67.133	-53.688	
292.00	-67.892	-86.897	
293.00	-69.289	-114.935	
294.00	-70.271	-148.467	
295.00	-72.130	-175.808	
296.00	-72.902	146.631	
297.00	-72.462	109.586	
298.00	-73.089	79.018	
299.00	-72.688	49.018	
300.00	-72.350	26.052	
301.00	-72.499	-2.842	
302.00	-72.883	-29.147	
303.00	-74.207	-53.315	
304.00	-75.899	-82.298	
305.00	-76.118	-98.180	
306.00	-81.985	-134.503	
307.00	-85.777	-173.603	
308.00	-85.803	142.330	
309.00	-84.085	67.291	
310.00	-84.286	32.382	
311.00	-81.277	4.008	
312.00	-78.861	-31.859	
313.00	-78.242	-58.527	
314.00	-76.821	-88.683	
315.00	-75.352	-99.300	
316.00	-74.598	-124.838	
317.00	-75.250	-143.075	
318.00	-74.331	-163.156	
319.00	-74.142	178.256	
320.00	-74.069	161.014	
321.00	-76.321	140.225	
322.00	-76.046	115.109	
323.00	-77.953	94.551	
324.00	-78.677	74.974	
325.00	-77.388	31.892	
326.00	-78.009	11.142	
327.00	-80.531	-1.062	
328.00	-81.492	-35.790	
329.00	-81.115	-31.825	
330.00	-81.127	-46.839	
331.00	-81.952	-86.454	
332.00	-85.556	-79.209	
333.00	-86.261	-114.567	
334.00	-88.036	-154.120	
335.00	-85.647	-156.901	
336.00	-85.796	-177.066	
337.00	-86.397	130.469	
338.00	-84.605	140.597	
339.00	-89.469	151.158	
340.00	-86.961	120.098	
341.00	-87.934	99.990	
342.00	-94.359	-165.356	
343.00	-96.494	-89.957	
344.00	-89.550	-98.293	
345.00	-85.659	-94.283	
346.00	-80.812	-93.067	
347.00	-80.810	-102.105	
348.00	-77.555	-85.437	
349.00	-75.391	-83.462	
350.00	-75.356	-92.111	
351.00	-75.996	-106.448	
352.00	-75.646	-113.447	
353.00	-76.098	-92.425	
354.00	-75.382	-99.338	
355.00	-76.543	-89.742	
356.00	-78.134	-86.627	
357.00	-80.146	-70.899	
358.00	-79.238	-20.531	
359.00	-81.960	-10.413	
Frequency	3500.00	MHz	
Channel	test		
Scan Axis name	Azimuth  [deg]		
Scan Axis	Amplitude	Phase	
			
0.00	-75.416	22.328	
1.00	-72.456	33.233	
2.00	-72.293	47.290	
3.00	-72.106	55.154	
4.00	-72.411	58.864	
5.00	-71.362	67.029	
6.00	-72.379	95.437	
7.00	-71.957	81.462	
8.00	-74.176	100.841	
9.00	-75.635	103.992	
10.00	-76.409	114.400	
11.00	-79.956	115.389	
12.00	-82.241	128.154	
13.00	-85.237	102.455	
14.00	-87.639	-18.539	
15.00	-89.786	-37.561	
16.00	-80.653	-22.418	
17.00	-79.294	-26.616	
18.00	-76.626	-23.358	
19.00	-74.352	-11.625	
20.00	-73.202	-3.042	
21.00	-71.249	13.633	
22.00	-72.215	16.988	
23.00	-71.748	41.587	
24.00	-71.930	51.252	
25.00	-72.976	84.060	
26.00	-73.833	107.010	
27.00	-75.580	137.930	
28.00	-75.094	165.483	
29.00	-76.144	-154.525	
30.00	-75.103	-144.085	
31.00	-72.312	-109.528	
32.00	-73.535	-87.546	
33.00	-72.816	-69.780	
34.00	-70.594	-50.645	
35.00	-70.649	-27.907	
36.00	-69.689	-6.196	
37.00	-68.606	15.480	
38.00	-68.930	27.705	
39.00	-69.756	52.785	
40.00	-70.291	90.329	
41.00	-71.085	92.828	
42.00	-74.428	123.333	
43.00	-75.493	152.718	
44.00	-79.154	-159.061	
45.00	-78.809	-114.977	
46.00	-76.760	-76.807	
47.00	-75.683	-76.485	
48.00	-73.894	-31.763	
49.00	-73.699	-8.162	
50.00	-71.527	14.135	
51.00	-71.605	39.987	
52.00	-72.594	55.311	
53.00	-72.432	88.474	
54.00	-74.130	117.305	
55.00	-75.496	129.878	
56.00	-77.162	168.217	
57.00	-78.723	-153.893	
58.00	-77.457	-111.407	
59.00	-76.763	-88.497	
60.00	-73.261	-42.882	
61.00	-72.522	-29.498	
62.00	-71.420	-0.423	
63.00	-70.195	22.935	
64.00	-69.548	43.416	
65.00	-69.461	49.537	
66.00	-70.240	84.078	
67.00	-69.463	88.111	
68.00	-69.882	115.947	
69.00	-69.540	133.416	
70.00	-70.860	167.550	
71.00	-71.593	-146.250	
72.00	-71.009	-115.784	
73.00	-71.118	-67.900	
74.00	-69.641	-45.416	
75.00	-68.904	-14.043	
76.00	-67.399	11.892	
77.00	-66.454	36.657	
78.00	-66.130	62.884	
79.00	-65.686	81.378	
80.00	-65.804	108.873	
81.00	-66.484	138.821	
82.00	-66.667	164.832	
83.00	-66.956	-163.348	
84.00	-67.196	-129.859	
85.00	-66.137	-96.971	
86.00	-65.321	-59.499	
87.00	-64.388	-33.976	
88.00	-63.233	-4.166	
89.00	-62.608	21.817	
90.00	-61.701	48.106	
91.00	-61.601	72.581	
92.00	-61.480	97.109	
93.00	-61.551	119.638	
94.00	-61.587	147.667	
95.00	-61.578	176.484	
96.00	-61.780	-154.749	
97.00	-61.835	-124.735	
98.00	-61.320	-99.119	
99.00	-60.541	-67.667	
100.00	-60.704	-53.733	
101.00	-59.341	-18.153	
102.00	-59.032	-11.418	
103.00	-58.418	16.180	
104.00	-57.833	34.902	
105.00	-57.772	59.804	
106.00	-57.347	81.479	
107.00	-57.346	102.379	
108.00	-57.401	129.546	
109.00	-57.333	140.098	
110.00	-57.530	171.561	
111.00	-57.436	175.838	
112.00	-57.391	-154.972	
113.00	-57.424	-131.050	
114.00	-57.325	-111.320	
115.00	-57.189	-72.306	
116.00	-56.899	-62.103	
117.00	-56.451	-28.496	
118.00	-56.345	-13.141	
119.00	-56.072	14.844	
120.00	-55.974	30.806	
121.00	-56.056	56.624	
122.00	-56.046	70.158	
123.00	-56.413	81.975	
124.00	-56.619	102.928	
125.00	-56.884	113.014	
126.00	-57.213	122.130	
127.00	-57.740	146.266	
128.00	-57.770	160.254	
129.00	-58.100	176.840	
130.00	-58.124	-170.161	
131.00	-58.200	-149.753	
132.00	-58.200	-122.377	
133.00	-57.914	-121.419	
134.00	-57.695	-111.128	
135.00	-57.531	-97.900	
136.00	-57.008	-82.443	
137.00	-56.557	-67.950	
138.00	-56.215	-58.757	
139.00	-55.661	-39.523	
140.00	-55.390	-29.961	
141.00	-55.003	-20.597	
142.00	-54.782	-11.547	
143.00	-54.379	5.260	
144.00	-54.195	16.397	
145.00	-53.970	21.421	
146.00	-53.868	33.934	
147.00	-53.883	28.225	
148.00	-53.912	50.118	
149.00	-53.912	43.668	
150.00	-54.039	52.481	
151.00	-54.184	53.982	
152.00	-54.346	60.025	
153.00	-54.365	69.581	
154.00	-54.509	78.252	
155.00	-54.368	85.349	
156.00	-54.599	98.797	
157.00	-54.524	99.553	
158.00	-54.476	106.152	
159.00	-54.341	103.266	
160.00	-54.237	109.188	
161.00	-54.272	117.386	
162.00	-54.243	115.638	
163.00	-54.301	116.834	
164.00	-54.433	120.638	
165.00	-54.502	117.655	
166.00	-54.621	117.070	
167.00	-54.858	113.334	
168.00	-54.987	109.533	
169.00	-55.328	107.929	
170.00	-55.556	104.451	
171.00	-55.819	99.489	
172.00	-55.986	95.066	
173.00	-56.099	91.565	
174.00	-56.209	83.346	
175.00	-56.040	79.987	
176.00	-55.943	77.291	
177.00	-55.841	72.955	
178.00	-55.707	61.937	
179.00	-55.521	56.606	
180.00	-55.558	51.364	
181.00	-55.618	51.691	
182.00	-55.881	39.953	
183.00	-56.075	40.184	
184.00	-56.248	25.994	
185.00	-56.753	26.307	
186.00	-57.475	16.307	
187.00	-57.978	23.272	
188.00	-59.022	14.849	
189.00	-60.158	14.314	
190.00	-61.455	5.666	
191.00	-63.189	-8.187	
192.00	-64.869	-13.608	
193.00	-66.559	-28.800	
194.00	-69.706	-56.550	
195.00	-70.714	-73.120	
196.00	-70.652	-106.489	
197.00	-69.922	-123.257	
198.00	-68.726	-157.507	
199.00	-67.964	-158.960	
200.00	-66.822	179.120	
201.00	-65.254	172.061	
202.00	-64.774	171.200	
203.00	-64.402	158.110	
204.00	-64.189	151.697	
205.00	-63.953	141.499	
206.00	-63.456	130.053	
207.00	-63.397	125.972	
208.00	-63.451	112.941	
209.00	-63.423	105.878	
210.00	-63.356	100.175	
211.00	-63.327	92.465	
212.00	-63.595	82.853	
213.00	-63.908	81.837	
214.00	-63.973	68.428	
215.00	-64.633	68.217	
216.00	-65.026	51.082	
217.00	-65.502	54.954	
218.00	-65.535	53.884	
219.00	-65.783	47.811	
220.00	-65.087	48.924	
221.00	-64.495	40.937	
222.00	-63.466	40.193	
223.00	-62.445	26.146	
224.00	-61.653	24.575	
225.00	-60.924	9.876	
226.00	-60.187	-1.281	
227.00	-59.646	-14.282	
228.00	-59.168	-31.090	
229.00	-58.631	-47.918	
230.00	-58.212	-64.066	
231.00	-58.168	-87.886	
232.00	-57.476	-114.870	
233.00	-57.186	-129.951	
234.00	-56.503	-159.830	
235.00	-56.197	-178.536	
236.00	-55.742	152.629	
237.00	-55.377	125.888	
238.00	-55.167	109.584	
239.00	-54.840	73.656	
240.00	-54.847	59.335	
241.00	-55.008	31.870	
242.00	-55.184	0.231	
243.00	-55.394	-21.381	
244.00	-55.776	-54.703	
245.00	-56.237	-81.147	
246.00	-56.530	-118.622	
247.00	-56.930	-145.057	
248.00	-57.161	-158.130	
249.00	-56.833	157.292	
250.00	-57.374	170.808	
251.00	-57.408	112.258	
252.00	-57.293	77.974	
253.00	-57.757	56.341	
254.00	-57.762	11.425	
255.00	-58.427	6.471	
256.00	-59.118	-40.451	
257.00	-59.831	-63.454	
258.00	-60.580	-92.546	
259.00	-61.270	-124.644	
260.00	-61.879	-153.018	
261.00	-62.027	172.496	
262.00	-61.760	136.822	
263.00	-61.618	114.717	
264.00	-61.481	72.738	
265.00	-61.957	59.565	
266.00	-62.328	22.864	
267.00	-63.018	-5.874	
268.00	-63.493	-22.232	
269.00	-64.743	-55.299	
270.00	-65.309	-77.601	
271.00	-66.129	-119.210	
272.00	-66.743	-146.691	
273.00	-66.735	169.963	
274.00	-66.365	137.304	
275.00	-65.812	105.449	
276.00	-65.119	76.781	
277.00	-65.126	49.949	
278.00	-65.356	18.401	
279.00	-65.880	-4.440	
280.00	-66.723	-34.883	
281.00	-67.950	-64.618	
282.00	-69.277	-96.893	
283.00	-69.386	-136.094	
284.00	-68.898	-173.977	
285.00	-67.729	153.018	
286.00	-66.918	118.989	
287.00	-66.183	94.902	
288.00	-65.929	71.656	
289.00	-65.933	54.370	
290.00	-66.521	26.088	
291.00	-67.409	7.531	
292.00	-69.799	-26.103	
293.00	-71.968	-45.599	
294.00	-74.368	-95.553	
295.00	-77.323	-138.602	
296.00	-74.612	174.902	
297.00	-72.533	140.154	
298.00	-71.282	114.919	
299.00	-69.654	86.963	
300.00	-70.032	73.991	
301.00	-70.108	52.797	
302.00	-70.556	35.091	
303.00	-73.087	19.084	
304.00	-74.564	5.621	
305.00	-79.544	0.413	
306.00	-90.174	-37.492	
307.00	-88.574	142.925	
308.00	-81.098	106.351	
309.00	-77.495	90.013	
310.00	-76.351	73.901	
311.00	-75.060	69.042	
312.00	-75.423	50.048	
313.00	-76.709	17.956	
314.00	-79.283	3.934	
315.00	-81.252	-11.824	
316.00	-81.301	-47.517	
317.00	-84.452	-95.951	
318.00	-87.379	-159.884	
319.00	-84.566	144.435	
320.00	-78.956	136.475	
321.00	-76.534	110.076	
322.00	-75.819	100.049	
323.00	-73.864	75.581	
324.00	-74.498	68.655	
325.00	-74.396	46.083	
326.00	-75.061	35.976	
327.00	-75.877	34.021	
328.00	-79.349	12.585	
329.00	-79.219	25.385	
330.00	-81.841	20.220	
331.00	-82.949	49.113	
332.00	-84.493	72.703	
333.00	-81.422	76.403	
334.00	-82.556	82.461	
335.00	-79.479	89.244	
336.00	-79.405	88.226	
337.00	-79.163	68.706	
338.00	-78.612	75.104	
339.00	-78.586	80.959	
340.00	-79.756	62.321	
341.00	-79.540	53.288	
342.00	-82.773	55.666	
343.00	-84.679	45.026	
344.00	-86.389	47.221	
345.00	-88.978	-28.249	
346.00	-87.516	-7.552	
347.00	-89.379	-39.785	
348.00	-81.656	-45.648	
349.00	-81.278	-39.663	
350.00	-80.272	-29.229	
351.00	-81.183	-40.958	
352.00	-82.398	-52.448	
353.00	-79.777	-27.961	
354.00	-79.634	-18.306	
355.00	-77.925	3.576	
356.00	-77.749	-2.758	
357.00	-76.791	14.959	
358.00	-76.145	39.237	
359.00	-74.020	46.046	
Frequency	3550.00	MHz	
Channel	test		
Scan Axis name	Azimuth  [deg]		
Scan Axis	Amplitude	Phase	
			
0.00	-75.632	77.170	
1.00	-74.720	103.145	
2.00	-74.646	112.019	
3.00	-73.974	130.866	
4.00	-74.431	145.141	
5.00	-74.800	162.432	
6.00	-74.281	-176.081	
7.00	-74.063	-175.020	
8.00	-73.812	-144.657	
9.00	-75.181	-136.818	
10.00	-74.071	-121.084	
11.00	-75.239	-106.518	
12.00	-75.119	-80.306	
13.00	-74.736	-87.172	
14.00	-75.206	-65.597	
15.00	-75.121	-66.792	
16.00	-76.041	-29.398	
17.00	-75.025	-29.803	
18.00	-76.217	-12.451	
19.00	-76.122	10.601	
20.00	-75.585	27.040	
21.00	-75.530	54.626	
22.00	-76.853	68.497	
23.00	-75.569	110.201	
24.00	-75.313	137.038	
25.00	-75.384	172.112	
26.00	-73.399	-166.347	
27.00	-73.604	-135.983	
28.00	-74.153	-109.840	
29.00	-73.754	-83.045	
30.00	-72.798	-76.073	
31.00	-73.521	-45.902	
32.00	-73.911	-22.117	
33.00	-72.313	-1.011	
34.00	-73.169	20.850	
35.00	-72.292	48.721	
36.00	-72.963	76.031	
37.00	-71.654	109.210	
38.00	-71.829	123.427	
39.00	-72.581	160.719	
40.00	-71.561	-157.906	
41.00	-71.591	-146.545	
42.00	-71.726	-112.194	
43.00	-71.478	-98.170	
44.00	-73.091	-60.811	
45.00	-73.412	-37.157	
46.00	-73.445	-6.060	
47.00	-74.224	4.942	
48.00	-74.012	42.675	
49.00	-72.437	70.741	
50.00	-73.544	105.298	
51.00	-72.734	136.386	
52.00	-72.915	157.847	
53.00	-72.574	-172.033	
54.00	-72.182	-146.976	
55.00	-72.692	-128.411	
56.00	-72.756	-96.477	
57.00	-74.988	-76.913	
58.00	-73.960	-45.794	
59.00	-76.044	-12.356	
60.00	-78.460	21.835	
61.00	-77.396	52.840	
62.00	-75.119	87.877	
63.00	-74.500	120.460	
64.00	-71.865	150.972	
65.00	-71.342	160.178	
66.00	-70.882	-165.495	
67.00	-70.046	-155.687	
68.00	-68.974	-131.389	
69.00	-69.752	-113.593	
70.00	-69.762	-89.165	
71.00	-70.451	-47.498	
72.00	-70.273	-31.756	
73.00	-70.643	17.881	
74.00	-69.649	41.783	
75.00	-69.508	76.706	
76.00	-68.639	106.399	
77.00	-67.173	140.463	
78.00	-66.578	169.812	
79.00	-65.442	-165.454	
80.00	-64.757	-138.897	
81.00	-64.326	-106.691	
82.00	-63.819	-81.042	
83.00	-63.748	-57.593	
84.00	-63.563	-28.780	
85.00	-63.574	-2.010	
86.00	-63.323	29.363	
87.00	-63.595	59.951	
88.00	-63.228	90.728	
89.00	-62.533	117.802	
90.00	-61.996	149.139	
91.00	-61.531	176.107	
92.00	-61.178	-152.196	
93.00	-60.715	-128.605	
94.00	-60.411	-100.970	
95.00	-59.781	-74.385	
96.00	-59.781	-46.182	
97.00	-59.527	-17.512	
98.00	-59.249	4.314	
99.00	-58.979	35.579	
100.00	-58.712	51.036	
101.00	-58.289	89.035	
102.00	-57.746	93.892	
103.00	-57.485	124.264	
104.00	-56.995	143.986	
105.00	-56.662	171.688	
106.00	-56.228	-165.223	
107.00	-56.028	-145.226	
108.00	-55.785	-116.219	
109.00	-55.595	-106.062	
110.00	-55.590	-75.023	
111.00	-55.734	-72.128	
112.00	-55.771	-42.719	
113.00	-55.724	-19.547	
114.00	-55.902	1.048	
115.00	-55.770	37.677	
116.00	-55.702	49.796	
117.00	-55.569	85.197	
118.00	-55.463	102.471	
119.00	-55.187	133.618	
120.00	-55.201	150.008	
121.00	-55.032	177.767	
122.00	-55.143	-166.345	
123.00	-55.355	-153.838	
124.00	-55.332	-130.588	
125.00	-55.588	-120.741	
126.00	-55.830	-109.075	
127.00	-56.316	-85.293	
128.00	-56.652	-69.149	
129.00	-57.071	-52.853	
130.00	-57.556	-39.993	
131.00	-57.906	-19.204	
132.00	-58.097	8.614	
133.00	-58.454	9.983	
134.00	-58.688	20.176	
135.00	-58.686	30.476	
136.00	-58.659	45.592	
137.00	-58.566	58.285	
138.00	-58.303	67.060	
139.00	-58.141	84.704	
140.00	-58.007	92.708	
141.00	-57.598	100.702	
142.00	-57.443	109.724	
143.00	-57.200	127.242	
144.00	-57.116	139.068	
145.00	-56.815	143.332	
146.00	-56.791	156.726	
147.00	-56.785	147.796	
148.00	-56.873	172.569	
149.00	-56.959	162.914	
150.00	-57.185	172.061	
151.00	-57.426	170.630	
152.00	-57.639	177.006	
153.00	-57.647	-175.541	
154.00	-58.018	-167.046	
155.00	-57.865	-163.331	
156.00	-57.946	-151.680	
157.00	-57.610	-154.158	
158.00	-57.262	-148.831	
159.00	-56.866	-153.614	
160.00	-56.255	-148.845	
161.00	-56.009	-141.203	
162.00	-55.670	-142.449	
163.00	-55.364	-141.716	
164.00	-55.168	-137.994	
165.00	-54.941	-139.810	
166.00	-55.070	-140.121	
167.00	-55.032	-141.408	
168.00	-55.185	-145.402	
169.00	-55.373	-145.593	
170.00	-55.483	-148.460	
171.00	-56.002	-152.217	
172.00	-56.124	-156.564	
173.00	-56.398	-158.836	
174.00	-56.606	-165.273	
175.00	-56.602	-168.632	
176.00	-56.730	-174.927	
177.00	-56.577	-179.871	
178.00	-56.406	168.650	
179.00	-56.260	161.843	
180.00	-56.075	155.327	
181.00	-56.002	152.245	
182.00	-55.894	140.646	
183.00	-55.825	138.558	
184.00	-55.844	124.362	
185.00	-55.976	125.160	
186.00	-56.344	114.497	
187.00	-56.655	120.384	
188.00	-57.102	112.255	
189.00	-57.788	110.598	
190.00	-58.400	101.548	
191.00	-59.071	90.423	
192.00	-59.812	83.092	
193.00	-60.541	69.374	
194.00	-61.424	51.675	
195.00	-62.221	45.360	
196.00	-62.408	26.892	
197.00	-62.700	16.573	
198.00	-62.395	-3.791	
199.00	-62.105	-10.029	
200.00	-61.846	-31.765	
201.00	-61.358	-39.622	
202.00	-60.768	-46.124	
203.00	-60.255	-62.070	
204.00	-59.721	-70.883	
205.00	-59.448	-83.461	
206.00	-58.891	-98.790	
207.00	-58.910	-106.912	
208.00	-58.717	-123.076	
209.00	-58.653	-131.965	
210.00	-58.853	-143.279	
211.00	-59.306	-152.311	
212.00	-59.660	-166.941	
213.00	-60.332	-174.852	
214.00	-61.383	165.783	
215.00	-62.656	160.754	
216.00	-64.753	135.025	
217.00	-66.992	129.404	
218.00	-70.513	125.661	
219.00	-78.959	117.407	
220.00	-78.537	-156.868	
221.00	-72.702	-155.279	
222.00	-68.639	-157.007	
223.00	-65.660	-178.899	
224.00	-63.588	175.344	
225.00	-61.904	151.883	
226.00	-60.780	136.490	
227.00	-59.689	118.631	
228.00	-58.505	97.767	
229.00	-57.619	77.059	
230.00	-56.658	59.469	
231.00	-55.864	35.744	
232.00	-55.193	9.322	
233.00	-54.650	-5.279	
234.00	-54.168	-34.784	
235.00	-53.812	-50.909	
236.00	-53.483	-81.058	
237.00	-53.395	-108.838	
238.00	-53.333	-125.770	
239.00	-53.385	-162.154	
240.00	-53.409	-177.594	
241.00	-53.649	151.578	
242.00	-53.916	119.445	
243.00	-54.163	97.162	
244.00	-54.343	61.654	
245.00	-54.656	34.042	
246.00	-54.905	-2.485	
247.00	-55.161	-26.710	
248.00	-55.445	-39.143	
249.00	-55.454	-83.666	
250.00	-55.776	-68.392	
251.00	-56.574	-129.385	
252.00	-56.376	-161.695	
253.00	-57.410	173.784	
254.00	-57.610	128.756	
255.00	-58.458	119.077	
256.00	-59.029	71.204	
257.00	-59.502	44.416	
258.00	-60.035	18.399	
259.00	-60.489	-13.362	
260.00	-60.997	-38.185	
261.00	-60.948	-71.304	
262.00	-61.554	-104.634	
263.00	-62.454	-125.694	
264.00	-62.871	-167.667	
265.00	-63.641	177.642	
266.00	-64.938	134.045	
267.00	-65.636	100.483	
268.00	-66.436	77.726	
269.00	-67.402	40.781	
270.00	-67.686	15.285	
271.00	-67.499	-27.974	
272.00	-67.516	-53.365	
273.00	-67.675	-87.305	
274.00	-67.659	-115.409	
275.00	-67.846	-153.105	
276.00	-68.355	176.517	
277.00	-69.269	140.199	
278.00	-69.232	99.168	
279.00	-68.966	69.668	
280.00	-68.817	32.071	
281.00	-68.260	-3.751	
282.00	-67.702	-34.338	
283.00	-66.895	-60.740	
284.00	-67.618	-85.880	
285.00	-67.521	-117.878	
286.00	-67.809	-145.056	
287.00	-68.049	-172.921	
288.00	-67.744	155.372	
289.00	-68.774	130.978	
290.00	-69.246	93.577	
291.00	-69.389	65.713	
292.00	-69.936	26.398	
293.00	-70.560	-5.260	
294.00	-70.589	-39.902	
295.00	-70.008	-71.076	
296.00	-70.689	-100.338	
297.00	-70.601	-126.561	
298.00	-71.392	-151.141	
299.00	-72.962	-179.366	
300.00	-72.839	157.722	
301.00	-75.354	119.353	
302.00	-77.499	87.336	
303.00	-78.659	33.588	
304.00	-79.364	-4.424	
305.00	-77.451	-50.232	
306.00	-74.379	-86.238	
307.00	-73.287	-114.267	
308.00	-72.864	-136.197	
309.00	-72.464	-157.524	
310.00	-73.234	176.213	
311.00	-73.359	163.977	
312.00	-76.965	128.469	
313.00	-76.447	96.365	
314.00	-78.298	51.848	
315.00	-78.082	21.499	
316.00	-76.120	-14.474	
317.00	-75.979	-39.194	
318.00	-74.821	-60.289	
319.00	-75.682	-84.888	
320.00	-74.363	-103.712	
321.00	-74.039	-128.503	
322.00	-77.127	-147.647	
323.00	-77.377	-167.422	
324.00	-80.575	168.456	
325.00	-82.982	143.466	
326.00	-88.219	112.974	
327.00	-96.943	102.815	
328.00	-86.739	-72.775	
329.00	-86.495	-48.757	
330.00	-84.531	-89.705	
331.00	-84.383	-101.204	
332.00	-80.392	-111.442	
333.00	-78.797	-134.869	
334.00	-76.736	-138.273	
335.00	-76.138	-149.376	
336.00	-78.331	-153.142	
337.00	-75.884	-163.838	
338.00	-79.156	-174.436	
339.00	-79.959	-170.085	
340.00	-83.100	-167.956	
341.00	-94.376	178.528	
342.00	-97.405	-123.191	
343.00	-86.427	-66.677	
344.00	-85.695	-30.806	
345.00	-81.099	-81.192	
346.00	-79.753	-57.886	
347.00	-77.927	-63.794	
348.00	-79.472	-50.031	
349.00	-80.923	-25.308	
350.00	-79.599	-9.232	
351.00	-78.847	-22.390	
352.00	-81.012	-20.287	
353.00	-80.633	28.171	
354.00	-83.115	24.593	
355.00	-78.557	48.161	
356.00	-77.363	54.900	
357.00	-76.783	73.919	
358.00	-76.253	97.033	
359.00	-75.575	104.911	
Frequency	3600.00	MHz	
Channel	test		
Scan Axis name	Azimuth  [deg]		
Scan Axis	Amplitude	Phase	
			
0.00	-75.177	126.558	
1.00	-75.330	148.261	
2.00	-75.245	142.798	
3.00	-77.715	174.389	
4.00	-77.249	171.902	
5.00	-79.143	-158.480	
6.00	-80.226	-119.433	
7.00	-81.243	-100.722	
8.00	-78.376	-42.924	
9.00	-77.651	-25.407	
10.00	-74.884	-6.848	
11.00	-74.855	5.338	
12.00	-72.974	12.090	
13.00	-71.992	5.892	
14.00	-72.292	24.650	
15.00	-72.046	26.643	
16.00	-73.413	42.707	
17.00	-72.455	46.152	
18.00	-72.596	56.117	
19.00	-74.536	74.341	
20.00	-73.719	103.647	
21.00	-74.634	129.314	
22.00	-73.821	139.271	
23.00	-74.379	-178.663	
24.00	-76.121	-154.660	
25.00	-73.679	-111.207	
26.00	-73.110	-88.188	
27.00	-71.996	-49.692	
28.00	-71.760	-25.607	
29.00	-71.088	-11.110	
30.00	-70.814	-3.962	
31.00	-69.741	19.842	
32.00	-70.798	37.387	
33.00	-70.551	56.399	
34.00	-69.991	84.880	
35.00	-70.964	103.305	
36.00	-70.666	126.470	
37.00	-70.911	156.174	
38.00	-73.102	175.945	
39.00	-73.078	-133.637	
40.00	-72.144	-81.017	
41.00	-72.423	-71.755	
42.00	-71.443	-30.367	
43.00	-71.751	-11.061	
44.00	-71.679	24.051	
45.00	-71.335	44.087	
46.00	-71.556	71.711	
47.00	-71.266	79.921	
48.00	-71.923	105.070	
49.00	-72.127	139.365	
50.00	-73.396	169.024	
51.00	-72.627	-155.744	
52.00	-74.003	-136.022	
53.00	-73.984	-102.358	
54.00	-74.628	-53.559	
55.00	-73.907	-29.956	
56.00	-73.283	-11.527	
57.00	-73.153	17.058	
58.00	-74.503	54.752	
59.00	-73.692	64.467	
60.00	-74.313	103.667	
61.00	-75.755	129.092	
62.00	-75.889	171.948	
63.00	-72.352	-165.653	
64.00	-71.874	-126.316	
65.00	-73.909	-112.285	
66.00	-71.963	-80.075	
67.00	-71.560	-60.590	
68.00	-70.681	-29.601	
69.00	-71.038	-14.572	
70.00	-70.526	4.100	
71.00	-70.373	42.199	
72.00	-69.818	60.873	
73.00	-71.028	101.250	
74.00	-70.460	121.553	
75.00	-71.769	159.356	
76.00	-72.756	-157.606	
77.00	-69.972	-125.445	
78.00	-69.451	-96.441	
79.00	-68.275	-68.725	
80.00	-67.273	-45.764	
81.00	-67.219	-5.793	
82.00	-66.161	15.091	
83.00	-65.333	37.599	
84.00	-65.490	60.845	
85.00	-65.271	89.207	
86.00	-65.325	122.573	
87.00	-65.458	143.476	
88.00	-65.017	177.401	
89.00	-64.938	-150.592	
90.00	-64.648	-116.089	
91.00	-64.038	-86.102	
92.00	-63.321	-54.139	
93.00	-62.849	-30.354	
94.00	-62.163	-4.042	
95.00	-61.930	24.953	
96.00	-61.592	47.972	
97.00	-61.440	74.849	
98.00	-60.879	100.868	
99.00	-60.497	129.543	
100.00	-60.386	143.621	
101.00	-59.891	179.039	
102.00	-59.546	-177.309	
103.00	-59.593	-142.925	
104.00	-59.003	-123.731	
105.00	-58.816	-96.117	
106.00	-58.177	-71.042	
107.00	-58.073	-49.640	
108.00	-57.612	-22.300	
109.00	-57.295	-10.219	
110.00	-57.158	20.312	
111.00	-57.120	23.404	
112.00	-57.280	54.231	
113.00	-56.990	75.507	
114.00	-56.999	96.706	
115.00	-57.082	132.518	
116.00	-56.740	144.651	
117.00	-56.790	179.674	
118.00	-56.653	-163.799	
119.00	-56.459	-130.470	
120.00	-56.359	-114.731	
121.00	-56.254	-83.900	
122.00	-56.271	-68.013	
123.00	-56.255	-53.608	
124.00	-56.269	-29.821	
125.00	-56.558	-17.580	
126.00	-56.593	-6.047	
127.00	-56.773	20.472	
128.00	-57.061	33.839	
129.00	-57.545	54.485	
130.00	-57.707	67.457	
131.00	-58.139	87.510	
132.00	-58.359	114.194	
133.00	-58.779	114.486	
134.00	-59.275	125.293	
135.00	-59.325	134.801	
136.00	-59.494	147.892	
137.00	-59.407	160.665	
138.00	-59.360	167.879	
139.00	-58.841	-175.150	
140.00	-58.566	-165.014	
141.00	-58.013	-159.584	
142.00	-57.496	-147.743	
143.00	-57.019	-132.126	
144.00	-56.490	-118.715	
145.00	-56.376	-113.333	
146.00	-55.784	-99.442	
147.00	-55.602	-105.861	
148.00	-55.513	-79.548	
149.00	-55.369	-86.451	
150.00	-55.554	-74.071	
151.00	-55.537	-73.214	
152.00	-55.817	-62.069	
153.00	-56.141	-53.113	
154.00	-56.486	-42.134	
155.00	-56.893	-34.497	
156.00	-57.442	-20.958	
157.00	-57.763	-22.940	
158.00	-57.774	-17.951	
159.00	-57.968	-26.514	
160.00	-57.865	-23.181	
161.00	-57.645	-17.986	
162.00	-56.934	-22.654	
163.00	-56.550	-24.072	
164.00	-55.984	-20.318	
165.00	-55.367	-23.487	
166.00	-54.960	-24.217	
167.00	-54.714	-25.717	
168.00	-54.544	-27.691	
169.00	-54.377	-26.515	
170.00	-54.423	-27.092	
171.00	-54.525	-28.000	
172.00	-54.732	-29.159	
173.00	-55.172	-29.087	
174.00	-55.592	-32.667	
175.00	-56.022	-33.303	
176.00	-56.520	-37.317	
177.00	-57.174	-42.533	
178.00	-57.536	-54.380	
179.00	-57.907	-64.973	
180.00	-58.139	-73.280	
181.00	-58.210	-80.175	
182.00	-58.064	-95.466	
183.00	-57.995	-101.956	
184.00	-57.790	-118.087	
185.00	-57.652	-121.679	
186.00	-57.410	-133.539	
187.00	-57.434	-129.093	
188.00	-57.548	-138.655	
189.00	-57.615	-140.097	
190.00	-57.790	-147.830	
191.00	-57.953	-160.023	
192.00	-58.178	-164.861	
193.00	-58.522	-176.466	
194.00	-58.794	170.709	
195.00	-59.001	165.954	
196.00	-59.299	156.006	
197.00	-59.588	147.840	
198.00	-60.036	130.894	
199.00	-60.169	129.130	
200.00	-60.383	108.174	
201.00	-60.545	102.685	
202.00	-60.365	96.005	
203.00	-60.098	79.468	
204.00	-60.056	68.753	
205.00	-59.823	54.033	
206.00	-59.728	37.371	
207.00	-59.510	26.624	
208.00	-59.337	9.995	
209.00	-59.276	-1.043	
210.00	-59.169	-12.571	
211.00	-59.195	-24.744	
212.00	-59.495	-40.036	
213.00	-59.587	-49.405	
214.00	-60.207	-68.338	
215.00	-60.627	-74.193	
216.00	-61.172	-102.641	
217.00	-62.067	-102.220	
218.00	-62.852	-108.223	
219.00	-64.000	-126.767	
220.00	-65.148	-128.273	
221.00	-65.634	-136.684	
222.00	-66.112	-132.288	
223.00	-65.326	-139.537	
224.00	-64.180	-132.718	
225.00	-62.988	-147.067	
226.00	-61.789	-151.887	
227.00	-60.673	-164.095	
228.00	-59.635	179.568	
229.00	-58.802	164.896	
230.00	-57.789	150.000	
231.00	-57.060	127.463	
232.00	-56.309	103.105	
233.00	-55.859	89.864	
234.00	-55.460	61.834	
235.00	-55.166	46.833	
236.00	-54.932	16.388	
237.00	-54.627	-10.703	
238.00	-54.643	-27.910	
239.00	-54.589	-64.590	
240.00	-54.638	-78.340	
241.00	-54.812	-109.719	
242.00	-54.931	-140.868	
243.00	-55.277	-164.482	
244.00	-55.177	163.443	
245.00	-55.491	135.767	
246.00	-55.774	100.967	
247.00	-56.050	77.318	
248.00	-56.376	65.083	
249.00	-56.631	21.868	
250.00	-57.038	37.404	
251.00	-58.017	-22.839	
252.00	-58.036	-53.619	
253.00	-59.300	-81.292	
254.00	-59.592	-125.288	
255.00	-60.529	-135.318	
256.00	-60.910	177.075	
257.00	-61.546	150.656	
258.00	-62.103	125.743	
259.00	-62.689	96.324	
260.00	-63.080	70.966	
261.00	-64.073	41.095	
262.00	-64.773	8.037	
263.00	-66.029	-9.852	
264.00	-67.316	-52.580	
265.00	-69.009	-65.361	
266.00	-70.744	-110.429	
267.00	-74.243	-150.129	
268.00	-75.217	-165.893	
269.00	-76.095	136.926	
270.00	-75.756	96.330	
271.00	-74.936	63.313	
272.00	-75.058	31.837	
273.00	-75.212	-2.057	
274.00	-75.019	-40.745	
275.00	-76.055	-85.773	
276.00	-76.497	-120.035	
277.00	-76.573	-176.906	
278.00	-74.410	145.527	
279.00	-72.608	115.980	
280.00	-71.611	79.033	
281.00	-70.562	55.941	
282.00	-70.412	31.955	
283.00	-71.110	3.435	
284.00	-71.299	-24.232	
285.00	-71.592	-59.968	
286.00	-71.819	-95.337	
287.00	-71.931	-131.982	
288.00	-71.602	-163.469	
289.00	-71.228	169.504	
290.00	-70.572	130.941	
291.00	-70.091	109.044	
292.00	-70.272	79.727	
293.00	-70.459	54.816	
294.00	-71.027	20.398	
295.00	-72.501	-6.108	
296.00	-73.560	-37.425	
297.00	-74.912	-79.722	
298.00	-75.104	-109.684	
299.00	-74.343	-154.402	
300.00	-74.743	170.768	
301.00	-73.730	132.911	
302.00	-72.497	104.925	
303.00	-71.479	63.965	
304.00	-71.648	40.428	
305.00	-71.005	11.010	
306.00	-70.510	-25.556	
307.00	-70.912	-46.253	
308.00	-70.151	-79.820	
309.00	-70.372	-107.161	
310.00	-70.799	-132.816	
311.00	-70.948	-156.441	
312.00	-71.392	177.841	
313.00	-71.212	138.035	
314.00	-71.553	107.705	
315.00	-70.806	87.493	
316.00	-71.464	59.909	
317.00	-71.469	31.923	
318.00	-72.343	6.278	
319.00	-71.640	-19.198	
320.00	-71.815	-40.895	
321.00	-72.458	-66.856	
322.00	-73.303	-93.723	
323.00	-73.229	-133.866	
324.00	-74.672	-146.341	
325.00	-74.846	148.663	
326.00	-74.409	121.791	
327.00	-75.023	123.282	
328.00	-74.242	76.395	
329.00	-75.950	71.499	
330.00	-75.838	45.927	
331.00	-78.351	39.707	
332.00	-77.785	23.436	
333.00	-78.823	-5.418	
334.00	-82.333	-25.872	
335.00	-84.918	-43.599	
336.00	-84.522	-83.899	
337.00	-85.627	-119.422	
338.00	-92.586	169.774	
339.00	-84.076	139.931	
340.00	-82.006	126.825	
341.00	-78.182	93.892	
342.00	-76.949	73.483	
343.00	-76.982	60.144	
344.00	-74.519	59.277	
345.00	-73.402	25.993	
346.00	-72.933	24.290	
347.00	-72.312	9.221	
348.00	-72.829	19.411	
349.00	-73.278	27.461	
350.00	-74.300	24.738	
351.00	-75.317	8.029	
352.00	-76.457	9.172	
353.00	-78.487	26.895	
354.00	-81.251	45.370	
355.00	-82.768	83.744	
356.00	-81.407	111.190	
357.00	-79.405	141.375	
358.00	-78.602	165.367	
359.00	-76.762	166.299	
Frequency	3650.00	MHz	
Channel	test		
Scan Axis name	Azimuth  [deg]		
Scan Axis	Amplitude	Phase	
			
0.00	-74.075	167.894	
1.00	-75.480	-174.027	
2.00	-76.688	-162.470	
3.00	-77.210	-161.326	
4.00	-81.987	-154.516	
5.00	-85.168	-155.424	
6.00	-99.953	50.101	
7.00	-80.247	68.619	
8.00	-77.543	77.024	
9.00	-75.455	75.805	
10.00	-72.908	85.728	
11.00	-71.399	90.044	
12.00	-71.669	96.163	
13.00	-70.749	86.003	
14.00	-70.197	92.448	
15.00	-71.787	98.378	
16.00	-72.028	116.266	
17.00	-72.541	117.869	
18.00	-73.045	134.051	
19.00	-74.305	156.036	
20.00	-75.096	-174.067	
21.00	-74.446	-143.607	
22.00	-72.585	-120.001	
23.00	-70.792	-82.293	
24.00	-70.499	-71.932	
25.00	-69.254	-32.214	
26.00	-69.658	-15.561	
27.00	-68.576	20.726	
28.00	-67.745	41.663	
29.00	-68.023	59.005	
30.00	-67.618	69.818	
31.00	-68.252	83.041	
32.00	-69.086	110.155	
33.00	-69.609	124.506	
34.00	-70.548	154.589	
35.00	-69.422	179.217	
36.00	-70.645	-151.635	
37.00	-70.132	-114.188	
38.00	-71.309	-86.756	
39.00	-70.073	-48.176	
40.00	-69.333	-1.060	
41.00	-68.648	1.821	
42.00	-68.973	39.462	
43.00	-68.481	56.203	
44.00	-69.365	86.736	
45.00	-70.222	111.162	
46.00	-71.750	143.972	
47.00	-72.046	153.615	
48.00	-71.823	-167.506	
49.00	-72.903	-131.959	
50.00	-73.207	-94.273	
51.00	-70.903	-51.969	
52.00	-71.316	-20.980	
53.00	-71.276	16.723	
54.00	-69.848	31.626	
55.00	-70.996	54.854	
56.00	-70.998	81.746	
57.00	-70.756	97.847	
58.00	-71.768	130.155	
59.00	-71.267	156.584	
60.00	-73.649	-153.624	
61.00	-74.462	-150.980	
62.00	-71.967	-88.679	
63.00	-71.888	-61.192	
64.00	-70.413	-9.942	
65.00	-72.672	-14.222	
66.00	-72.117	24.778	
67.00	-70.557	28.779	
68.00	-69.072	66.638	
69.00	-69.879	66.625	
70.00	-69.133	109.325	
71.00	-72.899	137.725	
72.00	-72.256	153.613	
73.00	-73.342	-148.527	
74.00	-71.815	-131.120	
75.00	-70.225	-83.748	
76.00	-71.780	-48.029	
77.00	-68.607	-22.047	
78.00	-68.346	6.904	
79.00	-67.023	29.724	
80.00	-66.235	53.722	
81.00	-65.802	81.352	
82.00	-66.243	101.167	
83.00	-65.969	122.952	
84.00	-66.393	150.459	
85.00	-68.369	-176.718	
86.00	-67.730	-151.491	
87.00	-68.300	-110.713	
88.00	-67.614	-72.451	
89.00	-66.465	-41.233	
90.00	-65.824	-9.005	
91.00	-64.323	17.413	
92.00	-62.945	40.938	
93.00	-62.889	62.623	
94.00	-62.386	92.689	
95.00	-62.520	115.987	
96.00	-62.120	143.227	
97.00	-62.424	167.786	
98.00	-62.303	-167.776	
99.00	-61.871	-133.267	
100.00	-61.515	-116.634	
101.00	-61.237	-77.319	
102.00	-60.704	-74.571	
103.00	-59.790	-39.580	
104.00	-59.526	-22.781	
105.00	-58.890	7.163	
106.00	-58.424	29.278	
107.00	-57.983	51.581	
108.00	-57.747	79.572	
109.00	-57.715	90.672	
110.00	-57.391	121.936	
111.00	-57.209	124.402	
112.00	-57.631	156.859	
113.00	-57.303	177.736	
114.00	-57.388	-160.273	
115.00	-57.253	-122.665	
116.00	-57.135	-110.633	
117.00	-56.967	-73.364	
118.00	-56.807	-55.773	
119.00	-56.599	-22.216	
120.00	-56.358	-3.730	
121.00	-56.344	23.919	
122.00	-56.351	39.727	
123.00	-56.390	55.526	
124.00	-56.437	79.445	
125.00	-56.757	87.149	
126.00	-57.210	102.113	
127.00	-57.503	128.716	
128.00	-57.859	144.709	
129.00	-58.519	162.469	
130.00	-58.958	176.824	
131.00	-59.445	-160.201	
132.00	-60.188	-132.584	
133.00	-60.556	-134.789	
134.00	-60.548	-123.072	
135.00	-61.382	-113.292	
136.00	-61.303	-100.805	
137.00	-60.855	-87.323	
138.00	-60.561	-84.513	
139.00	-59.837	-67.188	
140.00	-58.854	-59.976	
141.00	-58.114	-53.955	
142.00	-57.442	-41.867	
143.00	-56.594	-25.702	
144.00	-55.784	-11.636	
145.00	-55.241	-7.361	
146.00	-54.773	7.531	
147.00	-54.363	3.060	
148.00	-54.134	29.704	
149.00	-53.776	22.785	
150.00	-53.962	37.338	
151.00	-53.821	40.078	
152.00	-54.219	52.123	
153.00	-54.261	62.850	
154.00	-54.706	76.775	
155.00	-55.001	85.154	
156.00	-55.526	102.801	
157.00	-55.882	100.600	
158.00	-56.386	109.643	
159.00	-56.831	103.391	
160.00	-57.289	108.275	
161.00	-57.392	111.545	
162.00	-57.185	106.740	
163.00	-56.932	104.926	
164.00	-56.459	105.095	
165.00	-56.134	100.510	
166.00	-55.847	99.087	
167.00	-55.381	96.693	
168.00	-55.293	94.617	
169.00	-55.010	95.913	
170.00	-55.112	94.994	
171.00	-55.318	92.642	
172.00	-55.379	92.625	
173.00	-55.677	91.802	
174.00	-55.919	89.389	
175.00	-56.416	86.807	
176.00	-56.865	85.544	
177.00	-57.373	77.995	
178.00	-57.723	67.832	
179.00	-58.097	58.884	
180.00	-58.233	49.922	
181.00	-58.508	42.954	
182.00	-58.381	28.455	
183.00	-58.196	22.892	
184.00	-57.941	4.975	
185.00	-57.875	2.959	
186.00	-57.648	-8.129	
187.00	-57.669	-4.171	
188.00	-57.645	-12.148	
189.00	-57.561	-12.715	
190.00	-57.762	-21.337	
191.00	-58.157	-32.436	
192.00	-58.513	-36.142	
193.00	-59.116	-44.893	
194.00	-59.579	-57.238	
195.00	-60.401	-61.133	
196.00	-60.778	-71.454	
197.00	-61.502	-80.991	
198.00	-62.195	-100.506	
199.00	-62.282	-102.704	
200.00	-62.501	-130.105	
201.00	-62.503	-137.892	
202.00	-62.139	-145.073	
203.00	-61.661	-164.899	
204.00	-61.098	-175.826	
205.00	-60.912	167.711	
206.00	-60.358	152.330	
207.00	-60.091	140.055	
208.00	-59.802	121.288	
209.00	-59.270	111.717	
210.00	-59.140	99.612	
211.00	-59.027	87.114	
212.00	-58.905	71.560	
213.00	-59.090	62.365	
214.00	-59.081	42.649	
215.00	-59.371	35.251	
216.00	-60.110	8.571	
217.00	-60.537	5.406	
218.00	-60.801	-2.270	
219.00	-61.647	-21.377	
220.00	-62.093	-25.368	
221.00	-63.031	-38.947	
222.00	-63.304	-36.628	
223.00	-63.555	-48.888	
224.00	-63.324	-47.839	
225.00	-62.625	-60.659	
226.00	-62.108	-64.872	
227.00	-61.329	-74.712	
228.00	-60.656	-89.127	
229.00	-59.800	-105.282	
230.00	-58.982	-118.681	
231.00	-58.182	-140.751	
232.00	-57.593	-165.056	
233.00	-57.084	-176.380	
234.00	-56.480	153.730	
235.00	-56.304	138.158	
236.00	-56.078	108.458	
237.00	-55.747	80.818	
238.00	-55.615	65.443	
239.00	-55.534	28.516	
240.00	-55.570	14.018	
241.00	-55.834	-17.296	
242.00	-56.085	-48.994	
243.00	-56.379	-72.075	
244.00	-56.550	-105.754	
245.00	-56.945	-133.909	
246.00	-57.319	-170.129	
247.00	-57.634	164.504	
248.00	-58.128	151.828	
249.00	-58.150	108.247	
250.00	-58.616	123.959	
251.00	-59.307	59.711	
252.00	-59.392	32.594	
253.00	-60.453	2.019	
254.00	-61.159	-39.861	
255.00	-61.957	-52.381	
256.00	-62.794	-99.450	
257.00	-63.459	-125.710	
258.00	-64.193	-151.982	
259.00	-64.969	171.629	
260.00	-65.389	150.500	
261.00	-66.057	113.363	
262.00	-66.863	80.859	
263.00	-67.652	61.457	
264.00	-69.611	16.083	
265.00	-71.061	-0.574	
266.00	-73.466	-41.578	
267.00	-76.812	-88.101	
268.00	-78.521	-128.279	
269.00	-74.346	172.964	
270.00	-73.261	136.234	
271.00	-71.680	101.812	
272.00	-70.716	78.431	
273.00	-71.069	52.987	
274.00	-70.564	26.810	
275.00	-72.064	-6.703	
276.00	-73.622	-41.380	
277.00	-73.766	-85.489	
278.00	-73.251	-132.346	
279.00	-71.630	-174.732	
280.00	-69.415	152.944	
281.00	-68.260	123.341	
282.00	-67.246	97.823	
283.00	-66.748	76.701	
284.00	-66.736	51.683	
285.00	-67.412	26.954	
286.00	-68.278	-3.536	
287.00	-69.341	-32.342	
288.00	-70.483	-70.996	
289.00	-71.434	-93.878	
290.00	-70.659	-145.653	
291.00	-70.107	-169.297	
292.00	-69.408	148.712	
293.00	-69.257	125.677	
294.00	-69.381	90.800	
295.00	-69.596	68.000	
296.00	-69.955	39.012	
297.00	-71.125	11.196	
298.00	-72.343	-16.149	
299.00	-74.057	-56.311	
300.00	-75.374	-92.447	
301.00	-75.390	-144.139	
302.00	-74.519	-178.519	
303.00	-74.094	137.315	
304.00	-73.319	104.979	
305.00	-72.647	84.480	
306.00	-70.820	51.645	
307.00	-70.299	21.454	
308.00	-70.818	-5.461	
309.00	-71.454	-32.906	
310.00	-71.747	-58.541	
311.00	-73.458	-87.583	
312.00	-72.740	-122.776	
313.00	-72.341	-166.205	
314.00	-72.115	156.266	
315.00	-70.569	136.635	
316.00	-69.729	115.923	
317.00	-69.545	93.389	
318.00	-70.044	71.859	
319.00	-69.585	48.413	
320.00	-70.279	32.022	
321.00	-71.397	11.638	
322.00	-73.000	-17.933	
323.00	-74.937	-49.359	
324.00	-75.910	-75.727	
325.00	-77.645	-160.405	
326.00	-74.689	-174.325	
327.00	-76.859	167.111	
328.00	-74.489	124.062	
329.00	-73.382	129.839	
330.00	-73.874	104.305	
331.00	-73.552	102.614	
332.00	-74.448	87.210	
333.00	-75.294	64.534	
334.00	-76.203	58.339	
335.00	-77.422	39.937	
336.00	-79.004	39.363	
337.00	-84.378	35.087	
338.00	-86.924	8.578	
339.00	-88.450	59.996	
340.00	-85.530	111.818	
341.00	-80.437	109.185	
342.00	-80.548	107.522	
343.00	-79.072	97.580	
344.00	-75.081	92.094	
345.00	-72.973	73.762	
346.00	-73.505	71.827	
347.00	-73.656	54.256	
348.00	-73.548	70.580	
349.00	-73.890	67.268	
350.00	-76.002	70.688	
351.00	-77.540	62.353	
352.00	-80.289	59.742	
353.00	-82.749	84.911	
354.00	-87.887	174.636	
355.00	-85.480	163.520	
356.00	-80.026	-164.750	
357.00	-78.447	-149.227	
358.00	-77.285	-127.918	
359.00	-76.911	-123.179	
Frequency	3700.00	MHz	
Channel	test		
Scan Axis name	Azimuth  [deg]		
Scan Axis	Amplitude	Phase	
			
0.00	-73.059	-116.598	
1.00	-73.374	-101.895	
2.00	-74.708	-104.989	
3.00	-77.756	-92.282	
4.00	-82.063	-119.561	
5.00	-90.479	-131.263	
6.00	-85.412	148.827	
7.00	-80.679	124.456	
8.00	-76.377	151.277	
9.00	-74.902	135.656	
10.00	-72.930	154.162	
11.00	-72.408	152.570	
12.00	-72.074	154.433	
13.00	-72.573	140.709	
14.00	-72.701	162.648	
15.00	-74.390	155.697	
16.00	-74.228	-172.276	
17.00	-76.230	-157.175	
18.00	-75.768	-129.365	
19.00	-75.363	-108.196	
20.00	-74.166	-90.624	
21.00	-72.805	-60.380	
22.00	-72.301	-50.990	
23.00	-71.447	-14.476	
24.00	-71.319	-6.719	
25.00	-71.950	40.385	
26.00	-71.531	58.178	
27.00	-71.596	96.307	
28.00	-71.379	122.345	
29.00	-70.936	145.960	
30.00	-71.375	157.941	
31.00	-70.760	-175.490	
32.00	-70.373	-149.044	
33.00	-70.533	-131.476	
34.00	-70.420	-100.495	
35.00	-70.104	-83.513	
36.00	-70.806	-48.729	
37.00	-70.403	-20.065	
38.00	-70.091	-3.344	
39.00	-69.839	42.664	
40.00	-69.731	82.894	
41.00	-69.778	87.689	
42.00	-70.564	128.436	
43.00	-70.396	145.071	
44.00	-71.592	-176.849	
45.00	-71.477	-148.593	
46.00	-72.273	-112.969	
47.00	-72.743	-106.735	
48.00	-73.232	-61.809	
49.00	-72.698	-32.105	
50.00	-72.519	6.650	
51.00	-72.117	43.353	
52.00	-72.660	75.984	
53.00	-72.563	109.213	
54.00	-71.440	141.313	
55.00	-71.790	166.239	
56.00	-71.483	-165.882	
57.00	-71.322	-135.120	
58.00	-71.832	-108.908	
59.00	-73.344	-90.155	
60.00	-72.623	-51.100	
61.00	-74.767	-22.668	
62.00	-74.711	15.394	
63.00	-74.087	53.465	
64.00	-74.175	96.876	
65.00	-74.732	119.391	
66.00	-73.124	157.322	
67.00	-72.331	169.374	
68.00	-71.983	-163.327	
69.00	-72.108	-144.865	
70.00	-72.044	-112.381	
71.00	-72.861	-79.744	
72.00	-73.853	-62.699	
73.00	-74.564	-25.987	
74.00	-74.452	8.077	
75.00	-75.543	36.279	
76.00	-76.454	64.665	
77.00	-74.350	106.358	
78.00	-73.713	129.291	
79.00	-73.970	153.422	
80.00	-74.377	175.786	
81.00	-74.126	-161.053	
82.00	-73.924	-131.457	
83.00	-76.231	-107.657	
84.00	-76.277	-96.045	
85.00	-75.563	-47.409	
86.00	-76.543	-18.927	
87.00	-75.204	18.031	
88.00	-74.685	55.122	
89.00	-73.092	85.061	
90.00	-70.868	116.312	
91.00	-70.218	138.102	
92.00	-69.496	161.554	
93.00	-68.453	-177.894	
94.00	-67.845	-153.167	
95.00	-67.674	-128.054	
96.00	-67.138	-104.887	
97.00	-66.972	-78.791	
98.00	-66.729	-61.083	
99.00	-66.150	-27.136	
100.00	-66.087	-11.702	
101.00	-65.376	25.794	
102.00	-64.629	26.175	
103.00	-64.128	61.123	
104.00	-63.422	77.934	
105.00	-62.626	108.264	
106.00	-61.995	130.122	
107.00	-61.580	153.706	
108.00	-61.084	179.714	
109.00	-60.660	-169.465	
110.00	-60.500	-136.701	
111.00	-59.917	-134.026	
112.00	-59.663	-101.158	
113.00	-59.510	-81.705	
114.00	-59.099	-56.114	
115.00	-58.714	-20.110	
116.00	-58.311	-6.308	
117.00	-57.875	30.207	
118.00	-57.429	46.329	
119.00	-57.224	79.214	
120.00	-56.868	98.744	
121.00	-56.468	130.370	
122.00	-56.361	147.901	
123.00	-56.147	164.379	
124.00	-55.947	-169.119	
125.00	-55.831	-158.253	
126.00	-55.786	-140.737	
127.00	-55.659	-112.377	
128.00	-55.798	-95.228	
129.00	-55.857	-74.214	
130.00	-55.966	-56.116	
131.00	-56.279	-30.437	
132.00	-56.487	0.606	
133.00	-56.797	4.591	
134.00	-57.080	20.892	
135.00	-57.711	33.425	
136.00	-58.048	52.550	
137.00	-58.359	66.337	
138.00	-59.061	75.750	
139.00	-59.387	92.095	
140.00	-59.975	99.358	
141.00	-59.948	102.299	
142.00	-59.869	110.013	
143.00	-59.472	119.428	
144.00	-58.735	129.910	
145.00	-58.029	130.721	
146.00	-57.312	143.183	
147.00	-56.642	137.284	
148.00	-55.993	163.500	
149.00	-55.669	155.647	
150.00	-55.082	169.740	
151.00	-54.889	172.145	
152.00	-54.673	-173.959	
153.00	-54.674	-161.399	
154.00	-54.756	-145.715	
155.00	-54.991	-133.915	
156.00	-55.378	-112.908	
157.00	-55.784	-110.485	
158.00	-56.308	-98.569	
159.00	-57.128	-99.201	
160.00	-57.811	-88.906	
161.00	-58.779	-80.505	
162.00	-59.853	-85.580	
163.00	-60.657	-86.827	
164.00	-61.399	-90.092	
165.00	-61.921	-101.504	
166.00	-61.498	-109.912	
167.00	-61.244	-119.630	
168.00	-60.631	-126.942	
169.00	-60.157	-128.589	
170.00	-59.727	-131.145	
171.00	-59.671	-134.400	
172.00	-59.405	-134.470	
173.00	-59.570	-134.982	
174.00	-59.983	-136.449	
175.00	-60.310	-136.394	
176.00	-61.178	-136.048	
177.00	-62.063	-141.068	
178.00	-63.197	-150.734	
179.00	-64.614	-160.870	
180.00	-65.796	-174.958	
181.00	-67.104	169.134	
182.00	-66.988	143.193	
183.00	-66.329	127.671	
184.00	-65.628	106.674	
185.00	-64.534	99.022	
186.00	-64.110	86.355	
187.00	-63.359	88.663	
188.00	-63.002	80.509	
189.00	-62.899	80.270	
190.00	-62.783	74.189	
191.00	-63.144	64.270	
192.00	-63.818	60.916	
193.00	-64.176	50.755	
194.00	-65.193	39.556	
195.00	-66.199	34.315	
196.00	-67.611	21.866	
197.00	-68.326	13.846	
198.00	-69.647	-6.834	
199.00	-69.996	-14.487	
200.00	-70.906	-41.272	
201.00	-71.064	-44.767	
202.00	-70.952	-55.161	
203.00	-70.828	-72.819	
204.00	-69.768	-78.971	
205.00	-69.938	-91.877	
206.00	-68.135	-106.838	
207.00	-67.688	-111.609	
208.00	-66.614	-129.684	
209.00	-65.955	-134.549	
210.00	-65.427	-142.106	
211.00	-64.879	-148.063	
212.00	-64.593	-163.301	
213.00	-64.363	-171.010	
214.00	-64.163	174.662	
215.00	-63.284	169.403	
216.00	-63.307	145.066	
217.00	-62.484	146.865	
218.00	-62.273	138.191	
219.00	-61.829	121.580	
220.00	-61.372	114.814	
221.00	-60.948	97.986	
222.00	-60.261	95.406	
223.00	-59.808	73.738	
224.00	-59.082	70.808	
225.00	-58.628	51.169	
226.00	-58.135	41.883	
227.00	-57.713	26.378	
228.00	-57.091	10.734	
229.00	-56.720	-7.098	
230.00	-56.226	-21.403	
231.00	-55.800	-44.471	
232.00	-55.471	-67.146	
233.00	-55.224	-81.312	
234.00	-55.057	-109.082	
235.00	-54.933	-125.193	
236.00	-54.916	-154.934	
237.00	-54.976	177.513	
238.00	-55.159	159.980	
239.00	-55.473	121.936	
240.00	-55.669	107.939	
241.00	-56.153	74.075	
242.00	-56.196	43.472	
243.00	-56.508	18.766	
244.00	-56.826	-14.652	
245.00	-57.475	-43.245	
246.00	-57.830	-79.649	
247.00	-58.294	-102.715	
248.00	-58.849	-116.387	
249.00	-59.245	-161.679	
250.00	-59.807	-145.915	
251.00	-61.016	145.521	
252.00	-61.042	117.872	
253.00	-62.229	85.940	
254.00	-62.470	41.598	
255.00	-63.370	30.659	
256.00	-64.065	-18.782	
257.00	-65.293	-46.173	
258.00	-65.773	-70.058	
259.00	-66.746	-106.436	
260.00	-67.589	-132.908	
261.00	-68.516	-167.544	
262.00	-69.876	153.917	
263.00	-71.038	125.527	
264.00	-72.612	70.803	
265.00	-73.804	47.191	
266.00	-75.004	-13.546	
267.00	-73.732	-50.038	
268.00	-72.644	-78.304	
269.00	-71.899	-117.095	
270.00	-71.458	-141.213	
271.00	-70.183	-176.913	
272.00	-70.504	153.388	
273.00	-69.886	122.275	
274.00	-70.747	90.997	
275.00	-69.953	51.040	
276.00	-70.865	17.321	
277.00	-70.001	-19.192	
278.00	-69.572	-56.324	
279.00	-68.811	-85.810	
280.00	-67.806	-123.595	
281.00	-67.455	-149.219	
282.00	-67.102	-176.556	
283.00	-66.802	156.262	
284.00	-66.659	127.637	
285.00	-67.006	97.111	
286.00	-67.630	67.416	
287.00	-68.174	37.275	
288.00	-67.640	-0.021	
289.00	-68.126	-24.311	
290.00	-68.269	-64.339	
291.00	-67.848	-88.322	
292.00	-68.335	-127.688	
293.00	-68.778	-153.848	
294.00	-69.194	172.558	
295.00	-69.940	142.155	
296.00	-70.283	114.194	
297.00	-70.761	75.988	
298.00	-70.823	44.232	
299.00	-71.453	8.201	
300.00	-71.427	-21.607	
301.00	-72.113	-62.357	
302.00	-71.569	-90.013	
303.00	-71.792	-126.452	
304.00	-71.567	-149.998	
305.00	-72.320	177.478	
306.00	-72.409	139.183	
307.00	-72.041	107.014	
308.00	-72.742	69.772	
309.00	-72.995	36.432	
310.00	-72.340	3.764	
311.00	-72.159	-24.580	
312.00	-71.625	-59.038	
313.00	-71.567	-97.501	
314.00	-70.910	-126.896	
315.00	-69.941	-150.712	
316.00	-69.828	-169.519	
317.00	-70.200	163.825	
318.00	-69.837	136.477	
319.00	-70.004	113.750	
320.00	-71.024	87.198	
321.00	-71.537	57.897	
322.00	-72.336	27.466	
323.00	-71.987	-6.251	
324.00	-72.153	-24.239	
325.00	-72.645	-88.305	
326.00	-71.368	-106.962	
327.00	-71.320	-115.639	
328.00	-71.570	-156.276	
329.00	-71.808	-152.229	
330.00	-72.895	-171.507	
331.00	-73.763	-177.884	
332.00	-74.524	159.471	
333.00	-75.778	136.576	
334.00	-78.798	124.113	
335.00	-80.698	104.495	
336.00	-81.033	78.666	
337.00	-87.668	19.648	
338.00	-88.414	-23.973	
339.00	-87.046	-59.136	
340.00	-88.794	-104.036	
341.00	-81.114	-123.376	
342.00	-78.707	-141.419	
343.00	-77.692	-155.386	
344.00	-75.911	-173.309	
345.00	-75.328	159.054	
346.00	-75.552	164.143	
347.00	-76.648	137.122	
348.00	-77.868	152.424	
349.00	-78.726	153.135	
350.00	-79.675	155.274	
351.00	-83.662	151.263	
352.00	-84.985	-170.595	
353.00	-83.244	-137.777	
354.00	-81.365	-89.436	
355.00	-77.538	-83.692	
356.00	-74.991	-92.197	
357.00	-74.954	-85.051	
358.00	-72.600	-66.900	
359.00	-72.938	-73.163	
Frequency	3750.00	MHz	
Channel	test		
Scan Axis name	Azimuth  [deg]		
Scan Axis	Amplitude	Phase	
			
0.00	-73.710	-44.557	
1.00	-74.357	-30.065	
2.00	-74.815	-19.478	
3.00	-77.300	5.964	
4.00	-80.860	-1.027	
5.00	-82.464	69.901	
6.00	-80.905	120.018	
7.00	-78.456	138.449	
8.00	-78.428	168.568	
9.00	-74.474	172.290	
10.00	-73.222	-164.272	
11.00	-73.908	-165.440	
12.00	-73.245	-156.642	
13.00	-73.516	-163.600	
14.00	-75.482	-154.478	
15.00	-76.495	-155.874	
16.00	-78.652	-108.344	
17.00	-81.032	-92.857	
18.00	-79.601	-72.131	
19.00	-78.766	-9.927	
20.00	-76.074	-7.429	
21.00	-74.332	20.172	
22.00	-73.201	37.411	
23.00	-73.111	68.970	
24.00	-72.976	74.272	
25.00	-72.136	125.545	
26.00	-71.743	143.718	
27.00	-71.226	-175.665	
28.00	-70.334	-147.970	
29.00	-70.887	-126.073	
30.00	-70.936	-119.491	
31.00	-71.153	-100.009	
32.00	-71.589	-64.373	
33.00	-70.138	-40.989	
34.00	-71.694	-8.729	
35.00	-69.428	5.600	
36.00	-69.887	45.605	
37.00	-68.472	68.659	
38.00	-68.743	95.559	
39.00	-68.845	129.651	
40.00	-68.274	168.318	
41.00	-69.006	168.849	
42.00	-68.915	-145.677	
43.00	-70.585	-131.236	
44.00	-71.133	-85.862	
45.00	-72.482	-53.445	
46.00	-73.677	-24.909	
47.00	-73.330	-5.515	
48.00	-72.794	45.137	
49.00	-70.998	68.840	
50.00	-70.597	109.784	
51.00	-69.507	140.186	
52.00	-70.291	173.265	
53.00	-70.279	-157.066	
54.00	-70.278	-115.974	
55.00	-69.897	-102.012	
56.00	-69.890	-64.141	
57.00	-69.072	-38.047	
58.00	-69.164	0.196	
59.00	-69.046	18.594	
60.00	-69.030	62.599	
61.00	-70.609	89.542	
62.00	-70.077	129.088	
63.00	-68.413	163.794	
64.00	-68.089	-170.897	
65.00	-67.964	-149.545	
66.00	-69.308	-121.749	
67.00	-70.403	-102.469	
68.00	-68.991	-65.162	
69.00	-68.636	-52.100	
70.00	-70.004	-8.553	
71.00	-69.980	30.722	
72.00	-70.151	46.218	
73.00	-70.446	105.104	
74.00	-69.436	126.630	
75.00	-70.285	160.797	
76.00	-68.766	-175.465	
77.00	-68.070	-130.576	
78.00	-69.779	-103.365	
79.00	-71.137	-87.226	
80.00	-69.311	-61.836	
81.00	-70.507	-43.692	
82.00	-69.503	6.592	
83.00	-70.800	29.995	
84.00	-70.598	60.557	
85.00	-70.926	95.053	
86.00	-70.047	131.655	
87.00	-69.585	160.761	
88.00	-70.063	-159.027	
89.00	-68.689	-146.332	
90.00	-69.289	-116.950	
91.00	-67.782	-92.448	
92.00	-68.402	-75.572	
93.00	-68.067	-46.007	
94.00	-67.455	-19.715	
95.00	-68.012	2.277	
96.00	-68.431	38.546	
97.00	-67.889	62.412	
98.00	-67.081	81.082	
99.00	-66.211	105.300	
100.00	-65.885	116.768	
101.00	-66.151	156.112	
102.00	-65.853	158.397	
103.00	-65.535	-170.639	
104.00	-65.143	-151.534	
105.00	-64.733	-124.013	
106.00	-63.896	-103.096	
107.00	-63.302	-78.301	
108.00	-63.105	-51.413	
109.00	-62.743	-40.521	
110.00	-62.311	-5.839	
111.00	-61.416	-5.681	
112.00	-60.949	28.359	
113.00	-60.482	46.989	
114.00	-60.213	69.946	
115.00	-59.681	104.107	
116.00	-59.619	117.477	
117.00	-59.032	154.031	
118.00	-58.382	167.666	
119.00	-57.986	-160.135	
120.00	-57.731	-139.677	
121.00	-57.487	-110.502	
122.00	-57.297	-93.775	
123.00	-57.235	-75.801	
124.00	-56.970	-47.495	
125.00	-56.818	-37.251	
126.00	-56.576	-20.755	
127.00	-56.531	8.345	
128.00	-56.451	26.514	
129.00	-56.729	45.865	
130.00	-56.622	64.481	
131.00	-56.746	91.850	
132.00	-56.940	122.119	
133.00	-57.371	125.294	
134.00	-58.051	141.736	
135.00	-58.628	154.227	
136.00	-58.947	174.753	
137.00	-59.873	-173.748	
138.00	-61.011	-163.106	
139.00	-61.807	-147.934	
140.00	-62.491	-140.517	
141.00	-63.204	-143.989	
142.00	-62.851	-136.544	
143.00	-62.666	-132.861	
144.00	-61.790	-123.585	
145.00	-60.833	-123.814	
146.00	-59.469	-114.504	
147.00	-59.015	-120.185	
148.00	-57.995	-92.840	
149.00	-57.406	-101.911	
150.00	-56.900	-87.030	
151.00	-56.553	-84.739	
152.00	-56.387	-69.856	
153.00	-56.209	-58.039	
154.00	-56.316	-39.358	
155.00	-56.601	-28.271	
156.00	-56.939	-6.438	
157.00	-57.615	-6.173	
158.00	-57.924	5.818	
159.00	-58.906	5.086	
160.00	-59.897	13.708	
161.00	-61.025	19.852	
162.00	-61.927	14.165	
163.00	-62.925	8.037	
164.00	-63.407	2.579	
165.00	-63.414	-11.869	
166.00	-62.480	-20.266	
167.00	-61.508	-28.811	
168.00	-61.022	-34.900	
169.00	-60.146	-34.736	
170.00	-59.789	-35.223	
171.00	-59.700	-38.264	
172.00	-59.553	-38.539	
173.00	-59.631	-39.104	
174.00	-59.901	-39.481	
175.00	-60.645	-41.486	
176.00	-61.150	-41.083	
177.00	-62.106	-46.719	
178.00	-63.111	-59.171	
179.00	-63.768	-71.463	
180.00	-65.015	-84.284	
181.00	-65.430	-98.131	
182.00	-65.506	-117.053	
183.00	-64.586	-130.282	
184.00	-64.278	-149.373	
185.00	-63.656	-155.278	
186.00	-62.823	-167.532	
187.00	-62.592	-165.110	
188.00	-62.385	-176.173	
189.00	-62.814	-173.603	
190.00	-62.504	176.777	
191.00	-62.778	164.281	
192.00	-63.103	162.410	
193.00	-63.709	148.149	
194.00	-64.071	136.289	
195.00	-64.770	131.344	
196.00	-65.315	120.092	
197.00	-65.959	109.729	
198.00	-66.208	88.642	
199.00	-66.297	84.361	
200.00	-66.195	54.557	
201.00	-65.418	47.804	
202.00	-64.809	40.669	
203.00	-63.724	26.179	
204.00	-62.820	16.328	
205.00	-62.043	0.765	
206.00	-61.297	-10.983	
207.00	-60.823	-20.811	
208.00	-60.357	-38.099	
209.00	-59.941	-47.959	
210.00	-59.789	-58.434	
211.00	-59.556	-70.534	
212.00	-59.351	-85.733	
213.00	-59.326	-95.726	
214.00	-59.617	-115.279	
215.00	-59.857	-121.250	
216.00	-60.448	-147.702	
217.00	-60.715	-147.741	
218.00	-61.198	-156.081	
219.00	-62.271	-172.433	
220.00	-62.890	-174.131	
221.00	-63.243	172.698	
222.00	-63.426	176.020	
223.00	-63.130	164.555	
224.00	-62.748	170.795	
225.00	-61.822	154.989	
226.00	-60.975	149.082	
227.00	-60.221	136.115	
228.00	-59.485	122.480	
229.00	-58.564	106.617	
230.00	-58.133	91.419	
231.00	-57.540	68.707	
232.00	-57.048	45.825	
233.00	-56.735	29.971	
234.00	-56.187	1.370	
235.00	-55.954	-15.096	
236.00	-55.996	-45.184	
237.00	-55.873	-72.396	
238.00	-55.877	-90.395	
239.00	-55.941	-128.166	
240.00	-56.142	-140.860	
241.00	-56.373	-174.747	
242.00	-56.804	154.570	
243.00	-57.180	129.977	
244.00	-57.546	96.642	
245.00	-58.000	68.085	
246.00	-58.540	31.216	
247.00	-59.021	8.159	
248.00	-59.846	-3.945	
249.00	-60.437	-49.306	
250.00	-61.254	-34.436	
251.00	-62.485	-103.369	
252.00	-62.661	-129.505	
253.00	-64.061	-165.902	
254.00	-64.212	156.651	
255.00	-65.691	139.424	
256.00	-66.709	98.194	
257.00	-68.275	66.971	
258.00	-69.369	36.677	
259.00	-70.895	6.189	
260.00	-72.336	-30.556	
261.00	-73.788	-67.242	
262.00	-75.536	-106.214	
263.00	-76.360	-142.966	
264.00	-79.702	161.423	
265.00	-79.496	128.810	
266.00	-78.501	54.101	
267.00	-77.881	17.664	
268.00	-77.017	-14.695	
269.00	-74.702	-61.765	
270.00	-73.446	-85.346	
271.00	-70.620	-119.253	
272.00	-70.070	-145.339	
273.00	-68.648	-174.757	
274.00	-69.367	161.968	
275.00	-68.318	126.088	
276.00	-68.943	99.675	
277.00	-68.496	67.107	
278.00	-68.620	26.707	
279.00	-68.552	-1.714	
280.00	-68.627	-41.101	
281.00	-67.740	-68.948	
282.00	-67.183	-99.496	
283.00	-66.776	-126.386	
284.00	-66.698	-156.814	
285.00	-67.491	175.980	
286.00	-67.081	145.234	
287.00	-67.511	112.831	
288.00	-68.063	82.339	
289.00	-68.479	53.263	
290.00	-68.038	13.877	
291.00	-67.881	-8.509	
292.00	-68.403	-51.437	
293.00	-68.538	-73.320	
294.00	-69.064	-112.440	
295.00	-69.590	-140.029	
296.00	-70.214	-173.012	
297.00	-70.104	151.575	
298.00	-71.107	123.780	
299.00	-70.759	82.661	
300.00	-71.001	52.668	
301.00	-71.405	10.750	
302.00	-71.515	-20.495	
303.00	-72.156	-57.547	
304.00	-70.239	-80.431	
305.00	-70.817	-113.244	
306.00	-70.845	-143.769	
307.00	-71.707	179.616	
308.00	-71.531	147.967	
309.00	-71.486	117.855	
310.00	-72.042	85.401	
311.00	-72.696	58.316	
312.00	-72.497	18.840	
313.00	-72.677	-15.531	
314.00	-71.803	-52.604	
315.00	-71.217	-73.624	
316.00	-70.349	-101.637	
317.00	-71.236	-129.175	
318.00	-70.200	-155.800	
319.00	-71.043	-176.771	
320.00	-72.411	152.278	
321.00	-73.259	123.231	
322.00	-73.591	90.376	
323.00	-74.266	60.233	
324.00	-74.674	27.870	
325.00	-74.362	-40.799	
326.00	-73.278	-58.127	
327.00	-72.663	-72.182	
328.00	-72.471	-112.137	
329.00	-72.635	-115.145	
330.00	-72.335	-140.223	
331.00	-72.195	-143.176	
332.00	-73.188	-166.950	
333.00	-72.743	170.636	
334.00	-72.688	160.089	
335.00	-73.777	144.154	
336.00	-75.541	129.409	
337.00	-76.828	101.660	
338.00	-79.850	83.744	
339.00	-83.615	99.621	
340.00	-91.695	11.301	
341.00	-89.856	-101.225	
342.00	-83.145	-106.376	
343.00	-78.435	-111.028	
344.00	-76.676	-115.898	
345.00	-77.021	-154.893	
346.00	-74.141	-147.365	
347.00	-74.334	-172.091	
348.00	-74.799	-161.917	
349.00	-75.198	-147.435	
350.00	-79.645	-143.200	
351.00	-81.181	-154.741	
352.00	-85.611	-143.727	
353.00	-86.157	-84.554	
354.00	-79.135	-62.650	
355.00	-78.604	-37.781	
356.00	-75.859	-32.212	
357.00	-75.002	-10.386	
358.00	-73.757	-0.287	
359.00	-73.391	-4.949	
Frequency	3800.00	MHz	
Channel	test		
Scan Axis name	Azimuth  [deg]		
Scan Axis	Amplitude	Phase	
			
0.00	-72.664	29.957	
1.00	-73.490	44.384	
2.00	-74.858	59.545	
3.00	-75.101	75.938	
4.00	-77.023	98.259	
5.00	-78.745	122.720	
6.00	-79.039	160.534	
7.00	-78.763	175.579	
8.00	-78.478	-135.446	
9.00	-77.244	-133.800	
10.00	-76.876	-107.142	
11.00	-76.801	-94.287	
12.00	-77.571	-82.777	
13.00	-77.851	-80.287	
14.00	-78.040	-70.397	
15.00	-77.690	-49.224	
16.00	-78.090	-8.321	
17.00	-76.443	-0.383	
18.00	-76.704	27.230	
19.00	-75.581	49.218	
20.00	-74.048	67.643	
21.00	-73.127	100.090	
22.00	-71.815	99.925	
23.00	-72.398	141.184	
24.00	-71.872	153.833	
25.00	-71.244	-164.459	
26.00	-71.087	-140.509	
27.00	-70.548	-102.263	
28.00	-70.811	-73.222	
29.00	-70.775	-49.815	
30.00	-70.360	-33.732	
31.00	-70.164	-8.661	
32.00	-69.467	20.417	
33.00	-68.847	36.961	
34.00	-68.328	63.766	
35.00	-67.680	83.250	
36.00	-67.839	118.170	
37.00	-67.761	141.283	
38.00	-67.649	162.000	
39.00	-68.148	-158.893	
40.00	-68.619	-111.754	
41.00	-69.820	-106.264	
42.00	-69.935	-55.558	
43.00	-69.602	-38.404	
44.00	-70.305	8.270	
45.00	-69.974	36.660	
46.00	-69.480	70.476	
47.00	-69.321	82.982	
48.00	-69.335	121.412	
49.00	-69.212	146.529	
50.00	-69.363	-174.548	
51.00	-69.604	-142.183	
52.00	-69.757	-110.273	
53.00	-69.514	-68.948	
54.00	-69.303	-26.134	
55.00	-68.637	-4.116	
56.00	-67.551	23.560	
57.00	-67.080	53.345	
58.00	-67.177	83.152	
59.00	-67.494	108.041	
60.00	-67.336	146.806	
61.00	-67.649	169.775	
62.00	-67.609	-151.867	
63.00	-67.717	-122.657	
64.00	-67.599	-86.636	
65.00	-67.760	-64.256	
66.00	-67.449	-21.203	
67.00	-67.349	-6.629	
68.00	-66.939	30.959	
69.00	-66.835	51.421	
70.00	-66.861	86.699	
71.00	-67.149	125.260	
72.00	-67.450	148.510	
73.00	-67.604	-169.332	
74.00	-67.808	-141.589	
75.00	-68.443	-104.787	
76.00	-68.243	-73.616	
77.00	-67.643	-37.654	
78.00	-67.792	-4.876	
79.00	-67.506	24.822	
80.00	-68.219	55.150	
81.00	-68.105	91.906	
82.00	-67.801	117.622	
83.00	-68.365	151.120	
84.00	-68.969	177.251	
85.00	-69.013	-153.941	
86.00	-68.655	-121.207	
87.00	-69.170	-88.164	
88.00	-68.576	-58.010	
89.00	-68.263	-29.954	
90.00	-67.955	2.211	
91.00	-67.302	25.784	
92.00	-67.414	54.777	
93.00	-66.888	74.345	
94.00	-66.827	99.016	
95.00	-67.140	123.558	
96.00	-67.620	149.035	
97.00	-67.381	175.229	
98.00	-67.676	-163.363	
99.00	-68.170	-136.768	
100.00	-67.664	-118.132	
101.00	-67.659	-79.687	
102.00	-67.475	-78.500	
103.00	-67.052	-41.790	
104.00	-66.258	-28.290	
105.00	-66.020	0.563	
106.00	-65.616	21.437	
107.00	-64.873	44.139	
108.00	-64.339	67.193	
109.00	-63.820	76.620	
110.00	-63.627	107.321	
111.00	-63.389	108.480	
112.00	-63.226	139.135	
113.00	-62.955	157.099	
114.00	-62.562	-178.027	
115.00	-62.238	-145.934	
116.00	-61.945	-132.972	
117.00	-61.708	-97.224	
118.00	-61.262	-80.454	
119.00	-60.946	-48.241	
120.00	-60.226	-30.554	
121.00	-59.554	1.470	
122.00	-59.193	18.038	
123.00	-58.806	32.194	
124.00	-58.353	60.097	
125.00	-58.116	67.209	
126.00	-57.821	84.848	
127.00	-57.730	112.545	
128.00	-57.647	129.864	
129.00	-57.592	150.265	
130.00	-57.574	168.870	
131.00	-57.670	-164.996	
132.00	-57.726	-132.405	
133.00	-58.029	-129.191	
134.00	-58.334	-109.971	
135.00	-58.415	-96.688	
136.00	-58.883	-72.922	
137.00	-59.167	-57.718	
138.00	-60.002	-41.389	
139.00	-60.768	-22.358	
140.00	-61.760	-9.873	
141.00	-62.617	-5.645	
142.00	-63.475	6.905	
143.00	-64.379	13.052	
144.00	-64.592	18.831	
145.00	-64.845	8.744	
146.00	-64.059	12.633	
147.00	-62.997	-1.355	
148.00	-61.979	22.147	
149.00	-60.821	7.847	
150.00	-60.004	22.662	
151.00	-59.188	20.707	
152.00	-58.874	35.369	
153.00	-58.373	45.815	
154.00	-58.189	64.560	
155.00	-58.031	74.707	
156.00	-58.161	96.233	
157.00	-58.289	96.712	
158.00	-58.618	111.095	
159.00	-59.233	108.335	
160.00	-60.131	119.747	
161.00	-60.958	126.257	
162.00	-61.783	124.434	
163.00	-62.990	118.976	
164.00	-63.559	113.141	
165.00	-63.901	100.219	
166.00	-63.173	89.577	
167.00	-62.455	79.277	
168.00	-61.555	73.189	
169.00	-60.736	70.970	
170.00	-59.961	67.725	
171.00	-59.475	65.724	
172.00	-58.972	65.138	
173.00	-58.650	66.286	
174.00	-58.632	65.574	
175.00	-58.548	64.491	
176.00	-58.722	68.803	
177.00	-59.119	64.217	
178.00	-59.379	57.311	
179.00	-59.825	51.677	
180.00	-60.647	47.860	
181.00	-61.081	42.765	
182.00	-61.756	31.253	
183.00	-62.182	25.717	
184.00	-63.166	5.767	
185.00	-63.560	-1.744	
186.00	-63.776	-15.296	
187.00	-63.717	-15.822	
188.00	-63.927	-26.074	
189.00	-63.739	-31.722	
190.00	-63.568	-42.979	
191.00	-63.201	-59.115	
192.00	-63.036	-62.608	
193.00	-62.969	-76.736	
194.00	-62.605	-87.141	
195.00	-62.505	-91.066	
196.00	-62.518	-103.205	
197.00	-62.814	-111.195	
198.00	-62.539	-129.322	
199.00	-62.159	-131.843	
200.00	-62.270	-159.127	
201.00	-61.715	-163.097	
202.00	-61.077	-170.744	
203.00	-60.641	170.399	
204.00	-59.919	158.726	
205.00	-59.594	141.547	
206.00	-58.887	125.153	
207.00	-58.449	112.254	
208.00	-57.991	94.068	
209.00	-57.705	82.151	
210.00	-57.398	68.509	
211.00	-57.258	53.653	
212.00	-57.467	37.665	
213.00	-57.439	26.160	
214.00	-57.533	5.608	
215.00	-58.165	-5.591	
216.00	-58.741	-33.643	
217.00	-58.999	-38.461	
218.00	-59.791	-50.387	
219.00	-60.615	-72.073	
220.00	-61.550	-79.644	
221.00	-62.575	-97.532	
222.00	-63.324	-100.733	
223.00	-64.033	-116.367	
224.00	-64.275	-110.121	
225.00	-64.231	-121.310	
226.00	-63.798	-118.926	
227.00	-62.812	-129.616	
228.00	-61.677	-140.483	
229.00	-60.893	-153.718	
230.00	-59.715	-165.588	
231.00	-59.000	170.496	
232.00	-58.161	150.284	
233.00	-57.688	137.718	
234.00	-57.222	108.203	
235.00	-56.979	92.176	
236.00	-56.974	61.602	
237.00	-56.836	35.801	
238.00	-57.034	16.464	
239.00	-57.079	-22.592	
240.00	-57.228	-34.703	
241.00	-57.449	-70.657	
242.00	-57.799	-101.512	
243.00	-58.074	-127.088	
244.00	-58.156	-159.901	
245.00	-58.541	171.192	
246.00	-58.822	136.156	
247.00	-59.488	114.367	
248.00	-59.874	102.620	
249.00	-60.457	60.380	
250.00	-61.196	78.359	
251.00	-62.801	6.682	
252.00	-63.165	-12.226	
253.00	-64.835	-50.975	
254.00	-65.377	-85.533	
255.00	-66.357	-103.396	
256.00	-67.153	-147.546	
257.00	-68.062	-175.685	
258.00	-69.155	163.773	
259.00	-70.486	131.161	
260.00	-71.410	112.523	
261.00	-73.697	85.839	
262.00	-76.410	70.522	
263.00	-79.225	63.887	
264.00	-86.279	60.869	
265.00	-87.585	77.606	
266.00	-83.211	60.432	
267.00	-83.185	62.206	
268.00	-82.487	34.105	
269.00	-80.018	-4.702	
270.00	-77.275	-27.867	
271.00	-75.056	-62.363	
272.00	-74.201	-89.672	
273.00	-71.598	-119.058	
274.00	-70.534	-144.541	
275.00	-70.006	-173.793	
276.00	-69.814	161.777	
277.00	-69.150	130.746	
278.00	-69.022	100.293	
279.00	-68.860	72.997	
280.00	-69.069	35.958	
281.00	-69.177	8.767	
282.00	-69.022	-22.648	
283.00	-68.617	-55.129	
284.00	-68.585	-88.399	
285.00	-68.080	-117.339	
286.00	-67.831	-152.470	
287.00	-67.672	177.773	
288.00	-67.841	145.826	
289.00	-67.593	123.231	
290.00	-67.401	86.447	
291.00	-67.524	64.365	
292.00	-67.897	27.617	
293.00	-68.371	0.367	
294.00	-69.868	-36.332	
295.00	-70.420	-65.803	
296.00	-70.871	-105.221	
297.00	-70.879	-143.523	
298.00	-70.791	-173.843	
299.00	-70.313	148.782	
300.00	-70.415	118.007	
301.00	-71.170	85.247	
302.00	-70.594	56.595	
303.00	-71.966	15.133	
304.00	-72.385	-13.461	
305.00	-72.562	-43.200	
306.00	-72.243	-92.077	
307.00	-71.034	-126.685	
308.00	-70.357	-154.858	
309.00	-70.091	175.299	
310.00	-69.237	145.325	
311.00	-69.978	123.816	
312.00	-69.527	93.920	
313.00	-70.188	56.357	
314.00	-70.472	28.538	
315.00	-71.363	4.106	
316.00	-71.906	-21.296	
317.00	-71.924	-55.974	
318.00	-72.316	-90.194	
319.00	-72.862	-114.517	
320.00	-72.859	-145.826	
321.00	-73.519	-176.816	
322.00	-73.848	154.426	
323.00	-73.277	121.114	
324.00	-73.226	91.914	
325.00	-73.865	30.842	
326.00	-73.300	13.686	
327.00	-73.156	-4.976	
328.00	-74.055	-48.911	
329.00	-74.982	-58.300	
330.00	-74.274	-88.141	
331.00	-74.820	-90.226	
332.00	-74.036	-124.424	
333.00	-73.578	-155.258	
334.00	-74.617	-156.920	
335.00	-73.071	176.846	
336.00	-73.689	169.957	
337.00	-74.525	143.714	
338.00	-75.838	130.158	
339.00	-78.406	125.667	
340.00	-82.410	111.680	
341.00	-90.003	51.610	
342.00	-89.746	-22.914	
343.00	-82.492	-56.675	
344.00	-78.471	-71.925	
345.00	-77.816	-104.449	
346.00	-76.521	-94.360	
347.00	-77.232	-119.580	
348.00	-77.094	-102.058	
349.00	-80.201	-83.696	
350.00	-81.899	-91.408	
351.00	-85.542	-72.172	
352.00	-88.963	16.399	
353.00	-81.156	37.653	
354.00	-78.728	35.524	
355.00	-75.601	51.493	
356.00	-74.302	38.285	
357.00	-73.177	61.266	
358.00	-72.272	71.695	
359.00	-72.993	73.115	
Frequency	3850.00	MHz	
Channel	test		
Scan Axis name	Azimuth  [deg]		
Scan Axis	Amplitude	Phase	
			
0.00	-76.422	92.727	
1.00	-78.137	120.493	
2.00	-80.745	137.667	
3.00	-79.033	-177.196	
4.00	-80.337	-139.203	
5.00	-76.739	-124.671	
6.00	-74.698	-88.586	
7.00	-73.841	-89.429	
8.00	-72.783	-58.761	
9.00	-74.160	-58.703	
10.00	-73.358	-42.540	
11.00	-74.086	-35.597	
12.00	-74.816	-16.275	
13.00	-74.933	-22.721	
14.00	-76.071	-1.920	
15.00	-75.615	14.916	
16.00	-77.665	59.476	
17.00	-75.691	62.186	
18.00	-76.495	88.372	
19.00	-75.619	112.502	
20.00	-76.613	136.938	
21.00	-74.035	163.534	
22.00	-73.701	175.062	
23.00	-71.873	-143.710	
24.00	-72.238	-129.711	
25.00	-71.788	-88.404	
26.00	-71.555	-59.289	
27.00	-71.466	-24.056	
28.00	-71.685	1.570	
29.00	-71.624	27.102	
30.00	-70.516	39.713	
31.00	-69.683	63.645	
32.00	-70.202	94.845	
33.00	-69.852	113.178	
34.00	-68.684	144.465	
35.00	-68.804	164.530	
36.00	-68.242	-162.201	
37.00	-68.381	-134.796	
38.00	-68.219	-113.763	
39.00	-68.058	-71.060	
40.00	-67.449	-30.563	
41.00	-69.055	-20.082	
42.00	-69.414	26.704	
43.00	-68.750	42.313	
44.00	-69.174	94.157	
45.00	-68.452	121.633	
46.00	-68.786	158.506	
47.00	-68.428	157.492	
48.00	-67.571	-156.440	
49.00	-68.224	-130.517	
50.00	-68.052	-88.235	
51.00	-67.691	-58.841	
52.00	-67.556	-28.103	
53.00	-68.073	10.218	
54.00	-67.565	49.545	
55.00	-67.504	75.790	
56.00	-67.389	106.891	
57.00	-67.743	137.256	
58.00	-66.872	169.523	
59.00	-66.220	-160.893	
60.00	-66.327	-122.900	
61.00	-66.277	-97.532	
62.00	-65.612	-65.365	
63.00	-65.167	-36.648	
64.00	-65.578	-2.503	
65.00	-66.366	9.958	
66.00	-66.442	57.618	
67.00	-66.847	72.767	
68.00	-66.927	113.314	
69.00	-66.973	135.865	
70.00	-67.119	175.578	
71.00	-66.356	-138.343	
72.00	-66.450	-117.722	
73.00	-65.958	-73.424	
74.00	-66.082	-48.977	
75.00	-66.998	-12.356	
76.00	-66.049	21.012	
77.00	-66.299	58.003	
78.00	-67.002	90.661	
79.00	-66.471	121.033	
80.00	-65.924	157.982	
81.00	-66.298	-170.482	
82.00	-65.163	-140.559	
83.00	-65.312	-106.468	
84.00	-65.262	-81.035	
85.00	-64.836	-51.847	
86.00	-64.953	-20.466	
87.00	-65.299	7.432	
88.00	-65.658	37.629	
89.00	-65.180	70.427	
90.00	-65.937	99.799	
91.00	-65.735	130.206	
92.00	-65.654	159.895	
93.00	-65.666	-175.757	
94.00	-65.582	-141.482	
95.00	-65.141	-113.493	
96.00	-65.229	-84.542	
97.00	-64.988	-59.052	
98.00	-64.680	-37.825	
99.00	-64.417	-9.605	
100.00	-64.433	5.424	
101.00	-64.875	35.431	
102.00	-65.064	40.066	
103.00	-65.275	76.899	
104.00	-65.478	91.084	
105.00	-65.248	127.645	
106.00	-65.017	145.410	
107.00	-64.904	168.851	
108.00	-64.597	-165.694	
109.00	-64.504	-154.655	
110.00	-64.266	-121.225	
111.00	-64.135	-121.782	
112.00	-64.391	-89.544	
113.00	-64.477	-76.421	
114.00	-63.990	-48.178	
115.00	-63.970	-23.779	
116.00	-63.705	-11.156	
117.00	-63.893	25.233	
118.00	-63.870	36.415	
119.00	-63.559	66.854	
120.00	-63.057	83.958	
121.00	-63.133	110.358	
122.00	-63.045	124.464	
123.00	-62.705	138.119	
124.00	-62.332	164.045	
125.00	-62.036	170.979	
126.00	-61.774	-172.776	
127.00	-61.225	-147.674	
128.00	-61.256	-130.080	
129.00	-60.883	-112.645	
130.00	-60.744	-94.353	
131.00	-60.312	-69.707	
132.00	-60.076	-40.271	
133.00	-60.000	-37.514	
134.00	-59.625	-20.118	
135.00	-59.756	-7.251	
136.00	-59.984	14.950	
137.00	-60.089	29.180	
138.00	-60.411	46.945	
139.00	-60.674	62.851	
140.00	-61.417	78.316	
141.00	-61.735	81.199	
142.00	-62.470	95.491	
143.00	-62.764	106.255	
144.00	-62.960	116.391	
145.00	-63.283	110.919	
146.00	-63.140	118.727	
147.00	-62.666	105.839	
148.00	-62.062	129.898	
149.00	-61.218	113.205	
150.00	-60.436	126.452	
151.00	-59.902	125.339	
152.00	-59.172	137.943	
153.00	-58.623	147.341	
154.00	-58.086	165.283	
155.00	-57.716	173.929	
156.00	-57.764	-164.258	
157.00	-57.803	-163.672	
158.00	-57.720	-147.525	
159.00	-57.935	-149.074	
160.00	-58.234	-136.285	
161.00	-58.891	-127.154	
162.00	-59.279	-125.894	
163.00	-59.896	-123.837	
164.00	-60.934	-122.954	
165.00	-61.555	-128.007	
166.00	-62.748	-134.031	
167.00	-63.213	-143.641	
168.00	-63.466	-154.079	
169.00	-63.237	-160.988	
170.00	-62.658	-167.846	
171.00	-62.031	-176.503	
172.00	-61.680	-179.996	
173.00	-61.284	178.630	
174.00	-60.792	173.559	
175.00	-60.251	174.091	
176.00	-60.402	176.148	
177.00	-60.273	171.728	
178.00	-60.321	166.736	
179.00	-60.585	160.963	
180.00	-60.928	159.816	
181.00	-61.443	155.215	
182.00	-62.064	146.410	
183.00	-62.304	143.144	
184.00	-63.196	127.887	
185.00	-63.646	122.861	
186.00	-64.156	117.720	
187.00	-64.970	117.004	
188.00	-65.423	108.212	
189.00	-65.854	106.503	
190.00	-66.471	93.934	
191.00	-65.913	78.874	
192.00	-66.550	73.667	
193.00	-66.240	56.304	
194.00	-66.460	44.426	
195.00	-65.671	37.203	
196.00	-65.280	25.874	
197.00	-64.704	16.773	
198.00	-63.948	-1.894	
199.00	-63.577	-2.522	
200.00	-62.795	-27.657	
201.00	-62.261	-28.065	
202.00	-61.644	-38.925	
203.00	-61.259	-56.030	
204.00	-60.823	-67.955	
205.00	-60.506	-88.733	
206.00	-59.967	-105.572	
207.00	-59.691	-120.596	
208.00	-59.400	-140.992	
209.00	-59.086	-153.988	
210.00	-58.974	-168.680	
211.00	-58.922	174.592	
212.00	-58.770	156.030	
213.00	-58.751	142.736	
214.00	-58.877	120.654	
215.00	-59.309	109.168	
216.00	-59.840	77.722	
217.00	-60.208	72.568	
218.00	-60.745	58.366	
219.00	-61.658	34.900	
220.00	-62.356	25.499	
221.00	-63.200	2.503	
222.00	-64.387	-1.319	
223.00	-65.216	-18.450	
224.00	-65.859	-14.415	
225.00	-66.050	-25.946	
226.00	-66.203	-25.089	
227.00	-65.599	-34.341	
228.00	-64.462	-41.278	
229.00	-63.544	-53.638	
230.00	-62.399	-62.891	
231.00	-61.695	-86.008	
232.00	-61.008	-107.290	
233.00	-60.438	-120.533	
234.00	-59.879	-148.315	
235.00	-59.895	-165.298	
236.00	-59.554	162.057	
237.00	-59.368	135.148	
238.00	-59.459	115.583	
239.00	-59.690	76.699	
240.00	-59.685	62.497	
241.00	-60.069	27.766	
242.00	-60.032	-3.409	
243.00	-60.294	-29.467	
244.00	-60.456	-64.095	
245.00	-61.131	-94.018	
246.00	-61.446	-129.014	
247.00	-62.059	-150.937	
248.00	-62.688	-163.645	
249.00	-63.364	153.823	
250.00	-63.654	172.421	
251.00	-64.991	98.081	
252.00	-65.529	73.777	
253.00	-67.496	35.988	
254.00	-67.394	-0.768	
255.00	-68.452	-16.050	
256.00	-69.043	-58.143	
257.00	-70.234	-83.104	
258.00	-71.666	-106.039	
259.00	-73.609	-132.620	
260.00	-75.309	-138.046	
261.00	-78.846	178.587	
262.00	-84.277	176.582	
263.00	-86.480	-175.576	
264.00	-89.853	-118.318	
265.00	-83.222	-153.355	
266.00	-83.060	177.561	
267.00	-84.536	148.087	
268.00	-83.202	122.330	
269.00	-83.215	92.947	
270.00	-79.034	59.837	
271.00	-76.602	25.288	
272.00	-74.974	-2.389	
273.00	-73.125	-32.655	
274.00	-72.022	-64.407	
275.00	-70.778	-91.598	
276.00	-70.547	-115.716	
277.00	-70.371	-147.171	
278.00	-69.956	176.387	
279.00	-70.170	153.339	
280.00	-70.554	115.264	
281.00	-69.205	83.248	
282.00	-68.926	53.696	
283.00	-68.477	27.426	
284.00	-69.221	-2.444	
285.00	-69.205	-36.368	
286.00	-68.994	-64.127	
287.00	-69.629	-101.000	
288.00	-69.955	-136.816	
289.00	-69.671	-160.417	
290.00	-69.761	160.797	
291.00	-69.271	133.759	
292.00	-69.133	86.567	
293.00	-69.053	68.072	
294.00	-69.063	32.001	
295.00	-70.231	3.443	
296.00	-70.604	-23.565	
297.00	-71.657	-57.220	
298.00	-73.015	-90.508	
299.00	-74.186	-127.940	
300.00	-73.669	-168.765	
301.00	-75.137	150.691	
302.00	-76.304	120.278	
303.00	-73.883	61.796	
304.00	-74.144	34.513	
305.00	-72.647	2.033	
306.00	-71.252	-38.336	
307.00	-70.118	-61.797	
308.00	-70.786	-94.204	
309.00	-69.941	-125.333	
310.00	-70.013	-153.463	
311.00	-70.446	-176.920	
312.00	-71.342	156.815	
313.00	-71.505	116.542	
314.00	-71.817	88.013	
315.00	-71.226	57.359	
316.00	-72.317	29.464	
317.00	-70.978	2.708	
318.00	-72.208	-35.031	
319.00	-70.895	-59.025	
320.00	-72.633	-90.355	
321.00	-72.520	-115.866	
322.00	-73.349	-150.908	
323.00	-72.655	166.246	
324.00	-73.276	150.441	
325.00	-73.928	83.387	
326.00	-73.733	66.251	
327.00	-72.205	45.490	
328.00	-74.079	3.803	
329.00	-73.781	-3.432	
330.00	-73.610	-28.988	
331.00	-72.858	-34.173	
332.00	-72.846	-66.474	
333.00	-72.566	-80.752	
334.00	-72.394	-92.170	
335.00	-73.392	-113.663	
336.00	-74.145	-126.909	
337.00	-75.425	-146.466	
338.00	-77.386	-148.934	
339.00	-83.049	-170.432	
340.00	-94.350	105.558	
341.00	-89.473	27.268	
342.00	-81.204	10.294	
343.00	-78.051	-2.979	
344.00	-76.665	-20.975	
345.00	-74.732	-39.313	
346.00	-76.182	-43.411	
347.00	-76.834	-54.962	
348.00	-77.176	-31.589	
349.00	-79.594	-24.890	
350.00	-81.304	-34.202	
351.00	-90.343	5.200	
352.00	-87.415	85.610	
353.00	-82.196	114.969	
354.00	-77.773	99.867	
355.00	-76.107	105.356	
356.00	-74.974	101.962	
357.00	-74.144	121.316	
358.00	-74.466	137.747	
359.00	-75.139	139.366	
Frequency	3900.00	MHz	
Channel	test		
Scan Axis name	Azimuth  [deg]		
Scan Axis	Amplitude	Phase	
			
0.00	-75.953	146.655	
1.00	-78.270	157.438	
2.00	-82.895	-178.305	
3.00	-84.877	-127.354	
4.00	-82.155	-75.586	
5.00	-78.836	-18.860	
6.00	-77.260	-12.799	
7.00	-75.143	-16.113	
8.00	-75.941	13.231	
9.00	-74.464	21.863	
10.00	-75.074	45.810	
11.00	-77.713	47.789	
12.00	-77.549	72.046	
13.00	-78.434	74.373	
14.00	-78.275	111.497	
15.00	-75.599	117.039	
16.00	-75.647	145.004	
17.00	-73.795	143.892	
18.00	-74.856	174.803	
19.00	-74.272	-179.391	
20.00	-73.577	-152.059	
21.00	-73.515	-125.780	
22.00	-73.162	-104.158	
23.00	-73.386	-62.772	
24.00	-71.516	-47.180	
25.00	-72.182	-5.071	
26.00	-71.009	22.862	
27.00	-70.121	64.759	
28.00	-70.171	85.836	
29.00	-69.916	113.492	
30.00	-68.599	120.094	
31.00	-68.971	143.963	
32.00	-68.597	172.434	
33.00	-67.703	-169.188	
34.00	-69.023	-133.118	
35.00	-67.936	-116.931	
36.00	-68.142	-79.100	
37.00	-67.824	-55.149	
38.00	-67.949	-25.957	
39.00	-68.018	17.097	
40.00	-68.129	60.276	
41.00	-67.858	66.650	
42.00	-68.586	124.490	
43.00	-68.516	131.340	
44.00	-67.214	-176.051	
45.00	-67.880	-153.916	
46.00	-67.795	-120.046	
47.00	-66.578	-114.121	
48.00	-67.273	-74.813	
49.00	-66.717	-44.061	
50.00	-66.796	-6.169	
51.00	-67.269	30.490	
52.00	-66.265	56.386	
53.00	-65.710	95.992	
54.00	-65.988	131.068	
55.00	-65.997	154.433	
56.00	-66.137	-176.086	
57.00	-66.277	-146.199	
58.00	-65.715	-109.148	
59.00	-66.423	-76.556	
60.00	-66.190	-39.149	
61.00	-65.725	-12.937	
62.00	-66.038	22.868	
63.00	-65.393	48.536	
64.00	-65.751	90.543	
65.00	-65.585	111.430	
66.00	-65.264	149.842	
67.00	-65.798	169.923	
68.00	-65.705	-154.149	
69.00	-66.259	-124.275	
70.00	-65.359	-88.170	
71.00	-65.189	-41.221	
72.00	-65.060	-23.273	
73.00	-64.092	15.919	
74.00	-65.527	45.582	
75.00	-65.483	87.463	
76.00	-64.220	119.364	
77.00	-65.050	151.741	
78.00	-64.791	-170.969	
79.00	-65.720	-140.736	
80.00	-64.247	-107.812	
81.00	-64.839	-65.784	
82.00	-64.373	-39.440	
83.00	-64.371	-8.447	
84.00	-64.143	14.170	
85.00	-63.646	52.058	
86.00	-63.399	83.124	
87.00	-63.310	109.714	
88.00	-63.569	142.684	
89.00	-63.507	173.218	
90.00	-63.929	-152.387	
91.00	-63.238	-126.282	
92.00	-63.581	-94.404	
93.00	-63.721	-69.355	
94.00	-63.666	-34.209	
95.00	-63.571	-11.804	
96.00	-63.691	20.911	
97.00	-62.818	47.203	
98.00	-62.989	72.525	
99.00	-63.326	99.718	
100.00	-63.093	114.430	
101.00	-62.998	149.384	
102.00	-63.410	151.318	
103.00	-63.272	-171.593	
104.00	-63.183	-159.310	
105.00	-63.636	-126.513	
106.00	-63.343	-104.543	
107.00	-63.578	-82.773	
108.00	-63.699	-53.276	
109.00	-63.775	-44.869	
110.00	-62.789	-13.952	
111.00	-63.700	-9.868	
112.00	-63.173	26.484	
113.00	-62.702	41.337	
114.00	-62.345	68.596	
115.00	-62.583	99.035	
116.00	-62.158	108.107	
117.00	-62.138	142.028	
118.00	-62.183	156.358	
119.00	-61.935	-175.343	
120.00	-61.564	-157.084	
121.00	-61.854	-132.560	
122.00	-61.294	-115.053	
123.00	-61.227	-99.878	
124.00	-61.329	-72.339	
125.00	-61.029	-66.153	
126.00	-60.858	-54.195	
127.00	-59.982	-23.270	
128.00	-59.953	-7.409	
129.00	-59.344	12.720	
130.00	-58.858	30.582	
131.00	-58.495	55.287	
132.00	-58.203	85.655	
133.00	-57.831	88.505	
134.00	-57.564	106.421	
135.00	-57.575	119.218	
136.00	-57.395	144.336	
137.00	-57.238	158.587	
138.00	-57.258	177.987	
139.00	-57.416	-164.818	
140.00	-57.731	-147.988	
141.00	-58.597	-141.457	
142.00	-58.897	-122.650	
143.00	-59.293	-105.269	
144.00	-60.046	-89.046	
145.00	-61.029	-87.084	
146.00	-61.696	-74.130	
147.00	-62.354	-84.204	
148.00	-63.178	-59.806	
149.00	-63.728	-80.711	
150.00	-64.051	-71.030	
151.00	-63.650	-79.222	
152.00	-63.173	-70.085	
153.00	-62.573	-64.281	
154.00	-62.448	-49.059	
155.00	-61.699	-43.990	
156.00	-61.336	-22.677	
157.00	-61.041	-22.091	
158.00	-61.086	-7.611	
159.00	-60.849	-8.017	
160.00	-61.126	7.553	
161.00	-61.871	16.061	
162.00	-62.419	21.421	
163.00	-63.412	23.271	
164.00	-64.569	31.976	
165.00	-66.079	31.928	
166.00	-67.818	28.760	
167.00	-70.544	26.449	
168.00	-73.307	13.023	
169.00	-76.396	-9.339	
170.00	-76.499	-42.775	
171.00	-73.892	-61.798	
172.00	-71.177	-73.046	
173.00	-70.019	-74.350	
174.00	-68.298	-78.275	
175.00	-68.380	-74.881	
176.00	-67.280	-69.802	
177.00	-67.701	-70.368	
178.00	-67.826	-73.262	
179.00	-68.079	-78.059	
180.00	-68.478	-72.765	
181.00	-69.120	-79.181	
182.00	-70.498	-81.869	
183.00	-71.094	-83.716	
184.00	-72.665	-94.172	
185.00	-74.631	-88.196	
186.00	-76.431	-95.736	
187.00	-77.664	-84.717	
188.00	-81.516	-103.555	
189.00	-85.885	-89.302	
190.00	-84.681	-99.124	
191.00	-90.419	-157.569	
192.00	-87.575	148.340	
193.00	-86.530	125.637	
194.00	-82.928	120.378	
195.00	-81.036	115.102	
196.00	-77.270	112.992	
197.00	-75.710	103.231	
198.00	-74.443	91.117	
199.00	-71.931	89.750	
200.00	-70.582	64.473	
201.00	-69.922	63.021	
202.00	-68.161	58.128	
203.00	-66.739	39.370	
204.00	-65.763	30.502	
205.00	-65.349	11.271	
206.00	-64.461	-3.352	
207.00	-63.927	-15.313	
208.00	-63.710	-37.177	
209.00	-63.301	-49.068	
210.00	-63.445	-62.177	
211.00	-63.230	-76.653	
212.00	-63.162	-93.467	
213.00	-63.468	-106.126	
214.00	-63.298	-123.115	
215.00	-63.958	-134.724	
216.00	-64.565	-159.882	
217.00	-64.723	-160.289	
218.00	-65.627	-167.174	
219.00	-65.579	177.071	
220.00	-65.473	177.479	
221.00	-65.163	160.801	
222.00	-64.570	161.064	
223.00	-63.715	142.991	
224.00	-62.702	140.836	
225.00	-61.460	122.075	
226.00	-60.795	111.086	
227.00	-60.132	93.532	
228.00	-59.446	77.070	
229.00	-58.634	57.931	
230.00	-58.000	42.851	
231.00	-57.584	15.696	
232.00	-57.338	-7.101	
233.00	-57.113	-24.418	
234.00	-56.910	-54.737	
235.00	-57.042	-74.698	
236.00	-56.775	-108.731	
237.00	-56.776	-135.178	
238.00	-56.963	-157.301	
239.00	-56.786	163.270	
240.00	-57.091	149.627	
241.00	-57.188	112.759	
242.00	-57.589	82.652	
243.00	-58.040	56.422	
244.00	-58.405	22.557	
245.00	-58.819	-8.856	
246.00	-59.443	-44.690	
247.00	-60.381	-68.782	
248.00	-60.755	-83.594	
249.00	-61.073	-129.107	
250.00	-61.645	-111.660	
251.00	-62.675	169.982	
252.00	-63.145	151.942	
253.00	-64.452	108.271	
254.00	-64.950	74.927	
255.00	-66.277	57.757	
256.00	-66.589	13.423	
257.00	-68.000	-16.661	
258.00	-69.724	-43.824	
259.00	-70.638	-80.985	
260.00	-72.122	-101.465	
261.00	-73.071	-146.646	
262.00	-74.479	-178.349	
263.00	-76.877	153.066	
264.00	-80.797	94.295	
265.00	-82.083	76.278	
266.00	-86.012	-5.403	
267.00	-85.729	-70.676	
268.00	-82.053	-106.608	
269.00	-80.427	-134.578	
270.00	-78.749	-177.497	
271.00	-75.839	149.595	
272.00	-74.568	116.201	
273.00	-74.522	83.653	
274.00	-73.306	57.058	
275.00	-72.303	14.588	
276.00	-72.606	-10.326	
277.00	-71.882	-48.701	
278.00	-72.109	-87.349	
279.00	-71.503	-115.155	
280.00	-70.621	-156.828	
281.00	-70.718	175.259	
282.00	-69.626	144.816	
283.00	-69.263	115.026	
284.00	-68.804	83.493	
285.00	-69.513	50.944	
286.00	-69.786	24.367	
287.00	-70.255	-12.907	
288.00	-70.775	-47.744	
289.00	-71.004	-76.656	
290.00	-70.948	-118.894	
291.00	-70.564	-146.583	
292.00	-69.783	171.314	
293.00	-70.279	143.363	
294.00	-70.903	109.337	
295.00	-70.691	80.393	
296.00	-72.278	45.526	
297.00	-72.174	9.809	
298.00	-72.606	-13.608	
299.00	-73.044	-55.678	
300.00	-73.584	-90.363	
301.00	-74.062	-128.817	
302.00	-75.484	-169.179	
303.00	-73.698	138.533	
304.00	-73.684	122.417	
305.00	-73.385	86.446	
306.00	-71.727	37.969	
307.00	-71.942	8.694	
308.00	-70.734	-17.300	
309.00	-71.577	-50.206	
310.00	-70.945	-84.585	
311.00	-71.939	-98.922	
312.00	-72.554	-129.672	
313.00	-72.803	-174.421	
314.00	-73.198	152.304	
315.00	-73.274	124.890	
316.00	-73.438	88.255	
317.00	-73.830	62.153	
318.00	-73.941	33.487	
319.00	-74.114	4.774	
320.00	-74.577	-31.272	
321.00	-74.283	-59.747	
322.00	-75.075	-97.016	
323.00	-74.076	-135.374	
324.00	-73.139	-153.740	
325.00	-72.993	138.027	
326.00	-73.137	125.216	
327.00	-73.273	111.115	
328.00	-73.253	69.930	
329.00	-74.155	63.154	
330.00	-74.427	29.239	
331.00	-74.235	19.195	
332.00	-75.105	-15.158	
333.00	-74.803	-35.648	
334.00	-74.565	-35.765	
335.00	-73.725	-71.406	
336.00	-74.424	-76.320	
337.00	-76.144	-96.281	
338.00	-78.369	-104.754	
339.00	-83.746	-126.492	
340.00	-84.048	171.905	
341.00	-89.929	128.599	
342.00	-84.515	98.100	
343.00	-80.236	83.706	
344.00	-77.390	60.522	
345.00	-77.005	22.452	
346.00	-76.952	45.735	
347.00	-77.377	7.234	
348.00	-79.527	52.592	
349.00	-86.446	50.397	
350.00	-83.564	118.956	
351.00	-81.058	136.045	
352.00	-78.981	143.351	
353.00	-76.376	152.908	
354.00	-74.947	152.265	
355.00	-73.804	166.908	
356.00	-72.823	155.620	
357.00	-73.687	172.612	
358.00	-74.090	-172.721	
359.00	-75.772	-170.633	
Frequency	3950.00	MHz	
Channel	test		
Scan Axis name	Azimuth  [deg]		
Scan Axis	Amplitude	Phase	
			
0.00	-80.368	-131.233	
1.00	-84.547	-137.757	
2.00	-102.573	-48.839	
3.00	-83.626	9.558	
4.00	-82.065	41.489	
5.00	-80.562	49.933	
6.00	-78.139	64.145	
7.00	-77.152	64.222	
8.00	-77.266	96.304	
9.00	-76.369	102.438	
10.00	-76.905	136.419	
11.00	-78.981	137.390	
12.00	-79.367	159.278	
13.00	-85.271	-176.772	
14.00	-77.471	-151.130	
15.00	-77.140	-142.895	
16.00	-76.342	-112.642	
17.00	-76.864	-118.681	
18.00	-73.547	-96.349	
19.00	-75.261	-74.668	
20.00	-74.880	-48.543	
21.00	-74.036	-24.747	
22.00	-74.208	-8.871	
23.00	-71.505	32.669	
24.00	-70.813	49.762	
25.00	-69.834	80.296	
26.00	-69.325	102.730	
27.00	-69.526	143.661	
28.00	-69.531	159.216	
29.00	-69.401	-171.823	
30.00	-69.583	-165.820	
31.00	-70.243	-137.987	
32.00	-69.867	-107.121	
33.00	-70.142	-90.016	
34.00	-70.860	-43.113	
35.00	-68.555	-33.348	
36.00	-68.213	10.373	
37.00	-68.000	33.876	
38.00	-67.844	55.278	
39.00	-67.673	102.072	
40.00	-68.342	142.258	
41.00	-68.671	146.136	
42.00	-68.716	-157.719	
43.00	-68.945	-147.565	
44.00	-69.369	-94.685	
45.00	-68.612	-69.959	
46.00	-68.197	-29.127	
47.00	-68.959	-24.350	
48.00	-68.231	18.559	
49.00	-67.821	47.311	
50.00	-67.714	84.897	
51.00	-67.037	121.799	
52.00	-66.895	147.893	
53.00	-67.120	-174.690	
54.00	-66.847	-138.795	
55.00	-66.879	-109.351	
56.00	-66.119	-80.082	
57.00	-66.146	-51.299	
58.00	-67.051	-18.043	
59.00	-66.949	16.881	
60.00	-66.596	56.042	
61.00	-66.631	81.417	
62.00	-66.321	112.245	
63.00	-66.294	149.153	
64.00	-66.060	-179.211	
65.00	-66.350	-152.923	
66.00	-65.980	-112.472	
67.00	-66.069	-95.783	
68.00	-66.009	-53.291	
69.00	-65.525	-30.089	
70.00	-65.301	8.373	
71.00	-64.601	49.553	
72.00	-64.463	75.609	
73.00	-64.399	117.647	
74.00	-64.496	141.814	
75.00	-64.894	-177.044	
76.00	-64.348	-146.641	
77.00	-64.349	-108.404	
78.00	-64.706	-76.827	
79.00	-63.971	-40.988	
80.00	-63.770	-6.969	
81.00	-63.644	28.987	
82.00	-63.129	58.160	
83.00	-62.955	90.067	
84.00	-62.689	117.362	
85.00	-62.741	150.104	
86.00	-62.652	-179.055	
87.00	-62.347	-147.110	
88.00	-62.551	-117.178	
89.00	-62.965	-83.544	
90.00	-62.865	-51.333	
91.00	-62.778	-23.245	
92.00	-62.660	10.146	
93.00	-62.372	38.145	
94.00	-62.209	71.867	
95.00	-61.703	99.083	
96.00	-61.806	129.812	
97.00	-61.600	155.327	
98.00	-61.794	-179.349	
99.00	-61.513	-150.005	
100.00	-61.558	-132.393	
101.00	-61.490	-93.806	
102.00	-61.867	-93.109	
103.00	-61.738	-51.794	
104.00	-61.775	-38.424	
105.00	-61.541	1.040	
106.00	-61.328	19.350	
107.00	-61.429	49.742	
108.00	-61.168	78.623	
109.00	-61.486	90.875	
110.00	-61.070	120.864	
111.00	-61.345	123.093	
112.00	-60.932	162.877	
113.00	-60.885	177.852	
114.00	-61.121	-151.867	
115.00	-61.638	-122.086	
116.00	-61.711	-106.870	
117.00	-62.140	-71.102	
118.00	-62.635	-53.484	
119.00	-62.815	-19.719	
120.00	-63.254	-2.136	
121.00	-63.248	33.190	
122.00	-63.567	42.563	
123.00	-64.347	56.174	
124.00	-64.750	86.183	
125.00	-64.455	87.441	
126.00	-64.910	101.451	
127.00	-65.069	122.402	
128.00	-64.526	131.955	
129.00	-64.050	142.644	
130.00	-63.733	157.370	
131.00	-62.912	179.904	
132.00	-62.637	-154.701	
133.00	-62.019	-154.408	
134.00	-61.722	-134.736	
135.00	-61.126	-124.928	
136.00	-60.703	-99.508	
137.00	-60.468	-84.984	
138.00	-60.309	-63.180	
139.00	-60.198	-43.651	
140.00	-60.152	-21.342	
141.00	-60.515	-14.171	
142.00	-60.724	9.024	
143.00	-61.025	27.436	
144.00	-61.641	48.877	
145.00	-62.372	55.233	
146.00	-63.551	73.805	
147.00	-65.041	72.865	
148.00	-66.376	101.142	
149.00	-69.054	91.850	
150.00	-71.976	103.476	
151.00	-75.567	90.415	
152.00	-75.924	68.811	
153.00	-74.148	41.677	
154.00	-71.448	53.788	
155.00	-69.196	59.157	
156.00	-67.554	86.024	
157.00	-66.658	84.848	
158.00	-66.168	104.259	
159.00	-66.529	103.429	
160.00	-66.353	127.476	
161.00	-66.576	144.470	
162.00	-67.415	152.472	
163.00	-68.991	168.426	
164.00	-69.412	-171.440	
165.00	-71.859	-156.038	
166.00	-72.942	-127.170	
167.00	-72.549	-96.360	
168.00	-71.188	-74.684	
169.00	-69.507	-52.477	
170.00	-67.937	-38.525	
171.00	-66.419	-30.939	
172.00	-65.689	-19.807	
173.00	-65.124	-12.942	
174.00	-64.323	-4.451	
175.00	-64.287	2.171	
176.00	-64.211	11.450	
177.00	-64.377	11.518	
178.00	-64.595	12.836	
179.00	-65.491	13.061	
180.00	-66.374	18.136	
181.00	-67.472	19.964	
182.00	-69.496	19.054	
183.00	-71.119	28.525	
184.00	-72.720	27.249	
185.00	-75.030	41.274	
186.00	-76.838	57.781	
187.00	-79.887	88.639	
188.00	-78.979	119.119	
189.00	-76.798	133.045	
190.00	-77.264	134.892	
191.00	-76.740	141.796	
192.00	-77.814	147.330	
193.00	-75.419	160.228	
194.00	-74.751	174.041	
195.00	-75.344	172.783	
196.00	-74.155	-178.924	
197.00	-72.488	-177.166	
198.00	-71.160	171.739	
199.00	-69.906	177.884	
200.00	-68.636	157.709	
201.00	-67.332	166.989	
202.00	-66.286	160.309	
203.00	-65.427	146.160	
204.00	-64.782	136.615	
205.00	-64.252	117.765	
206.00	-63.602	100.944	
207.00	-63.323	88.257	
208.00	-63.137	69.282	
209.00	-62.756	56.069	
210.00	-62.659	40.534	
211.00	-62.532	24.187	
212.00	-62.416	4.189	
213.00	-62.870	-10.050	
214.00	-62.551	-31.428	
215.00	-62.979	-45.104	
216.00	-63.184	-73.616	
217.00	-63.747	-77.752	
218.00	-64.752	-88.297	
219.00	-65.286	-107.309	
220.00	-66.019	-113.104	
221.00	-66.607	-128.005	
222.00	-66.603	-126.021	
223.00	-65.917	-135.122	
224.00	-65.165	-132.835	
225.00	-63.876	-148.111	
226.00	-63.103	-152.999	
227.00	-61.966	-167.811	
228.00	-60.813	178.023	
229.00	-59.963	157.002	
230.00	-59.261	145.004	
231.00	-58.828	116.217	
232.00	-58.385	95.151	
233.00	-58.163	77.258	
234.00	-57.831	48.062	
235.00	-57.902	28.804	
236.00	-57.733	-4.376	
237.00	-57.806	-32.015	
238.00	-57.805	-55.717	
239.00	-57.728	-95.345	
240.00	-57.970	-109.036	
241.00	-58.043	-148.030	
242.00	-58.120	-176.477	
243.00	-58.267	156.644	
244.00	-58.648	122.527	
245.00	-59.147	92.319	
246.00	-59.442	57.039	
247.00	-60.446	33.834	
248.00	-61.111	18.555	
249.00	-61.379	-24.508	
250.00	-62.318	-8.929	
251.00	-63.316	-88.559	
252.00	-63.745	-104.609	
253.00	-64.483	-151.092	
254.00	-65.133	177.585	
255.00	-66.276	158.340	
256.00	-66.710	115.800	
257.00	-68.061	83.089	
258.00	-69.473	57.431	
259.00	-71.020	27.440	
260.00	-73.802	1.774	
261.00	-74.964	-36.246	
262.00	-75.548	-71.732	
263.00	-78.611	-101.467	
264.00	-83.319	-155.405	
265.00	-88.784	172.388	
266.00	-92.027	66.887	
267.00	-83.988	17.192	
268.00	-80.464	-7.579	
269.00	-78.295	-45.796	
270.00	-76.192	-77.799	
271.00	-75.408	-123.092	
272.00	-75.096	-154.937	
273.00	-73.402	169.553	
274.00	-73.549	135.348	
275.00	-72.066	102.936	
276.00	-72.762	74.413	
277.00	-72.479	40.294	
278.00	-71.802	0.827	
279.00	-72.141	-27.075	
280.00	-71.262	-71.049	
281.00	-70.121	-102.173	
282.00	-69.307	-130.644	
283.00	-69.741	-164.134	
284.00	-69.767	170.883	
285.00	-68.876	133.406	
286.00	-69.582	103.536	
287.00	-69.822	71.983	
288.00	-69.883	39.035	
289.00	-69.934	8.195	
290.00	-70.456	-36.030	
291.00	-69.879	-59.265	
292.00	-69.684	-103.148	
293.00	-69.074	-129.212	
294.00	-69.433	-162.542	
295.00	-69.726	165.990	
296.00	-70.276	128.663	
297.00	-70.065	101.299	
298.00	-70.876	62.491	
299.00	-72.208	25.986	
300.00	-71.601	-6.771	
301.00	-72.410	-46.091	
302.00	-71.812	-81.917	
303.00	-72.233	-119.405	
304.00	-71.800	-143.252	
305.00	-73.369	-179.721	
306.00	-71.641	135.270	
307.00	-71.627	103.205	
308.00	-72.725	71.813	
309.00	-73.102	41.432	
310.00	-72.620	8.611	
311.00	-72.608	-23.422	
312.00	-72.480	-56.483	
313.00	-73.803	-102.484	
314.00	-73.017	-131.780	
315.00	-72.587	-160.691	
316.00	-73.119	177.417	
317.00	-72.384	147.890	
318.00	-72.961	111.105	
319.00	-73.278	80.969	
320.00	-73.504	54.726	
321.00	-73.826	25.980	
322.00	-73.951	-9.722	
323.00	-73.435	-49.811	
324.00	-74.060	-71.248	
325.00	-73.276	-138.889	
326.00	-72.532	-155.273	
327.00	-72.348	-170.227	
328.00	-73.079	145.683	
329.00	-73.193	138.139	
330.00	-73.618	109.379	
331.00	-73.618	102.017	
332.00	-73.629	73.923	
333.00	-75.032	58.555	
334.00	-74.141	40.180	
335.00	-74.900	17.769	
336.00	-76.581	9.933	
337.00	-81.275	-22.440	
338.00	-81.244	-48.709	
339.00	-82.997	-85.045	
340.00	-83.890	-160.173	
341.00	-80.531	163.045	
342.00	-79.447	147.525	
343.00	-76.405	141.089	
344.00	-74.920	118.031	
345.00	-74.822	91.463	
346.00	-75.174	99.025	
347.00	-76.485	77.024	
348.00	-78.622	102.682	
349.00	-83.269	100.777	
350.00	-86.355	125.068	
351.00	-90.149	-163.711	
352.00	-86.122	-118.049	
353.00	-80.557	-127.082	
354.00	-75.197	-113.015	
355.00	-76.863	-119.746	
356.00	-75.832	-128.808	
357.00	-74.144	-116.067	
358.00	-77.413	-93.723	
359.00	-81.104	-98.583	
Frequency	4000.00	MHz	
Channel	test		
Scan Axis name	Azimuth  [deg]		
Scan Axis	Amplitude	Phase	
			
0.00	-77.868	-43.061	
1.00	-80.818	-15.084	
2.00	-84.551	8.195	
3.00	-84.170	74.316	
4.00	-77.632	74.644	
5.00	-76.338	119.231	
6.00	-75.044	136.597	
7.00	-75.636	127.845	
8.00	-74.377	165.261	
9.00	-76.338	168.789	
10.00	-76.173	-176.087	
11.00	-77.589	-163.266	
12.00	-79.153	-137.714	
13.00	-80.010	-130.042	
14.00	-78.266	-97.236	
15.00	-76.421	-84.407	
16.00	-73.986	-42.056	
17.00	-74.326	-54.549	
18.00	-73.593	-23.053	
19.00	-72.868	-24.949	
20.00	-74.187	6.674	
21.00	-73.970	28.850	
22.00	-73.311	39.578	
23.00	-72.703	93.415	
24.00	-73.627	106.826	
25.00	-72.705	153.864	
26.00	-71.142	178.922	
27.00	-71.055	-146.612	
28.00	-70.626	-121.557	
29.00	-69.866	-87.378	
30.00	-70.215	-77.908	
31.00	-68.821	-52.640	
32.00	-68.296	-26.581	
33.00	-67.669	-12.105	
34.00	-67.947	22.929	
35.00	-67.605	38.491	
36.00	-67.929	81.713	
37.00	-67.562	105.650	
38.00	-68.488	129.065	
39.00	-68.731	175.460	
40.00	-69.059	-140.416	
41.00	-67.943	-126.142	
42.00	-68.277	-72.695	
43.00	-68.260	-59.540	
44.00	-67.950	-15.484	
45.00	-68.118	5.832	
46.00	-67.141	43.049	
47.00	-68.763	48.295	
48.00	-69.688	99.425	
49.00	-69.149	126.628	
50.00	-68.460	169.462	
51.00	-67.817	-149.062	
52.00	-67.287	-124.526	
53.00	-66.452	-83.400	
54.00	-66.959	-47.522	
55.00	-65.207	-23.831	
56.00	-65.661	7.505	
57.00	-65.688	34.154	
58.00	-66.018	68.140	
59.00	-66.307	95.813	
60.00	-66.778	136.639	
61.00	-65.393	158.354	
62.00	-66.090	-159.356	
63.00	-65.536	-130.966	
64.00	-63.846	-84.141	
65.00	-66.578	-62.902	
66.00	-65.707	-16.644	
67.00	-65.395	-8.285	
68.00	-64.840	26.220	
69.00	-64.762	55.402	
70.00	-65.153	105.827	
71.00	-64.065	138.654	
72.00	-64.517	160.625	
73.00	-63.631	-148.825	
74.00	-64.894	-115.347	
75.00	-64.335	-77.604	
76.00	-64.079	-53.309	
77.00	-63.828	-9.451	
78.00	-63.402	21.514	
79.00	-62.832	61.710	
80.00	-63.408	82.797	
81.00	-63.272	127.938	
82.00	-62.849	158.349	
83.00	-62.581	-169.221	
84.00	-62.348	-144.194	
85.00	-61.851	-102.048	
86.00	-61.986	-74.415	
87.00	-61.266	-43.330	
88.00	-61.419	-7.192	
89.00	-60.913	20.932	
90.00	-60.799	52.345	
91.00	-61.001	83.251	
92.00	-60.773	111.367	
93.00	-60.854	146.570	
94.00	-61.197	179.851	
95.00	-60.684	-151.047	
96.00	-60.326	-115.411	
97.00	-60.107	-88.807	
98.00	-59.889	-63.709	
99.00	-59.921	-34.060	
100.00	-59.883	-15.726	
101.00	-59.669	23.451	
102.00	-59.707	25.327	
103.00	-59.505	66.038	
104.00	-59.736	81.410	
105.00	-59.814	118.576	
106.00	-59.874	138.620	
107.00	-59.925	169.072	
108.00	-59.768	-161.792	
109.00	-59.698	-146.963	
110.00	-59.539	-114.376	
111.00	-59.705	-112.598	
112.00	-59.594	-71.439	
113.00	-59.852	-58.557	
114.00	-60.253	-27.880	
115.00	-60.027	6.975	
116.00	-60.474	22.819	
117.00	-60.684	56.892	
118.00	-61.398	78.851	
119.00	-61.361	110.751	
120.00	-61.793	134.898	
121.00	-61.790	163.162	
122.00	-62.673	-177.421	
123.00	-62.810	-158.912	
124.00	-63.816	-126.696	
125.00	-64.219	-127.143	
126.00	-65.449	-100.743	
127.00	-66.494	-79.702	
128.00	-68.387	-62.926	
129.00	-70.395	-41.924	
130.00	-71.362	-48.334	
131.00	-72.385	-46.744	
132.00	-69.707	-32.535	
133.00	-70.043	-43.605	
134.00	-67.931	-35.091	
135.00	-66.717	-25.289	
136.00	-65.117	0.385	
137.00	-64.403	16.797	
138.00	-63.879	43.675	
139.00	-62.791	57.085	
140.00	-62.704	83.515	
141.00	-62.156	90.381	
142.00	-62.705	115.965	
143.00	-62.495	132.105	
144.00	-62.840	156.592	
145.00	-63.635	165.657	
146.00	-64.385	-172.271	
147.00	-66.945	-174.644	
148.00	-69.275	-142.978	
149.00	-73.214	-133.737	
150.00	-79.034	-79.079	
151.00	-82.654	-6.154	
152.00	-74.319	44.410	
153.00	-71.321	71.349	
154.00	-68.550	97.276	
155.00	-66.323	114.398	
156.00	-65.775	144.749	
157.00	-64.229	148.544	
158.00	-64.150	171.898	
159.00	-64.046	174.012	
160.00	-64.167	-165.384	
161.00	-65.186	-145.203	
162.00	-66.637	-135.083	
163.00	-68.119	-132.170	
164.00	-70.898	-105.776	
165.00	-75.544	-95.771	
166.00	-81.563	-47.100	
167.00	-76.657	28.607	
168.00	-71.786	52.764	
169.00	-67.890	69.486	
170.00	-64.874	76.866	
171.00	-63.270	81.142	
172.00	-62.185	88.876	
173.00	-61.359	92.617	
174.00	-60.564	99.767	
175.00	-60.037	101.810	
176.00	-60.105	111.972	
177.00	-59.966	109.665	
178.00	-60.290	109.735	
179.00	-60.980	109.274	
180.00	-61.705	113.039	
181.00	-62.608	112.319	
182.00	-64.181	110.402	
183.00	-65.685	107.597	
184.00	-67.684	97.737	
185.00	-70.601	101.931	
186.00	-74.180	110.226	
187.00	-82.481	114.878	
188.00	-89.293	-63.914	
189.00	-80.572	-58.836	
190.00	-75.630	-58.770	
191.00	-73.187	-66.219	
192.00	-72.022	-59.217	
193.00	-70.551	-65.622	
194.00	-69.974	-67.276	
195.00	-69.396	-59.608	
196.00	-68.401	-59.573	
197.00	-67.718	-63.990	
198.00	-66.384	-68.317	
199.00	-65.679	-63.419	
200.00	-65.408	-82.387	
201.00	-64.396	-75.747	
202.00	-63.538	-84.474	
203.00	-62.998	-99.281	
204.00	-62.336	-108.320	
205.00	-61.647	-126.406	
206.00	-61.041	-140.229	
207.00	-60.999	-157.386	
208.00	-60.443	-174.883	
209.00	-60.224	172.083	
210.00	-60.075	157.561	
211.00	-59.940	140.016	
212.00	-59.780	122.525	
213.00	-59.929	108.011	
214.00	-59.845	85.136	
215.00	-60.358	71.043	
216.00	-60.654	40.684	
217.00	-60.876	35.912	
218.00	-61.478	19.367	
219.00	-61.501	-1.348	
220.00	-62.392	-13.095	
221.00	-63.092	-30.015	
222.00	-63.396	-34.630	
223.00	-63.921	-53.279	
224.00	-64.068	-50.540	
225.00	-63.817	-65.923	
226.00	-63.661	-69.983	
227.00	-63.170	-81.185	
228.00	-62.173	-94.175	
229.00	-61.459	-110.305	
230.00	-60.580	-122.091	
231.00	-59.923	-149.561	
232.00	-59.427	-171.481	
233.00	-59.016	172.904	
234.00	-58.516	144.000	
235.00	-58.392	124.535	
236.00	-58.325	91.645	
237.00	-58.153	65.150	
238.00	-58.315	43.235	
239.00	-58.180	4.886	
240.00	-58.345	-9.680	
241.00	-58.479	-48.030	
242.00	-58.699	-76.420	
243.00	-59.015	-103.554	
244.00	-59.380	-136.732	
245.00	-59.751	-167.567	
246.00	-60.474	156.498	
247.00	-60.871	132.939	
248.00	-61.536	117.876	
249.00	-61.842	77.225	
250.00	-62.514	92.459	
251.00	-63.371	14.311	
252.00	-63.878	2.445	
253.00	-65.415	-44.673	
254.00	-66.543	-72.665	
255.00	-67.497	-94.092	
256.00	-68.936	-133.407	
257.00	-70.831	-163.434	
258.00	-72.146	170.300	
259.00	-73.396	138.197	
260.00	-75.187	112.270	
261.00	-75.862	80.895	
262.00	-78.944	68.326	
263.00	-79.814	63.771	
264.00	-80.972	35.616	
265.00	-79.824	56.166	
266.00	-76.995	34.131	
267.00	-76.086	35.319	
268.00	-74.266	26.472	
269.00	-73.212	7.813	
270.00	-72.863	-19.887	
271.00	-72.114	-42.123	
272.00	-71.492	-76.727	
273.00	-71.314	-103.718	
274.00	-72.734	-133.980	
275.00	-70.954	177.022	
276.00	-71.072	152.768	
277.00	-70.636	112.628	
278.00	-70.519	76.116	
279.00	-69.918	47.868	
280.00	-68.478	7.819	
281.00	-68.635	-22.591	
282.00	-68.121	-50.072	
283.00	-68.137	-79.257	
284.00	-67.512	-110.463	
285.00	-68.271	-146.390	
286.00	-67.996	-177.517	
287.00	-68.534	145.744	
288.00	-68.632	111.842	
289.00	-68.649	79.923	
290.00	-67.932	41.882	
291.00	-68.315	13.348	
292.00	-67.656	-27.824	
293.00	-67.529	-51.610	
294.00	-67.562	-94.875	
295.00	-67.808	-118.430	
296.00	-68.163	-156.587	
297.00	-68.659	173.666	
298.00	-68.598	143.195	
299.00	-69.015	105.284	
300.00	-70.148	75.260	
301.00	-69.776	35.388	
302.00	-70.776	6.266	
303.00	-71.946	-39.877	
304.00	-71.560	-67.888	
305.00	-71.603	-102.898	
306.00	-71.771	-154.314	
307.00	-70.600	170.907	
308.00	-70.899	139.270	
309.00	-70.505	100.288	
310.00	-70.922	69.802	
311.00	-70.614	45.963	
312.00	-70.202	15.271	
313.00	-70.482	-25.857	
314.00	-70.238	-55.397	
315.00	-70.925	-84.432	
316.00	-70.788	-110.799	
317.00	-71.005	-145.758	
318.00	-70.988	-173.299	
319.00	-72.363	156.640	
320.00	-72.002	117.710	
321.00	-71.448	91.640	
322.00	-72.545	52.068	
323.00	-71.743	22.233	
324.00	-71.939	0.506	
325.00	-71.622	-68.874	
326.00	-71.495	-74.092	
327.00	-71.572	-95.912	
328.00	-72.256	-140.061	
329.00	-72.822	-140.376	
330.00	-73.018	179.240	
331.00	-72.411	175.637	
332.00	-74.256	140.942	
333.00	-74.132	118.028	
334.00	-73.445	110.832	
335.00	-74.344	73.265	
336.00	-76.115	68.434	
337.00	-75.093	32.448	
338.00	-78.757	10.495	
339.00	-80.897	-7.343	
340.00	-81.264	-65.827	
341.00	-80.730	-90.882	
342.00	-79.139	-121.360	
343.00	-77.001	-137.863	
344.00	-77.589	-165.102	
345.00	-78.071	157.436	
346.00	-76.337	169.274	
347.00	-79.360	129.199	
348.00	-81.616	162.570	
349.00	-84.398	103.854	
350.00	-95.158	42.614	
351.00	-81.949	-12.691	
352.00	-79.630	-17.991	
353.00	-76.506	-18.167	
354.00	-75.364	-43.336	
355.00	-73.676	-39.163	
356.00	-72.985	-43.137	
357.00	-74.072	-34.023	
358.00	-74.951	-18.097	
359.00	-75.370	-19.557	
Frequency	4050.00	MHz	
Channel	test		
Scan Axis name	Azimuth  [deg]		
Scan Axis	Amplitude	Phase	
			
0.00	-83.656	23.335	
1.00	-85.986	94.171	
2.00	-85.181	146.737	
3.00	-79.850	163.457	
4.00	-76.680	178.357	
5.00	-75.048	-155.780	
6.00	-74.299	-150.048	
7.00	-73.084	-150.816	
8.00	-74.086	-119.657	
9.00	-74.900	-120.089	
10.00	-75.505	-100.480	
11.00	-77.309	-76.333	
12.00	-79.452	-61.357	
13.00	-79.721	-36.196	
14.00	-77.669	-5.367	
15.00	-75.480	-1.456	
16.00	-73.942	37.462	
17.00	-72.813	26.164	
18.00	-72.682	51.845	
19.00	-72.127	59.625	
20.00	-72.243	85.602	
21.00	-71.295	102.676	
22.00	-72.066	121.064	
23.00	-72.089	161.761	
24.00	-72.617	-177.989	
25.00	-70.817	-133.376	
26.00	-71.296	-103.666	
27.00	-70.674	-60.137	
28.00	-70.363	-38.873	
29.00	-70.470	-11.939	
30.00	-70.233	-0.022	
31.00	-69.642	30.987	
32.00	-69.138	58.453	
33.00	-68.905	71.907	
34.00	-68.255	107.174	
35.00	-67.918	124.950	
36.00	-68.368	167.166	
37.00	-68.310	-166.289	
38.00	-68.198	-137.589	
39.00	-68.292	-89.144	
40.00	-67.325	-50.450	
41.00	-67.697	-46.096	
42.00	-67.218	13.858	
43.00	-67.132	20.663	
44.00	-67.637	70.112	
45.00	-67.839	88.185	
46.00	-68.480	130.526	
47.00	-68.243	139.718	
48.00	-68.041	-174.718	
49.00	-67.336	-146.052	
50.00	-67.709	-101.657	
51.00	-66.715	-64.141	
52.00	-66.289	-40.732	
53.00	-66.144	2.169	
54.00	-66.176	35.766	
55.00	-66.155	61.344	
56.00	-66.560	90.621	
57.00	-66.446	121.017	
58.00	-66.731	158.873	
59.00	-66.335	-169.960	
60.00	-66.443	-130.473	
61.00	-65.749	-101.165	
62.00	-66.028	-68.845	
63.00	-66.135	-32.876	
64.00	-65.587	-0.578	
65.00	-66.750	33.895	
66.00	-65.646	72.905	
67.00	-65.515	93.569	
68.00	-65.071	129.956	
69.00	-65.191	155.482	
70.00	-64.839	-162.981	
71.00	-64.197	-121.814	
72.00	-64.211	-95.923	
73.00	-64.031	-47.647	
74.00	-63.806	-17.674	
75.00	-63.749	20.777	
76.00	-63.284	51.118	
77.00	-63.091	92.482	
78.00	-62.649	121.789	
79.00	-62.487	155.174	
80.00	-62.145	-170.935	
81.00	-62.315	-133.594	
82.00	-61.923	-103.962	
83.00	-61.753	-67.263	
84.00	-61.478	-42.056	
85.00	-61.318	-2.008	
86.00	-60.995	27.683	
87.00	-60.752	60.791	
88.00	-60.738	91.949	
89.00	-60.529	126.302	
90.00	-60.264	159.408	
91.00	-60.092	-172.030	
92.00	-60.130	-138.012	
93.00	-60.071	-110.638	
94.00	-60.139	-75.400	
95.00	-59.978	-48.010	
96.00	-59.816	-13.818	
97.00	-59.481	14.333	
98.00	-59.734	42.796	
99.00	-59.535	70.881	
100.00	-59.576	92.072	
101.00	-59.316	132.267	
102.00	-59.408	133.762	
103.00	-59.189	177.856	
104.00	-59.189	-168.098	
105.00	-59.142	-129.833	
106.00	-59.062	-111.231	
107.00	-59.137	-79.053	
108.00	-59.316	-51.006	
109.00	-59.206	-38.245	
110.00	-59.484	-4.807	
111.00	-59.479	0.180	
112.00	-59.578	40.835	
113.00	-59.719	56.404	
114.00	-60.409	90.659	
115.00	-60.211	122.049	
116.00	-60.746	139.301	
117.00	-60.614	177.261	
118.00	-61.123	-159.944	
119.00	-61.211	-128.177	
120.00	-61.475	-105.247	
121.00	-62.225	-73.032	
122.00	-62.280	-53.759	
123.00	-63.095	-37.154	
124.00	-63.541	-0.370	
125.00	-64.650	7.988	
126.00	-66.077	33.725	
127.00	-68.052	66.456	
128.00	-69.810	94.972	
129.00	-72.347	125.780	
130.00	-74.360	171.206	
131.00	-76.151	-117.603	
132.00	-74.375	-49.184	
133.00	-71.686	-26.184	
134.00	-69.646	5.113	
135.00	-68.544	29.037	
136.00	-66.552	64.741	
137.00	-65.339	82.738	
138.00	-64.396	111.934	
139.00	-63.493	133.122	
140.00	-63.303	157.728	
141.00	-62.743	167.125	
142.00	-63.009	-166.182	
143.00	-63.144	-146.749	
144.00	-63.451	-124.942	
145.00	-64.273	-117.901	
146.00	-65.653	-99.471	
147.00	-67.184	-105.786	
148.00	-69.178	-76.327	
149.00	-71.461	-101.839	
150.00	-75.037	-116.705	
151.00	-72.708	-141.638	
152.00	-70.049	-149.518	
153.00	-66.573	-143.306	
154.00	-64.560	-121.802	
155.00	-63.302	-113.653	
156.00	-62.424	-85.680	
157.00	-61.592	-83.113	
158.00	-61.146	-62.276	
159.00	-60.924	-61.109	
160.00	-61.073	-37.487	
161.00	-61.040	-23.080	
162.00	-61.507	-13.443	
163.00	-62.116	-0.902	
164.00	-63.207	11.011	
165.00	-64.651	19.957	
166.00	-66.157	33.830	
167.00	-68.240	50.642	
168.00	-70.346	76.718	
169.00	-70.495	103.621	
170.00	-70.153	138.142	
171.00	-68.242	156.827	
172.00	-67.556	173.055	
173.00	-66.433	-174.066	
174.00	-65.919	-162.915	
175.00	-65.385	-157.520	
176.00	-65.678	-142.288	
177.00	-65.515	-139.274	
178.00	-66.431	-134.129	
179.00	-67.490	-130.832	
180.00	-68.398	-118.521	
181.00	-69.632	-110.114	
182.00	-70.813	-97.026	
183.00	-71.725	-79.402	
184.00	-71.305	-63.007	
185.00	-70.331	-47.494	
186.00	-69.116	-38.218	
187.00	-68.117	-21.250	
188.00	-67.323	-22.267	
189.00	-67.343	-14.626	
190.00	-66.782	-20.088	
191.00	-67.196	-24.905	
192.00	-67.726	-23.581	
193.00	-69.188	-33.565	
194.00	-70.462	-37.848	
195.00	-72.704	-33.382	
196.00	-77.676	-36.484	
197.00	-81.330	-22.942	
198.00	-83.610	43.751	
199.00	-76.977	75.230	
200.00	-73.219	57.457	
201.00	-70.141	60.828	
202.00	-68.195	47.231	
203.00	-66.372	33.306	
204.00	-64.769	21.436	
205.00	-63.788	1.669	
206.00	-62.502	-15.149	
207.00	-62.154	-28.677	
208.00	-61.416	-49.387	
209.00	-61.055	-61.995	
210.00	-60.594	-76.420	
211.00	-60.129	-93.562	
212.00	-60.004	-110.199	
213.00	-59.768	-127.424	
214.00	-59.686	-147.294	
215.00	-59.657	-161.798	
216.00	-59.660	170.206	
217.00	-59.559	164.638	
218.00	-59.706	151.492	
219.00	-59.967	128.974	
220.00	-60.013	116.937	
221.00	-60.023	96.196	
222.00	-59.938	86.712	
223.00	-59.843	65.953	
224.00	-59.631	60.121	
225.00	-59.466	39.868	
226.00	-59.113	30.654	
227.00	-58.965	13.821	
228.00	-58.620	-1.935	
229.00	-58.187	-21.646	
230.00	-57.811	-33.409	
231.00	-57.674	-62.524	
232.00	-57.390	-81.723	
233.00	-57.319	-99.433	
234.00	-57.175	-127.071	
235.00	-57.215	-146.170	
236.00	-57.244	-179.567	
237.00	-57.453	154.449	
238.00	-57.648	131.474	
239.00	-57.974	91.060	
240.00	-58.465	78.446	
241.00	-58.562	38.058	
242.00	-59.090	8.691	
243.00	-59.410	-20.076	
244.00	-59.734	-52.032	
245.00	-60.262	-82.545	
246.00	-60.908	-119.423	
247.00	-61.919	-141.515	
248.00	-62.815	-159.732	
249.00	-63.417	157.305	
250.00	-64.553	173.932	
251.00	-65.651	88.609	
252.00	-66.280	78.527	
253.00	-67.628	26.789	
254.00	-68.654	-2.655	
255.00	-70.418	-27.378	
256.00	-71.636	-69.201	
257.00	-75.272	-93.242	
258.00	-76.720	-128.014	
259.00	-80.610	169.067	
260.00	-82.000	110.919	
261.00	-82.178	56.047	
262.00	-81.249	3.452	
263.00	-80.202	-48.371	
264.00	-78.460	-109.507	
265.00	-75.497	-124.638	
266.00	-74.194	173.717	
267.00	-72.487	153.621	
268.00	-71.422	128.845	
269.00	-70.034	97.477	
270.00	-69.478	73.527	
271.00	-68.379	44.601	
272.00	-68.304	20.351	
273.00	-67.706	-18.537	
274.00	-67.640	-47.726	
275.00	-67.892	-79.141	
276.00	-67.490	-110.664	
277.00	-67.327	-146.432	
278.00	-68.068	175.907	
279.00	-68.024	144.434	
280.00	-67.629	99.262	
281.00	-67.014	71.270	
282.00	-66.314	34.394	
283.00	-66.398	3.998	
284.00	-65.542	-24.281	
285.00	-65.484	-59.912	
286.00	-65.560	-88.212	
287.00	-65.988	-120.300	
288.00	-66.302	-152.241	
289.00	-66.387	177.998	
290.00	-67.023	134.634	
291.00	-67.583	106.375	
292.00	-68.181	55.857	
293.00	-67.747	29.503	
294.00	-67.213	-13.677	
295.00	-67.816	-39.483	
296.00	-67.683	-76.276	
297.00	-67.747	-110.054	
298.00	-67.711	-140.786	
299.00	-67.973	-175.947	
300.00	-67.985	152.724	
301.00	-68.807	117.104	
302.00	-69.341	82.365	
303.00	-70.450	46.894	
304.00	-71.489	23.142	
305.00	-71.101	-19.686	
306.00	-72.178	-65.487	
307.00	-71.561	-101.309	
308.00	-70.429	-142.959	
309.00	-70.262	-179.226	
310.00	-69.493	151.994	
311.00	-69.848	127.328	
312.00	-69.564	91.114	
313.00	-69.642	51.061	
314.00	-69.348	23.112	
315.00	-69.380	-2.545	
316.00	-69.186	-34.807	
317.00	-69.623	-59.195	
318.00	-70.531	-91.208	
319.00	-70.384	-116.149	
320.00	-71.570	-146.689	
321.00	-72.399	-172.932	
322.00	-74.475	145.004	
323.00	-73.554	103.929	
324.00	-74.995	69.519	
325.00	-73.799	-2.062	
326.00	-73.479	-18.379	
327.00	-73.413	-35.156	
328.00	-71.935	-91.306	
329.00	-72.001	-84.433	
330.00	-72.282	-113.305	
331.00	-72.377	-115.228	
332.00	-72.955	-156.887	
333.00	-74.087	-172.065	
334.00	-73.746	-179.239	
335.00	-73.930	149.217	
336.00	-75.619	128.363	
337.00	-76.946	87.176	
338.00	-76.749	61.181	
339.00	-77.872	47.441	
340.00	-78.015	-0.710	
341.00	-76.995	-16.902	
342.00	-75.744	-37.619	
343.00	-76.531	-53.440	
344.00	-76.694	-69.359	
345.00	-77.524	-105.187	
346.00	-77.689	-97.002	
347.00	-80.993	-131.692	
348.00	-82.379	-116.383	
349.00	-95.306	-154.760	
350.00	-92.581	63.490	
351.00	-82.736	35.531	
352.00	-79.310	37.841	
353.00	-77.264	39.805	
354.00	-74.618	32.380	
355.00	-73.909	37.176	
356.00	-75.248	23.652	
357.00	-75.470	49.202	
358.00	-77.935	57.815	
359.00	-79.054	55.602	
Frequency	4100.00	MHz	
Channel	test		
Scan Axis name	Azimuth  [deg]		
Scan Axis	Amplitude	Phase	
			
0.00	-86.846	26.989	
1.00	-97.309	102.829	
2.00	-84.616	-105.581	
3.00	-82.765	-109.501	
4.00	-79.230	-111.839	
5.00	-76.785	-86.528	
6.00	-75.662	-82.831	
7.00	-77.267	-86.070	
8.00	-77.065	-48.838	
9.00	-77.654	-32.737	
10.00	-79.637	-0.639	
11.00	-82.304	24.349	
12.00	-82.240	67.187	
13.00	-79.497	72.151	
14.00	-77.049	80.175	
15.00	-74.279	81.212	
16.00	-74.180	122.236	
17.00	-72.945	106.199	
18.00	-73.175	135.711	
19.00	-72.054	139.525	
20.00	-75.711	165.065	
21.00	-72.714	-171.265	
22.00	-73.399	-143.057	
23.00	-73.384	-113.899	
24.00	-72.461	-90.559	
25.00	-71.652	-40.914	
26.00	-70.280	-20.970	
27.00	-71.312	19.994	
28.00	-69.906	40.652	
29.00	-70.015	58.416	
30.00	-69.606	70.450	
31.00	-69.354	99.405	
32.00	-70.056	126.167	
33.00	-70.373	143.634	
34.00	-70.100	-175.952	
35.00	-70.421	-159.837	
36.00	-70.128	-110.529	
37.00	-71.119	-78.329	
38.00	-70.078	-48.576	
39.00	-69.515	-3.331	
40.00	-69.275	37.362	
41.00	-68.550	41.183	
42.00	-69.054	102.282	
43.00	-67.972	102.720	
44.00	-68.824	158.989	
45.00	-69.086	-176.333	
46.00	-68.619	-135.116	
47.00	-68.873	-126.299	
48.00	-67.889	-79.640	
49.00	-67.895	-52.477	
50.00	-68.053	-16.105	
51.00	-67.657	15.040	
52.00	-66.797	53.390	
53.00	-67.849	86.419	
54.00	-67.471	125.161	
55.00	-67.877	145.732	
56.00	-68.386	-176.788	
57.00	-67.595	-145.706	
58.00	-67.925	-107.560	
59.00	-68.219	-68.268	
60.00	-66.949	-30.349	
61.00	-66.852	6.092	
62.00	-66.473	30.254	
63.00	-66.743	65.533	
64.00	-67.862	103.589	
65.00	-67.485	125.597	
66.00	-66.552	166.113	
67.00	-66.637	-171.430	
68.00	-67.894	-137.810	
69.00	-67.079	-116.113	
70.00	-67.151	-59.921	
71.00	-66.570	-19.545	
72.00	-65.433	10.587	
73.00	-65.300	49.153	
74.00	-64.289	75.353	
75.00	-63.877	124.291	
76.00	-63.886	146.491	
77.00	-63.579	-172.237	
78.00	-63.335	-151.120	
79.00	-62.906	-112.032	
80.00	-63.536	-78.852	
81.00	-63.405	-34.348	
82.00	-63.413	-10.819	
83.00	-63.008	30.218	
84.00	-62.593	58.796	
85.00	-62.354	93.204	
86.00	-61.631	123.988	
87.00	-61.393	161.735	
88.00	-61.787	-172.367	
89.00	-61.667	-135.284	
90.00	-61.709	-103.265	
91.00	-61.607	-72.163	
92.00	-60.626	-36.446	
93.00	-60.794	-8.091	
94.00	-60.391	28.005	
95.00	-60.540	56.534	
96.00	-59.822	94.324	
97.00	-59.618	120.786	
98.00	-59.818	149.011	
99.00	-59.169	176.376	
100.00	-59.381	-161.147	
101.00	-58.993	-122.615	
102.00	-58.901	-121.239	
103.00	-59.288	-77.724	
104.00	-59.262	-64.439	
105.00	-59.342	-23.223	
106.00	-59.274	-2.567	
107.00	-59.466	29.528	
108.00	-59.387	58.398	
109.00	-59.542	73.695	
110.00	-59.257	108.216	
111.00	-59.054	112.083	
112.00	-59.393	153.100	
113.00	-59.538	169.502	
114.00	-59.766	-157.192	
115.00	-60.043	-126.713	
116.00	-59.840	-109.338	
117.00	-59.885	-74.115	
118.00	-60.095	-50.190	
119.00	-60.266	-21.393	
120.00	-60.575	5.764	
121.00	-60.869	33.943	
122.00	-61.044	53.420	
123.00	-61.060	72.563	
124.00	-61.491	106.232	
125.00	-61.462	114.587	
126.00	-61.841	136.242	
127.00	-62.403	168.828	
128.00	-62.883	-170.224	
129.00	-64.165	-148.138	
130.00	-64.899	-121.717	
131.00	-66.802	-91.599	
132.00	-67.691	-47.119	
133.00	-69.265	-43.218	
134.00	-72.343	-24.753	
135.00	-77.039	5.019	
136.00	-83.423	74.498	
137.00	-80.728	163.308	
138.00	-74.661	-145.828	
139.00	-72.330	-118.621	
140.00	-69.955	-82.972	
141.00	-69.421	-79.843	
142.00	-68.751	-43.636	
143.00	-67.525	-27.459	
144.00	-66.462	0.550	
145.00	-66.997	10.405	
146.00	-67.414	36.592	
147.00	-68.122	39.934	
148.00	-69.133	74.324	
149.00	-70.159	74.593	
150.00	-73.076	107.984	
151.00	-75.417	106.839	
152.00	-76.899	175.386	
153.00	-78.268	-128.592	
154.00	-74.804	-59.622	
155.00	-72.955	-38.985	
156.00	-70.523	-3.736	
157.00	-68.861	1.502	
158.00	-68.338	31.377	
159.00	-66.587	38.988	
160.00	-66.973	64.732	
161.00	-66.501	83.761	
162.00	-67.509	92.932	
163.00	-67.200	113.180	
164.00	-68.280	128.337	
165.00	-69.137	149.108	
166.00	-69.984	167.946	
167.00	-69.677	-164.452	
168.00	-68.718	-147.958	
169.00	-67.708	-125.523	
170.00	-66.405	-107.232	
171.00	-65.183	-93.382	
172.00	-64.452	-81.248	
173.00	-63.483	-73.078	
174.00	-62.785	-63.222	
175.00	-62.708	-57.943	
176.00	-62.456	-44.728	
177.00	-62.943	-44.344	
178.00	-63.110	-40.782	
179.00	-63.858	-39.664	
180.00	-65.082	-31.324	
181.00	-66.051	-27.888	
182.00	-67.766	-21.699	
183.00	-69.277	-10.285	
184.00	-72.149	1.193	
185.00	-72.475	24.487	
186.00	-71.793	53.830	
187.00	-71.070	75.458	
188.00	-69.828	81.803	
189.00	-67.970	93.991	
190.00	-67.527	91.820	
191.00	-67.294	88.742	
192.00	-66.697	92.611	
193.00	-66.941	80.625	
194.00	-67.268	79.725	
195.00	-67.739	80.065	
196.00	-68.826	78.686	
197.00	-70.274	73.031	
198.00	-70.349	71.986	
199.00	-72.091	81.873	
200.00	-73.519	76.074	
201.00	-72.989	94.262	
202.00	-72.413	105.801	
203.00	-71.534	103.153	
204.00	-70.626	93.897	
205.00	-69.093	81.013	
206.00	-68.191	69.540	
207.00	-67.241	51.895	
208.00	-66.440	35.937	
209.00	-65.362	22.657	
210.00	-64.452	11.314	
211.00	-64.111	-2.588	
212.00	-63.438	-17.575	
213.00	-63.094	-29.438	
214.00	-62.412	-47.824	
215.00	-62.456	-59.627	
216.00	-62.059	-84.412	
217.00	-61.522	-87.460	
218.00	-61.702	-101.888	
219.00	-61.321	-120.724	
220.00	-61.292	-132.225	
221.00	-60.853	-151.755	
222.00	-60.645	-161.285	
223.00	-60.038	177.976	
224.00	-59.744	171.577	
225.00	-59.004	149.452	
226.00	-58.756	138.702	
227.00	-58.177	119.843	
228.00	-57.788	102.218	
229.00	-57.482	81.784	
230.00	-57.120	66.174	
231.00	-56.787	35.115	
232.00	-56.600	14.644	
233.00	-56.282	-5.337	
234.00	-56.120	-34.049	
235.00	-56.157	-54.882	
236.00	-56.066	-88.979	
237.00	-56.166	-113.566	
238.00	-56.462	-137.112	
239.00	-56.583	-176.952	
240.00	-56.921	168.304	
241.00	-57.420	128.009	
242.00	-57.597	98.850	
243.00	-58.212	70.296	
244.00	-58.594	36.675	
245.00	-59.172	1.552	
246.00	-59.929	-34.011	
247.00	-60.676	-58.111	
248.00	-61.058	-79.027	
249.00	-61.711	-117.380	
250.00	-62.702	-105.260	
251.00	-63.718	168.822	
252.00	-64.287	156.251	
253.00	-65.369	100.436	
254.00	-66.202	76.004	
255.00	-67.270	44.168	
256.00	-68.381	3.875	
257.00	-69.167	-32.271	
258.00	-70.718	-58.121	
259.00	-72.797	-101.180	
260.00	-74.754	-132.144	
261.00	-76.113	171.468	
262.00	-76.783	135.298	
263.00	-76.547	93.525	
264.00	-76.594	40.529	
265.00	-75.032	10.373	
266.00	-76.126	-60.475	
267.00	-75.147	-91.939	
268.00	-73.906	-127.360	
269.00	-72.728	-154.141	
270.00	-71.746	170.636	
271.00	-70.514	140.092	
272.00	-71.094	110.551	
273.00	-69.781	75.343	
274.00	-69.551	39.526	
275.00	-69.204	5.116	
276.00	-68.809	-30.558	
277.00	-68.885	-68.966	
278.00	-68.708	-102.720	
279.00	-68.544	-135.559	
280.00	-68.015	-177.744	
281.00	-68.148	153.464	
282.00	-66.853	118.187	
283.00	-67.516	86.562	
284.00	-67.666	55.045	
285.00	-67.522	11.944	
286.00	-66.916	-16.077	
287.00	-66.827	-52.441	
288.00	-67.436	-81.910	
289.00	-67.426	-111.435	
290.00	-67.473	-152.769	
291.00	-67.569	178.302	
292.00	-68.202	130.447	
293.00	-68.085	106.871	
294.00	-68.612	59.653	
295.00	-68.480	31.160	
296.00	-69.228	-7.232	
297.00	-68.713	-42.859	
298.00	-68.619	-76.456	
299.00	-68.493	-117.917	
300.00	-68.185	-144.122	
301.00	-68.461	173.996	
302.00	-68.082	147.454	
303.00	-68.864	110.115	
304.00	-69.724	86.126	
305.00	-70.340	50.500	
306.00	-70.966	8.113	
307.00	-70.813	-33.664	
308.00	-71.381	-71.253	
309.00	-70.797	-110.846	
310.00	-70.249	-138.395	
311.00	-70.794	-171.165	
312.00	-70.595	155.847	
313.00	-70.431	114.994	
314.00	-70.809	87.436	
315.00	-70.438	59.191	
316.00	-70.856	29.723	
317.00	-70.969	-1.093	
318.00	-71.033	-35.302	
319.00	-71.277	-58.820	
320.00	-71.308	-89.768	
321.00	-72.986	-120.111	
322.00	-74.289	-158.894	
323.00	-74.115	172.556	
324.00	-74.899	135.898	
325.00	-73.945	53.848	
326.00	-74.325	37.275	
327.00	-73.958	7.508	
328.00	-73.255	-35.993	
329.00	-72.932	-35.881	
330.00	-73.362	-68.186	
331.00	-73.522	-71.218	
332.00	-72.951	-103.898	
333.00	-73.418	-122.841	
334.00	-74.396	-131.132	
335.00	-75.312	-169.257	
336.00	-77.182	174.600	
337.00	-76.762	136.587	
338.00	-76.678	118.349	
339.00	-77.000	92.182	
340.00	-78.664	60.951	
341.00	-77.127	41.277	
342.00	-77.207	31.736	
343.00	-76.828	3.454	
344.00	-78.911	-15.930	
345.00	-79.741	-47.566	
346.00	-80.931	-48.495	
347.00	-82.897	-84.725	
348.00	-91.970	-127.364	
349.00	-84.226	-152.842	
350.00	-86.496	133.694	
351.00	-79.975	97.753	
352.00	-79.247	100.980	
353.00	-77.755	104.669	
354.00	-77.045	104.131	
355.00	-76.120	90.817	
356.00	-77.404	92.451	
357.00	-78.398	102.514	
358.00	-81.109	128.285	
359.00	-82.067	124.015	
Frequency	4150.00	MHz	
Channel	test		
Scan Axis name	Azimuth  [deg]		
Scan Axis	Amplitude	Phase	
			
0.00	-90.864	141.148	
1.00	-85.564	-125.320	
2.00	-86.474	-73.847	
3.00	-83.459	-56.559	
4.00	-80.374	-64.653	
5.00	-80.970	-36.046	
6.00	-78.107	-33.229	
7.00	-82.771	-33.786	
8.00	-81.106	1.751	
9.00	-85.682	27.070	
10.00	-84.909	94.109	
11.00	-86.373	117.018	
12.00	-82.269	151.900	
13.00	-81.364	153.673	
14.00	-77.716	157.994	
15.00	-75.823	174.656	
16.00	-75.052	-162.830	
17.00	-74.181	-175.289	
18.00	-74.533	-137.339	
19.00	-73.517	-133.126	
20.00	-73.255	-94.064	
21.00	-74.386	-74.921	
22.00	-73.142	-59.319	
23.00	-72.566	-16.535	
24.00	-71.620	-0.768	
25.00	-70.810	33.626	
26.00	-70.024	64.764	
27.00	-69.480	103.982	
28.00	-70.559	128.071	
29.00	-69.033	149.611	
30.00	-69.061	158.692	
31.00	-69.740	-173.551	
32.00	-70.018	-143.077	
33.00	-70.288	-127.519	
34.00	-70.273	-88.097	
35.00	-69.614	-66.166	
36.00	-70.074	-25.518	
37.00	-69.756	3.446	
38.00	-69.339	29.168	
39.00	-69.943	80.513	
40.00	-69.905	128.119	
41.00	-68.817	137.380	
42.00	-69.638	-162.552	
43.00	-68.797	-155.405	
44.00	-68.796	-97.434	
45.00	-68.586	-80.038	
46.00	-67.929	-40.307	
47.00	-67.592	-37.486	
48.00	-67.869	10.662	
49.00	-67.990	38.004	
50.00	-67.081	78.037	
51.00	-67.531	114.069	
52.00	-67.826	141.396	
53.00	-68.420	-171.697	
54.00	-68.154	-135.391	
55.00	-68.558	-101.605	
56.00	-68.156	-69.966	
57.00	-68.868	-37.113	
58.00	-66.765	0.566	
59.00	-66.697	29.634	
60.00	-66.796	67.044	
61.00	-66.484	98.234	
62.00	-66.258	129.961	
63.00	-66.704	168.728	
64.00	-66.714	-160.468	
65.00	-67.189	-132.469	
66.00	-67.325	-87.229	
67.00	-66.721	-66.042	
68.00	-66.127	-28.456	
69.00	-65.736	-2.847	
70.00	-65.499	39.040	
71.00	-65.182	74.006	
72.00	-65.048	103.944	
73.00	-64.598	148.256	
74.00	-64.655	174.666	
75.00	-65.075	-142.777	
76.00	-65.032	-114.092	
77.00	-65.129	-72.489	
78.00	-64.528	-43.743	
79.00	-64.603	-3.454	
80.00	-64.035	29.242	
81.00	-63.339	68.917	
82.00	-63.065	94.998	
83.00	-63.057	130.895	
84.00	-62.426	158.322	
85.00	-62.790	-164.498	
86.00	-62.612	-132.995	
87.00	-62.654	-94.706	
88.00	-62.331	-63.023	
89.00	-62.001	-28.665	
90.00	-61.372	7.368	
91.00	-61.256	38.245	
92.00	-60.811	71.808	
93.00	-60.649	99.789	
94.00	-60.147	136.076	
95.00	-59.826	163.288	
96.00	-59.625	-160.359	
97.00	-59.282	-132.347	
98.00	-59.043	-103.563	
99.00	-59.157	-74.456	
100.00	-58.887	-50.965	
101.00	-58.615	-10.701	
102.00	-58.270	-7.341	
103.00	-58.366	36.382	
104.00	-58.197	51.539	
105.00	-58.158	94.012	
106.00	-57.953	114.218	
107.00	-57.942	146.746	
108.00	-57.841	173.600	
109.00	-57.828	-167.707	
110.00	-57.725	-135.046	
111.00	-57.657	-128.720	
112.00	-57.818	-87.965	
113.00	-57.786	-72.068	
114.00	-57.732	-34.633	
115.00	-58.140	-5.550	
116.00	-58.572	14.693	
117.00	-58.636	53.109	
118.00	-58.809	75.788	
119.00	-58.964	107.050	
120.00	-59.379	131.644	
121.00	-59.470	160.636	
122.00	-59.670	179.967	
123.00	-59.590	-160.990	
124.00	-59.998	-128.575	
125.00	-60.003	-123.413	
126.00	-60.343	-100.493	
127.00	-60.584	-71.007	
128.00	-61.093	-49.952	
129.00	-61.191	-27.923	
130.00	-61.862	-7.323	
131.00	-62.594	23.257	
132.00	-63.113	54.066	
133.00	-64.020	57.941	
134.00	-64.784	79.585	
135.00	-65.999	89.441	
136.00	-67.394	119.935	
137.00	-68.752	124.861	
138.00	-70.428	135.935	
139.00	-71.134	135.481	
140.00	-71.398	143.683	
141.00	-70.381	140.206	
142.00	-69.524	154.959	
143.00	-68.185	162.777	
144.00	-66.970	-175.940	
145.00	-66.078	-171.721	
146.00	-65.289	-153.460	
147.00	-65.085	-153.074	
148.00	-64.219	-116.189	
149.00	-64.546	-123.625	
150.00	-64.416	-97.843	
151.00	-64.453	-89.889	
152.00	-64.655	-63.007	
153.00	-64.872	-46.037	
154.00	-65.710	-15.405	
155.00	-66.399	3.741	
156.00	-67.158	35.671	
157.00	-67.635	44.855	
158.00	-69.123	69.776	
159.00	-71.378	82.527	
160.00	-72.594	114.071	
161.00	-75.274	137.027	
162.00	-80.359	163.535	
163.00	-82.115	-123.025	
164.00	-77.966	-53.923	
165.00	-72.220	-43.464	
166.00	-69.817	-26.435	
167.00	-66.944	-18.353	
168.00	-65.077	-9.008	
169.00	-63.975	3.391	
170.00	-62.567	8.527	
171.00	-61.765	13.666	
172.00	-61.343	24.172	
173.00	-60.798	29.019	
174.00	-60.467	38.357	
175.00	-60.625	41.170	
176.00	-60.430	53.214	
177.00	-60.701	52.184	
178.00	-61.126	55.042	
179.00	-61.462	53.411	
180.00	-62.524	61.143	
181.00	-63.781	63.374	
182.00	-65.182	61.579	
183.00	-67.517	69.689	
184.00	-69.566	69.825	
185.00	-72.456	79.091	
186.00	-75.099	108.886	
187.00	-76.164	157.845	
188.00	-72.090	-175.221	
189.00	-70.001	-163.005	
190.00	-68.209	-162.179	
191.00	-67.223	-166.235	
192.00	-65.958	-161.313	
193.00	-65.241	-170.481	
194.00	-64.777	-174.317	
195.00	-64.591	-172.840	
196.00	-64.459	-175.622	
197.00	-64.655	-179.781	
198.00	-64.230	172.439	
199.00	-64.973	179.010	
200.00	-65.234	158.497	
201.00	-65.220	167.825	
202.00	-65.213	164.492	
203.00	-65.222	156.007	
204.00	-65.308	155.286	
205.00	-64.772	142.779	
206.00	-64.596	136.039	
207.00	-64.089	124.411	
208.00	-63.629	111.820	
209.00	-63.372	102.665	
210.00	-62.885	95.579	
211.00	-62.885	77.666	
212.00	-62.910	68.157	
213.00	-62.140	53.980	
214.00	-62.132	37.997	
215.00	-62.364	25.729	
216.00	-62.016	2.900	
217.00	-61.936	1.383	
218.00	-62.005	-9.730	
219.00	-61.497	-28.411	
220.00	-61.425	-37.403	
221.00	-61.077	-55.170	
222.00	-60.603	-62.345	
223.00	-60.417	-83.104	
224.00	-59.517	-88.511	
225.00	-59.557	-108.964	
226.00	-58.894	-120.554	
227.00	-58.612	-139.172	
228.00	-58.041	-155.500	
229.00	-57.639	-177.532	
230.00	-57.195	167.529	
231.00	-56.932	135.293	
232.00	-56.587	114.094	
233.00	-56.370	93.889	
234.00	-56.149	64.555	
235.00	-56.031	44.648	
236.00	-56.242	8.862	
237.00	-56.212	-15.967	
238.00	-56.554	-41.279	
239.00	-56.637	-80.147	
240.00	-57.017	-95.400	
241.00	-57.318	-137.647	
242.00	-57.711	-167.081	
243.00	-58.191	161.640	
244.00	-58.519	127.606	
245.00	-59.092	92.942	
246.00	-59.468	56.002	
247.00	-59.870	32.999	
248.00	-60.768	12.114	
249.00	-61.321	-25.431	
250.00	-62.195	-12.121	
251.00	-63.073	-98.073	
252.00	-63.800	-105.315	
253.00	-64.942	-164.547	
254.00	-65.333	168.185	
255.00	-66.921	138.275	
256.00	-67.813	91.940	
257.00	-68.767	59.688	
258.00	-70.230	34.409	
259.00	-71.984	-7.533	
260.00	-73.589	-35.096	
261.00	-74.718	-86.712	
262.00	-74.232	-124.821	
263.00	-75.448	-165.033	
264.00	-75.308	148.753	
265.00	-75.611	115.056	
266.00	-75.249	59.428	
267.00	-75.678	33.794	
268.00	-76.969	-6.843	
269.00	-76.449	-45.806	
270.00	-76.289	-86.383	
271.00	-74.909	-125.845	
272.00	-74.436	-162.493	
273.00	-72.887	159.200	
274.00	-72.434	128.226	
275.00	-71.749	82.213	
276.00	-70.921	54.687	
277.00	-70.791	23.514	
278.00	-69.900	-12.071	
279.00	-70.663	-41.930	
280.00	-70.743	-83.915	
281.00	-70.431	-114.667	
282.00	-70.617	-155.607	
283.00	-70.498	171.982	
284.00	-70.047	132.977	
285.00	-69.061	89.956	
286.00	-69.235	60.548	
287.00	-68.083	28.983	
288.00	-68.143	-6.845	
289.00	-68.805	-30.505	
290.00	-69.308	-72.611	
291.00	-69.513	-101.269	
292.00	-68.693	-147.721	
293.00	-69.642	-175.191	
294.00	-69.775	141.726	
295.00	-70.516	116.953	
296.00	-71.317	74.487	
297.00	-71.200	37.057	
298.00	-71.576	-1.431	
299.00	-71.709	-44.426	
300.00	-71.354	-77.335	
301.00	-70.405	-117.057	
302.00	-70.344	-146.707	
303.00	-70.369	172.905	
304.00	-70.511	152.572	
305.00	-70.489	119.495	
306.00	-70.738	80.402	
307.00	-71.306	42.585	
308.00	-73.039	8.811	
309.00	-72.608	-31.442	
310.00	-73.203	-67.909	
311.00	-73.427	-98.030	
312.00	-74.130	-140.743	
313.00	-73.697	175.798	
314.00	-73.192	138.423	
315.00	-72.335	119.283	
316.00	-71.768	87.772	
317.00	-71.900	61.792	
318.00	-72.088	30.231	
319.00	-71.841	3.199	
320.00	-73.497	-18.683	
321.00	-74.792	-51.222	
322.00	-78.281	-92.835	
323.00	-77.607	-131.104	
324.00	-80.289	173.703	
325.00	-77.259	104.881	
326.00	-76.042	96.488	
327.00	-75.149	66.864	
328.00	-75.015	20.648	
329.00	-74.682	19.868	
330.00	-75.302	-6.161	
331.00	-74.246	-6.658	
332.00	-76.157	-46.548	
333.00	-76.109	-61.155	
334.00	-77.921	-81.022	
335.00	-77.387	-124.304	
336.00	-81.024	-130.911	
337.00	-82.174	174.605	
338.00	-78.898	151.938	
339.00	-80.319	122.211	
340.00	-81.092	89.516	
341.00	-78.733	71.894	
342.00	-76.977	53.788	
343.00	-77.220	32.025	
344.00	-77.825	36.003	
345.00	-79.387	-16.908	
346.00	-80.388	-25.299	
347.00	-82.247	-60.814	
348.00	-83.461	-37.543	
349.00	-88.964	-115.633	
350.00	-87.652	172.287	
351.00	-83.967	-179.097	
352.00	-80.772	154.149	
353.00	-77.549	150.987	
354.00	-76.941	141.193	
355.00	-77.903	148.780	
356.00	-77.468	130.064	
357.00	-77.255	167.986	
358.00	-83.249	176.628	
359.00	-85.204	176.493	
Frequency	4200.00	MHz	
Channel	test		
Scan Axis name	Azimuth  [deg]		
Scan Axis	Amplitude	Phase	
			
0.00	-81.492	-156.620	
1.00	-82.562	-116.688	
2.00	-82.752	-44.762	
3.00	-83.161	-10.632	
4.00	-82.974	-32.035	
5.00	-81.664	27.219	
6.00	-80.701	33.853	
7.00	-80.049	55.316	
8.00	-89.673	60.503	
9.00	-81.593	111.063	
10.00	-78.885	142.487	
11.00	-80.536	175.906	
12.00	-81.327	176.207	
13.00	-78.505	-174.793	
14.00	-78.563	-143.726	
15.00	-75.118	-142.595	
16.00	-75.392	-122.810	
17.00	-74.572	-136.600	
18.00	-75.141	-80.381	
19.00	-75.347	-85.398	
20.00	-74.425	-49.391	
21.00	-75.754	-28.377	
22.00	-74.719	0.614	
23.00	-73.929	35.500	
24.00	-73.114	49.590	
25.00	-72.764	101.028	
26.00	-72.532	126.717	
27.00	-72.330	179.541	
28.00	-70.830	-164.386	
29.00	-70.254	-145.325	
30.00	-70.171	-125.200	
31.00	-69.857	-104.698	
32.00	-69.517	-74.271	
33.00	-69.689	-56.495	
34.00	-69.982	-14.537	
35.00	-69.212	3.108	
36.00	-69.924	49.892	
37.00	-70.523	71.755	
38.00	-69.531	105.394	
39.00	-70.347	151.184	
40.00	-69.527	-163.982	
41.00	-69.129	-157.738	
42.00	-69.860	-94.063	
43.00	-70.452	-86.363	
44.00	-69.264	-26.974	
45.00	-69.848	-11.750	
46.00	-69.238	36.323	
47.00	-68.327	43.671	
48.00	-67.631	93.459	
49.00	-68.515	116.602	
50.00	-68.673	159.501	
51.00	-67.630	-164.842	
52.00	-68.608	-140.411	
53.00	-68.769	-89.358	
54.00	-69.133	-51.846	
55.00	-68.158	-22.969	
56.00	-67.368	9.896	
57.00	-69.005	56.890	
58.00	-68.148	80.851	
59.00	-67.418	116.926	
60.00	-66.994	148.382	
61.00	-67.839	178.876	
62.00	-66.914	-150.551	
63.00	-67.425	-100.995	
64.00	-67.586	-74.458	
65.00	-67.611	-36.087	
66.00	-67.353	-2.390	
67.00	-66.409	25.501	
68.00	-67.095	48.311	
69.00	-66.107	82.915	
70.00	-66.365	124.246	
71.00	-65.531	161.749	
72.00	-65.898	-168.264	
73.00	-66.246	-119.403	
74.00	-65.627	-91.528	
75.00	-66.301	-58.789	
76.00	-65.684	-18.031	
77.00	-66.008	29.965	
78.00	-65.234	54.037	
79.00	-65.160	88.243	
80.00	-65.272	125.712	
81.00	-64.450	160.351	
82.00	-63.935	-168.128	
83.00	-64.192	-125.174	
84.00	-64.057	-107.076	
85.00	-63.231	-67.253	
86.00	-63.021	-34.412	
87.00	-62.143	-0.988	
88.00	-62.239	33.916	
89.00	-60.967	66.913	
90.00	-61.339	97.758	
91.00	-61.118	131.479	
92.00	-60.589	163.419	
93.00	-59.601	-168.247	
94.00	-59.420	-130.219	
95.00	-59.108	-105.105	
96.00	-58.820	-66.451	
97.00	-58.607	-40.420	
98.00	-58.319	-9.582	
99.00	-58.111	20.562	
100.00	-57.891	44.235	
101.00	-57.461	83.408	
102.00	-57.201	86.881	
103.00	-57.096	133.171	
104.00	-56.520	147.550	
105.00	-56.290	-168.770	
106.00	-56.159	-150.261	
107.00	-55.949	-116.280	
108.00	-55.635	-87.797	
109.00	-55.751	-70.243	
110.00	-55.618	-35.641	
111.00	-55.705	-30.124	
112.00	-55.485	14.319	
113.00	-55.553	28.412	
114.00	-55.708	69.523	
115.00	-55.332	100.599	
116.00	-55.622	122.666	
117.00	-55.401	159.434	
118.00	-55.597	-174.710	
119.00	-55.528	-144.729	
120.00	-55.835	-118.335	
121.00	-55.692	-87.220	
122.00	-55.753	-69.192	
123.00	-55.792	-49.382	
124.00	-56.145	-16.630	
125.00	-56.260	-9.651	
126.00	-56.498	15.793	
127.00	-56.342	44.214	
128.00	-56.734	66.223	
129.00	-56.963	86.965	
130.00	-57.303	113.107	
131.00	-57.700	145.534	
132.00	-58.263	177.567	
133.00	-58.579	-177.828	
134.00	-58.877	-156.158	
135.00	-59.644	-137.541	
136.00	-60.037	-107.509	
137.00	-60.988	-94.858	
138.00	-62.147	-70.699	
139.00	-62.836	-57.244	
140.00	-64.317	-30.213	
141.00	-66.188	-32.289	
142.00	-68.279	-11.826	
143.00	-67.896	-11.439	
144.00	-69.192	-1.624	
145.00	-68.951	-12.370	
146.00	-67.447	-4.153	
147.00	-66.427	-7.295	
148.00	-65.096	21.399	
149.00	-64.363	11.834	
150.00	-62.882	33.525	
151.00	-62.511	37.025	
152.00	-61.607	65.974	
153.00	-61.428	79.860	
154.00	-60.885	109.558	
155.00	-60.822	123.695	
156.00	-60.214	156.318	
157.00	-60.184	158.896	
158.00	-60.058	-176.467	
159.00	-60.304	-174.104	
160.00	-60.557	-147.800	
161.00	-61.195	-136.574	
162.00	-62.424	-130.824	
163.00	-63.174	-119.533	
164.00	-64.809	-110.837	
165.00	-66.831	-110.295	
166.00	-69.870	-114.914	
167.00	-72.432	-132.969	
168.00	-73.494	-169.962	
169.00	-71.100	161.289	
170.00	-67.123	155.405	
171.00	-64.455	149.885	
172.00	-63.262	153.477	
173.00	-61.792	153.319	
174.00	-60.485	160.536	
175.00	-59.641	162.564	
176.00	-59.360	172.347	
177.00	-58.890	169.568	
178.00	-58.809	171.901	
179.00	-58.992	167.360	
180.00	-59.288	175.168	
181.00	-59.740	171.953	
182.00	-60.700	172.908	
183.00	-61.645	173.440	
184.00	-62.891	169.383	
185.00	-64.496	170.785	
186.00	-66.418	-179.853	
187.00	-68.995	-165.692	
188.00	-71.379	-156.574	
189.00	-74.140	-131.585	
190.00	-72.917	-103.470	
191.00	-72.772	-94.161	
192.00	-70.782	-71.428	
193.00	-68.632	-77.228	
194.00	-68.455	-75.462	
195.00	-67.628	-73.110	
196.00	-67.420	-72.954	
197.00	-67.527	-77.262	
198.00	-66.985	-84.695	
199.00	-66.577	-73.212	
200.00	-66.797	-91.106	
201.00	-66.413	-79.363	
202.00	-65.605	-80.189	
203.00	-65.424	-85.090	
204.00	-64.466	-89.437	
205.00	-63.740	-102.458	
206.00	-62.965	-111.723	
207.00	-62.229	-121.031	
208.00	-62.042	-139.094	
209.00	-61.335	-147.824	
210.00	-60.835	-159.844	
211.00	-60.570	-176.384	
212.00	-60.251	168.753	
213.00	-60.081	152.747	
214.00	-59.664	135.335	
215.00	-59.846	117.381	
216.00	-59.691	92.868	
217.00	-59.881	89.067	
218.00	-59.871	70.530	
219.00	-59.946	51.950	
220.00	-60.061	37.834	
221.00	-60.134	20.943	
222.00	-60.263	11.942	
223.00	-60.253	-7.361	
224.00	-60.262	-10.925	
225.00	-59.906	-31.274	
226.00	-59.894	-39.129	
227.00	-59.559	-55.582	
228.00	-59.401	-70.709	
229.00	-59.220	-91.330	
230.00	-58.794	-103.307	
231.00	-58.806	-136.501	
232.00	-58.417	-156.259	
233.00	-58.155	-177.815	
234.00	-57.789	153.472	
235.00	-57.853	131.887	
236.00	-57.704	96.242	
237.00	-57.515	70.992	
238.00	-57.679	45.444	
239.00	-57.662	6.747	
240.00	-57.963	-7.144	
241.00	-58.468	-49.127	
242.00	-59.020	-78.491	
243.00	-59.456	-110.050	
244.00	-60.018	-143.888	
245.00	-60.716	178.416	
246.00	-61.202	141.576	
247.00	-61.682	118.259	
248.00	-62.450	94.973	
249.00	-62.824	56.039	
250.00	-63.843	68.949	
251.00	-64.743	-21.983	
252.00	-65.213	-30.229	
253.00	-66.617	-90.841	
254.00	-67.139	-116.515	
255.00	-69.112	-148.071	
256.00	-69.859	166.167	
257.00	-70.683	131.141	
258.00	-72.730	102.927	
259.00	-73.507	46.384	
260.00	-73.816	18.187	
261.00	-74.256	-39.127	
262.00	-74.882	-77.496	
263.00	-73.604	-114.076	
264.00	-72.948	-167.268	
265.00	-72.421	-175.167	
266.00	-73.858	116.972	
267.00	-74.202	91.520	
268.00	-72.806	59.268	
269.00	-72.508	19.205	
270.00	-73.025	-7.564	
271.00	-71.612	-44.795	
272.00	-71.761	-77.294	
273.00	-70.324	-118.393	
274.00	-70.155	-152.572	
275.00	-69.809	170.057	
276.00	-69.244	136.771	
277.00	-69.155	99.693	
278.00	-68.732	62.671	
279.00	-68.559	35.784	
280.00	-68.593	-4.307	
281.00	-69.272	-34.440	
282.00	-69.839	-70.295	
283.00	-70.252	-104.849	
284.00	-70.294	-143.737	
285.00	-69.930	177.498	
286.00	-69.358	139.018	
287.00	-68.814	101.230	
288.00	-68.112	71.322	
289.00	-68.319	37.852	
290.00	-68.267	2.850	
291.00	-68.726	-26.746	
292.00	-69.034	-70.888	
293.00	-69.109	-103.601	
294.00	-69.148	-145.273	
295.00	-69.915	-168.785	
296.00	-70.410	146.787	
297.00	-71.372	108.804	
298.00	-71.416	76.227	
299.00	-72.129	35.682	
300.00	-71.868	1.088	
301.00	-71.675	-45.752	
302.00	-71.930	-82.225	
303.00	-71.214	-118.807	
304.00	-70.324	-144.887	
305.00	-71.447	-178.447	
306.00	-70.668	142.743	
307.00	-71.368	109.572	
308.00	-71.761	78.381	
309.00	-73.089	35.831	
310.00	-72.686	6.114	
311.00	-73.211	-25.936	
312.00	-73.816	-65.438	
313.00	-73.778	-114.423	
314.00	-73.543	-148.387	
315.00	-72.579	-178.103	
316.00	-72.173	147.842	
317.00	-71.474	127.537	
318.00	-71.497	95.613	
319.00	-72.729	61.517	
320.00	-72.887	43.565	
321.00	-73.050	17.633	
322.00	-74.757	-20.686	
323.00	-76.736	-53.986	
324.00	-77.209	-87.674	
325.00	-76.668	-169.318	
326.00	-78.839	166.144	
327.00	-77.974	147.178	
328.00	-77.328	92.354	
329.00	-77.119	84.569	
330.00	-77.504	60.420	
331.00	-76.475	48.726	
332.00	-76.185	22.427	
333.00	-76.454	-18.159	
334.00	-76.837	-16.498	
335.00	-77.898	-61.168	
336.00	-78.423	-62.115	
337.00	-81.016	-94.169	
338.00	-80.398	-96.076	
339.00	-84.572	-113.306	
340.00	-85.716	176.911	
341.00	-85.247	134.192	
342.00	-82.236	116.443	
343.00	-81.626	97.029	
344.00	-79.670	61.781	
345.00	-82.788	42.363	
346.00	-86.171	36.371	
347.00	-91.193	-13.557	
348.00	-89.623	-14.789	
349.00	-92.638	-157.565	
350.00	-82.853	-128.747	
351.00	-80.924	-157.181	
352.00	-79.229	-148.674	
353.00	-79.204	-151.599	
354.00	-75.810	-152.230	
355.00	-77.698	-139.019	
356.00	-77.061	-154.574	
357.00	-76.733	-139.204	
358.00	-79.416	-126.947	
359.00	-81.268	-88.557	
