Test Title:	Alpha Wireless Indoor Range						
Date:	21/03/2018						
Time:	11:45						
Operator Name:	FL						
Comment:	Radome height is 74mm 						
Caib. File Name:	C:\Program Files\Midas 2.01d\Calibration Files\test sigma 180900.cal						
							
[Scan Axis] Name: 	Azimuth  [deg]Start: 	0.000000	Stop	359.000000	Increment	1.000000[Step Axis] Name: 	Start: 	0.000000	Stop	0.000000	Increment	0.000000[Tert] Name: 	None [Forth] Name: 	None  [ Freq.]  (List) 	MHz.	3400.000000	3450.000000	3500.000000	3550.000000	3600.000000	3650.000000	3700.000000	3750.000000	3800.000000	3850.000000	3900.000000	3950.000000	4000.000000	4050.000000	4100.000000	4150.000000	4200.000000
 [Switch]  	None [Channel]  	test			 [ Beam] 	None			
Database:			
First Question			
2nd			
3rd			
4th			
			
Frequency	3400.00	MHz	
Channel	test		
Scan Axis name	Azimuth  [deg]		
Scan Axis	Amplitude	Phase	
			
0.00	-86.247	-89.233	
1.00	-87.219	175.743	
2.00	-81.523	157.781	
3.00	-76.690	150.707	
4.00	-73.967	153.677	
5.00	-73.244	152.005	
6.00	-72.313	156.107	
7.00	-71.258	168.584	
8.00	-71.171	159.316	
9.00	-70.437	176.981	
10.00	-71.770	167.597	
11.00	-72.627	174.882	
12.00	-74.560	-178.886	
13.00	-75.188	-165.773	
14.00	-78.384	-143.059	
15.00	-80.458	-113.386	
16.00	-80.119	-79.146	
17.00	-78.386	-42.756	
18.00	-75.781	-31.911	
19.00	-75.462	-9.486	
20.00	-74.001	0.972	
21.00	-74.597	19.010	
22.00	-75.039	67.376	
23.00	-75.461	82.526	
24.00	-75.613	120.409	
25.00	-73.527	150.476	
26.00	-72.187	175.947	
27.00	-69.851	-165.580	
28.00	-69.155	-153.012	
29.00	-68.068	-140.790	
30.00	-67.167	-131.070	
31.00	-66.681	-123.341	
32.00	-66.586	-89.184	
33.00	-66.531	-70.288	
34.00	-66.354	-44.423	
35.00	-66.853	-32.285	
36.00	-66.897	-7.063	
37.00	-66.830	8.136	
38.00	-67.879	45.658	
39.00	-67.848	73.561	
40.00	-67.374	94.314	
41.00	-67.668	115.086	
42.00	-67.210	143.625	
43.00	-66.678	153.026	
44.00	-66.808	179.966	
45.00	-66.530	-160.942	
46.00	-66.798	-145.155	
47.00	-66.433	-115.450	
48.00	-66.846	-97.817	
49.00	-67.464	-71.603	
50.00	-67.478	-45.747	
51.00	-68.728	-12.038	
52.00	-69.481	10.864	
53.00	-70.010	39.218	
54.00	-70.674	77.758	
55.00	-70.938	104.594	
56.00	-69.437	147.762	
57.00	-68.653	168.672	
58.00	-68.239	-157.682	
59.00	-66.996	-139.132	
60.00	-66.192	-105.762	
61.00	-65.534	-86.339	
62.00	-65.439	-60.587	
63.00	-66.095	-27.859	
64.00	-66.480	-12.614	
65.00	-67.532	26.770	
66.00	-67.969	50.281	
67.00	-68.929	88.315	
68.00	-69.849	119.749	
69.00	-69.051	163.533	
70.00	-69.196	-170.505	
71.00	-68.004	-133.018	
72.00	-68.360	-117.235	
73.00	-67.863	-79.942	
74.00	-69.436	-64.159	
75.00	-70.638	-29.247	
76.00	-72.294	-12.079	
77.00	-75.087	25.133	
78.00	-79.448	58.052	
79.00	-82.352	121.231	
80.00	-86.404	-171.537	
81.00	-83.341	-124.626	
82.00	-85.617	-89.193	
83.00	-85.897	-0.442	
84.00	-78.717	56.988	
85.00	-74.530	73.750	
86.00	-70.940	110.074	
87.00	-68.526	141.117	
88.00	-66.356	157.811	
89.00	-64.589	-170.322	
90.00	-63.726	-150.835	
91.00	-62.237	-120.916	
92.00	-61.300	-102.132	
93.00	-60.201	-78.195	
94.00	-59.629	-60.217	
95.00	-58.866	-24.522	
96.00	-58.082	-9.330	
97.00	-57.446	29.924	
98.00	-56.527	49.380	
99.00	-55.742	79.657	
100.00	-54.922	106.500	
101.00	-53.994	130.261	
102.00	-53.321	153.349	
103.00	-52.470	178.513	
104.00	-51.736	-164.447	
105.00	-51.068	-132.671	
106.00	-50.454	-114.684	
107.00	-49.952	-84.665	
108.00	-49.329	-63.787	
109.00	-48.881	-36.284	
110.00	-48.299	-2.764	
111.00	-47.749	15.704	
112.00	-47.231	38.747	
113.00	-46.673	57.663	
114.00	-46.249	73.709	
115.00	-45.651	112.245	
116.00	-45.183	117.630	
117.00	-44.682	151.392	
118.00	-44.186	161.709	
119.00	-43.747	-174.507	
120.00	-43.296	-151.726	
121.00	-42.897	-137.258	
122.00	-42.494	-111.033	
123.00	-42.148	-95.600	
124.00	-41.789	-74.977	
125.00	-41.476	-57.502	
126.00	-41.198	-36.935	
127.00	-40.878	-14.244	
128.00	-40.614	4.144	
129.00	-40.367	24.524	
130.00	-40.105	43.214	
131.00	-39.889	66.485	
132.00	-39.672	78.312	
133.00	-39.450	97.898	
134.00	-39.254	114.016	
135.00	-39.087	127.121	
136.00	-38.888	143.130	
137.00	-38.701	157.101	
138.00	-38.549	172.917	
139.00	-38.344	-171.040	
140.00	-38.192	-161.238	
141.00	-38.003	-143.257	
142.00	-37.834	-139.613	
143.00	-37.647	-116.679	
144.00	-37.458	-112.753	
145.00	-37.269	-92.415	
146.00	-37.049	-85.806	
147.00	-36.874	-71.014	
148.00	-36.647	-62.046	
149.00	-36.441	-53.762	
150.00	-36.240	-50.593	
151.00	-36.050	-43.207	
152.00	-35.867	-34.864	
153.00	-35.695	-30.374	
154.00	-35.549	-18.505	
155.00	-35.414	-17.336	
156.00	-35.297	-1.326	
157.00	-35.197	-0.022	
158.00	-35.134	6.043	
159.00	-35.087	11.498	
160.00	-35.046	22.143	
161.00	-35.048	21.794	
162.00	-35.051	35.807	
163.00	-35.062	30.453	
164.00	-35.107	37.015	
165.00	-35.138	31.568	
166.00	-35.177	34.332	
167.00	-35.202	35.433	
168.00	-35.232	34.593	
169.00	-35.249	34.808	
170.00	-35.265	32.053	
171.00	-35.232	28.512	
172.00	-35.226	25.468	
173.00	-35.175	22.448	
174.00	-35.124	21.664	
175.00	-35.068	17.869	
176.00	-34.993	8.878	
177.00	-34.919	7.703	
178.00	-34.848	5.841	
179.00	-34.788	6.660	
180.00	-34.733	7.801	
181.00	-34.695	1.531	
182.00	-34.675	-0.278	
183.00	-34.691	-16.191	
184.00	-34.701	-21.668	
185.00	-34.752	-22.706	
186.00	-34.785	-32.330	
187.00	-34.883	-37.456	
188.00	-34.956	-46.381	
189.00	-35.068	-51.262	
190.00	-35.201	-58.453	
191.00	-35.319	-67.507	
192.00	-35.470	-66.910	
193.00	-35.579	-85.782	
194.00	-35.717	-87.884	
195.00	-35.855	-101.968	
196.00	-35.953	-109.808	
197.00	-36.100	-121.567	
198.00	-36.168	-136.772	
199.00	-36.279	-148.873	
200.00	-36.344	-156.505	
201.00	-36.468	-172.733	
202.00	-36.495	176.081	
203.00	-36.584	163.493	
204.00	-36.614	146.936	
205.00	-36.659	133.519	
206.00	-36.740	117.146	
207.00	-36.755	99.418	
208.00	-36.835	87.771	
209.00	-36.882	68.327	
210.00	-36.977	58.913	
211.00	-37.071	38.022	
212.00	-37.142	16.333	
213.00	-37.247	4.498	
214.00	-37.405	-13.495	
215.00	-37.505	-36.336	
216.00	-37.702	-56.594	
217.00	-37.865	-68.137	
218.00	-38.162	-91.349	
219.00	-38.360	-114.064	
220.00	-38.543	-126.465	
221.00	-38.867	-152.890	
222.00	-39.018	-175.197	
223.00	-39.373	162.645	
224.00	-39.541	139.314	
225.00	-39.900	124.313	
226.00	-40.051	91.652	
227.00	-40.354	89.861	
228.00	-40.622	61.407	
229.00	-40.916	50.478	
230.00	-41.213	24.634	
231.00	-41.490	8.713	
232.00	-41.891	-6.830	
233.00	-42.154	-36.500	
234.00	-42.508	-51.839	
235.00	-42.875	-81.144	
236.00	-43.277	-97.295	
237.00	-43.753	-127.383	
238.00	-44.127	-143.969	
239.00	-44.697	-177.780	
240.00	-45.049	154.654	
241.00	-45.654	130.688	
242.00	-46.008	103.945	
243.00	-46.519	82.866	
244.00	-46.951	55.557	
245.00	-47.457	31.172	
246.00	-47.922	-1.214	
247.00	-48.282	-27.375	
248.00	-48.803	-51.347	
249.00	-49.298	-78.947	
250.00	-49.732	-99.425	
251.00	-50.438	-132.829	
252.00	-50.931	-146.933	
253.00	-51.613	178.289	
254.00	-52.079	156.752	
255.00	-52.637	122.434	
256.00	-52.984	95.261	
257.00	-53.568	60.624	
258.00	-53.893	32.703	
259.00	-54.242	11.536	
260.00	-54.580	-23.154	
261.00	-55.151	-39.800	
262.00	-55.683	-73.314	
263.00	-56.389	-95.294	
264.00	-57.094	-125.197	
265.00	-57.965	-153.252	
266.00	-58.896	175.707	
267.00	-59.544	143.861	
268.00	-60.300	115.084	
269.00	-60.882	78.631	
270.00	-61.202	50.037	
271.00	-61.211	12.529	
272.00	-61.245	-22.670	
273.00	-61.368	-54.476	
274.00	-62.154	-88.783	
275.00	-62.670	-115.767	
276.00	-63.651	-145.631	
277.00	-64.489	-179.671	
278.00	-65.631	145.704	
279.00	-66.251	103.010	
280.00	-66.469	74.107	
281.00	-66.532	34.105	
282.00	-65.562	-4.244	
283.00	-65.167	-37.012	
284.00	-64.505	-69.602	
285.00	-64.764	-102.023	
286.00	-64.590	-134.875	
287.00	-64.504	-165.686	
288.00	-64.217	173.275	
289.00	-64.851	143.104	
290.00	-64.749	109.168	
291.00	-64.766	88.043	
292.00	-65.277	63.854	
293.00	-64.987	19.128	
294.00	-65.336	-1.395	
295.00	-65.002	-36.505	
296.00	-65.125	-52.418	
297.00	-64.879	-93.896	
298.00	-64.843	-108.201	
299.00	-65.443	-144.360	
300.00	-65.750	-171.207	
301.00	-66.315	165.696	
302.00	-66.583	130.843	
303.00	-67.124	113.133	
304.00	-67.490	74.955	
305.00	-67.493	40.286	
306.00	-67.308	8.383	
307.00	-67.043	-17.803	
308.00	-66.712	-42.426	
309.00	-65.964	-70.608	
310.00	-66.536	-87.999	
311.00	-66.932	-115.188	
312.00	-67.315	-135.537	
313.00	-68.785	-165.881	
314.00	-69.622	164.831	
315.00	-71.322	141.303	
316.00	-72.238	98.266	
317.00	-71.352	61.035	
318.00	-70.989	25.836	
319.00	-69.447	-2.362	
320.00	-67.592	-22.759	
321.00	-66.951	-47.522	
322.00	-66.393	-66.422	
323.00	-65.846	-80.250	
324.00	-66.516	-99.087	
325.00	-67.066	-111.505	
326.00	-67.488	-128.757	
327.00	-68.889	-142.468	
328.00	-70.381	-165.176	
329.00	-71.549	178.396	
330.00	-74.781	156.801	
331.00	-78.271	123.060	
332.00	-79.967	73.080	
333.00	-77.344	15.501	
334.00	-75.805	-6.133	
335.00	-74.007	-39.154	
336.00	-72.007	-44.728	
337.00	-71.793	-67.815	
338.00	-70.149	-79.203	
339.00	-70.090	-98.449	
340.00	-70.047	-123.116	
341.00	-71.075	-119.292	
342.00	-71.909	-137.243	
343.00	-73.984	-154.516	
344.00	-75.794	-163.806	
345.00	-77.644	164.153	
346.00	-80.550	140.842	
347.00	-82.762	70.568	
348.00	-79.391	58.006	
349.00	-74.865	17.066	
350.00	-74.589	19.905	
351.00	-73.184	8.028	
352.00	-72.306	2.236	
353.00	-72.406	-5.837	
354.00	-72.828	-12.938	
355.00	-72.316	-19.941	
356.00	-73.823	-25.401	
357.00	-75.653	-29.207	
358.00	-77.945	-38.640	
359.00	-80.996	-54.981	
Frequency	3450.00	MHz	
Channel	test		
Scan Axis name	Azimuth  [deg]		
Scan Axis	Amplitude	Phase	
			
0.00	-86.077	5.551	
1.00	-90.938	-162.522	
2.00	-81.729	-157.986	
3.00	-81.210	-166.833	
4.00	-76.525	-148.943	
5.00	-75.252	-148.686	
6.00	-73.216	-139.225	
7.00	-74.132	-130.528	
8.00	-74.393	-129.760	
9.00	-73.247	-116.970	
10.00	-74.552	-126.963	
11.00	-75.655	-111.463	
12.00	-76.477	-102.115	
13.00	-78.529	-78.757	
14.00	-76.628	-73.649	
15.00	-77.801	-42.808	
16.00	-79.251	-18.800	
17.00	-79.435	-11.211	
18.00	-76.620	8.992	
19.00	-77.961	38.789	
20.00	-78.996	45.710	
21.00	-80.322	67.963	
22.00	-82.436	143.098	
23.00	-82.979	149.155	
24.00	-78.732	-150.823	
25.00	-76.274	-125.303	
26.00	-74.453	-103.203	
27.00	-72.740	-92.759	
28.00	-71.633	-81.642	
29.00	-69.818	-69.677	
30.00	-69.759	-60.810	
31.00	-69.477	-49.448	
32.00	-69.014	-22.204	
33.00	-70.419	-2.783	
34.00	-71.534	23.143	
35.00	-71.618	43.139	
36.00	-72.606	70.527	
37.00	-73.093	98.336	
38.00	-72.363	142.694	
39.00	-71.242	170.872	
40.00	-70.170	-170.625	
41.00	-69.249	-150.213	
42.00	-68.362	-117.593	
43.00	-68.746	-106.915	
44.00	-68.395	-85.070	
45.00	-68.227	-70.046	
46.00	-68.338	-54.611	
47.00	-68.376	-25.543	
48.00	-69.563	-11.576	
49.00	-70.679	15.882	
50.00	-70.656	46.499	
51.00	-72.197	85.848	
52.00	-72.620	117.236	
53.00	-71.885	140.033	
54.00	-71.106	-171.329	
55.00	-71.389	-143.424	
56.00	-70.325	-112.994	
57.00	-68.874	-99.439	
58.00	-68.188	-58.428	
59.00	-67.639	-52.196	
60.00	-67.461	-16.006	
61.00	-68.156	6.090	
62.00	-68.868	30.347	
63.00	-69.661	72.348	
64.00	-71.456	90.421	
65.00	-70.732	142.143	
66.00	-71.006	163.339	
67.00	-69.272	-150.761	
68.00	-69.202	-129.418	
69.00	-69.123	-90.312	
70.00	-70.459	-66.168	
71.00	-71.254	-37.141	
72.00	-73.171	-8.149	
73.00	-73.936	30.135	
74.00	-76.876	30.110	
75.00	-81.829	142.364	
76.00	-76.485	153.937	
77.00	-76.256	-155.768	
78.00	-75.600	-116.606	
79.00	-77.267	-78.953	
80.00	-74.032	-62.970	
81.00	-77.123	-34.104	
82.00	-78.652	51.439	
83.00	-75.929	100.526	
84.00	-73.919	137.144	
85.00	-70.050	171.200	
86.00	-67.310	-156.583	
87.00	-65.558	-130.733	
88.00	-64.573	-106.557	
89.00	-63.407	-77.039	
90.00	-62.778	-57.205	
91.00	-61.699	-25.917	
92.00	-61.534	-6.165	
93.00	-60.866	24.109	
94.00	-60.316	40.453	
95.00	-59.497	83.615	
96.00	-58.731	98.721	
97.00	-57.864	138.670	
98.00	-56.989	158.621	
99.00	-56.276	-169.378	
100.00	-55.300	-144.168	
101.00	-54.484	-119.470	
102.00	-53.984	-97.415	
103.00	-53.128	-72.076	
104.00	-52.639	-53.872	
105.00	-52.189	-22.404	
106.00	-51.669	-3.263	
107.00	-51.208	27.982	
108.00	-50.770	49.085	
109.00	-50.249	77.821	
110.00	-49.736	112.371	
111.00	-49.281	131.179	
112.00	-48.709	154.221	
113.00	-48.226	172.825	
114.00	-47.731	-170.384	
115.00	-47.121	-132.627	
116.00	-46.679	-126.375	
117.00	-46.220	-93.121	
118.00	-45.793	-83.712	
119.00	-45.427	-59.585	
120.00	-45.026	-37.277	
121.00	-44.683	-22.542	
122.00	-44.355	3.981	
123.00	-44.032	19.627	
124.00	-43.666	40.267	
125.00	-43.385	57.715	
126.00	-43.193	79.127	
127.00	-42.802	101.692	
128.00	-42.501	120.608	
129.00	-42.176	140.955	
130.00	-41.915	159.947	
131.00	-41.607	-176.773	
132.00	-41.321	-165.283	
133.00	-41.104	-145.284	
134.00	-40.840	-129.574	
135.00	-40.635	-116.470	
136.00	-40.424	-100.320	
137.00	-40.193	-86.713	
138.00	-40.041	-70.432	
139.00	-39.804	-54.844	
140.00	-39.624	-44.591	
141.00	-39.446	-26.668	
142.00	-39.261	-22.697	
143.00	-39.042	0.710	
144.00	-38.828	4.564	
145.00	-38.632	25.788	
146.00	-38.383	31.965	
147.00	-38.210	47.548	
148.00	-37.969	56.365	
149.00	-37.731	65.072	
150.00	-37.520	67.984	
151.00	-37.313	76.027	
152.00	-37.091	84.511	
153.00	-36.910	89.043	
154.00	-36.741	101.219	
155.00	-36.587	102.546	
156.00	-36.470	118.999	
157.00	-36.357	120.174	
158.00	-36.277	126.548	
159.00	-36.232	132.498	
160.00	-36.173	142.961	
161.00	-36.171	143.065	
162.00	-36.168	157.165	
163.00	-36.195	151.694	
164.00	-36.224	158.722	
165.00	-36.282	152.798	
166.00	-36.336	156.209	
167.00	-36.383	156.953	
168.00	-36.430	156.138	
169.00	-36.469	156.120	
170.00	-36.483	153.127	
171.00	-36.468	149.497	
172.00	-36.475	145.937	
173.00	-36.413	142.794	
174.00	-36.345	141.742	
175.00	-36.270	137.541	
176.00	-36.173	128.358	
177.00	-36.081	126.798	
178.00	-35.961	125.415	
179.00	-35.849	125.670	
180.00	-35.750	126.980	
181.00	-35.676	120.622	
182.00	-35.620	118.810	
183.00	-35.601	102.489	
184.00	-35.586	97.715	
185.00	-35.603	96.244	
186.00	-35.639	87.211	
187.00	-35.711	81.859	
188.00	-35.778	73.276	
189.00	-35.908	68.532	
190.00	-36.042	61.434	
191.00	-36.190	52.768	
192.00	-36.365	53.289	
193.00	-36.528	34.306	
194.00	-36.700	32.432	
195.00	-36.879	17.832	
196.00	-37.027	10.130	
197.00	-37.204	-2.333	
198.00	-37.295	-17.692	
199.00	-37.446	-30.420	
200.00	-37.516	-38.048	
201.00	-37.624	-55.523	
202.00	-37.646	-66.635	
203.00	-37.702	-80.010	
204.00	-37.684	-96.960	
205.00	-37.695	-110.695	
206.00	-37.733	-127.761	
207.00	-37.701	-145.418	
208.00	-37.730	-157.725	
209.00	-37.714	-177.307	
210.00	-37.739	172.999	
211.00	-37.787	151.679	
212.00	-37.811	129.787	
213.00	-37.859	118.064	
214.00	-37.922	99.380	
215.00	-37.969	76.489	
216.00	-38.066	55.974	
217.00	-38.150	44.917	
218.00	-38.342	21.280	
219.00	-38.435	-1.173	
220.00	-38.577	-13.288	
221.00	-38.800	-40.045	
222.00	-38.907	-61.438	
223.00	-39.202	-84.213	
224.00	-39.335	-106.226	
225.00	-39.693	-121.678	
226.00	-39.873	-153.191	
227.00	-40.172	-155.043	
228.00	-40.469	176.497	
229.00	-40.776	166.240	
230.00	-41.117	139.802	
231.00	-41.390	124.637	
232.00	-41.813	108.498	
233.00	-42.080	78.488	
234.00	-42.454	63.078	
235.00	-42.842	33.182	
236.00	-43.190	16.919	
237.00	-43.598	-13.617	
238.00	-43.986	-29.813	
239.00	-44.524	-64.336	
240.00	-44.883	-90.403	
241.00	-45.444	-115.017	
242.00	-45.832	-140.745	
243.00	-46.383	-161.934	
244.00	-46.931	171.179	
245.00	-47.487	146.607	
246.00	-48.130	113.560	
247.00	-48.638	86.704	
248.00	-49.099	62.116	
249.00	-49.630	33.739	
250.00	-50.121	12.671	
251.00	-50.630	-21.142	
252.00	-51.138	-35.379	
253.00	-51.783	-70.098	
254.00	-52.298	-90.633	
255.00	-53.052	-124.186	
256.00	-53.564	-152.561	
257.00	-54.418	173.246	
258.00	-54.814	145.052	
259.00	-55.432	121.972	
260.00	-55.839	83.790	
261.00	-56.329	65.403	
262.00	-56.621	28.963	
263.00	-56.928	5.408	
264.00	-57.354	-25.782	
265.00	-57.638	-51.612	
266.00	-58.242	-82.928	
267.00	-58.941	-109.811	
268.00	-59.437	-138.071	
269.00	-60.509	-170.865	
270.00	-61.057	159.406	
271.00	-61.946	121.124	
272.00	-62.222	82.373	
273.00	-62.718	50.407	
274.00	-62.437	11.128	
275.00	-62.773	-16.452	
276.00	-63.080	-46.439	
277.00	-63.255	-75.006	
278.00	-64.044	-104.135	
279.00	-64.886	-138.758	
280.00	-65.960	-165.483	
281.00	-67.336	159.198	
282.00	-68.669	119.311	
283.00	-69.492	77.577	
284.00	-68.608	39.641	
285.00	-68.205	1.181	
286.00	-66.961	-37.248	
287.00	-66.584	-67.196	
288.00	-66.305	-86.787	
289.00	-66.631	-116.916	
290.00	-67.277	-148.108	
291.00	-67.386	-170.412	
292.00	-68.040	165.233	
293.00	-69.408	117.438	
294.00	-69.668	89.891	
295.00	-69.680	49.974	
296.00	-69.302	28.555	
297.00	-68.332	-13.869	
298.00	-67.043	-32.450	
299.00	-66.862	-67.603	
300.00	-66.715	-90.063	
301.00	-66.667	-111.674	
302.00	-67.545	-141.003	
303.00	-67.789	-158.137	
304.00	-69.703	165.722	
305.00	-69.833	136.290	
306.00	-71.633	97.667	
307.00	-70.894	61.613	
308.00	-70.308	27.568	
309.00	-69.055	-2.994	
310.00	-68.767	-22.375	
311.00	-68.032	-53.586	
312.00	-67.542	-69.577	
313.00	-68.427	-97.255	
314.00	-68.510	-120.142	
315.00	-69.196	-141.192	
316.00	-70.810	-170.391	
317.00	-72.541	164.025	
318.00	-72.472	125.252	
319.00	-72.515	94.267	
320.00	-72.004	58.425	
321.00	-70.088	33.469	
322.00	-69.384	8.909	
323.00	-69.097	-9.657	
324.00	-68.427	-30.428	
325.00	-68.232	-43.927	
326.00	-68.554	-62.300	
327.00	-69.355	-76.164	
328.00	-69.977	-90.501	
329.00	-71.742	-109.523	
330.00	-73.794	-124.141	
331.00	-75.424	-143.447	
332.00	-78.249	-173.046	
333.00	-81.711	139.863	
334.00	-79.833	84.867	
335.00	-77.849	40.537	
336.00	-76.873	40.404	
337.00	-73.202	0.234	
338.00	-73.066	-4.485	
339.00	-72.431	-29.674	
340.00	-72.174	-46.363	
341.00	-71.948	-46.539	
342.00	-72.024	-55.322	
343.00	-73.424	-66.339	
344.00	-74.647	-79.172	
345.00	-76.679	-88.634	
346.00	-77.959	-94.358	
347.00	-84.415	-117.206	
348.00	-93.019	-114.772	
349.00	-94.069	83.088	
350.00	-84.482	92.146	
351.00	-81.757	59.282	
352.00	-79.839	66.007	
353.00	-79.562	54.541	
354.00	-79.636	62.931	
355.00	-79.503	46.210	
356.00	-80.860	50.815	
357.00	-86.245	59.278	
358.00	-89.261	46.057	
359.00	-90.473	-160.583	
Frequency	3500.00	MHz	
Channel	test		
Scan Axis name	Azimuth  [deg]		
Scan Axis	Amplitude	Phase	
			
0.00	-78.603	73.342	
1.00	-81.172	80.771	
2.00	-86.467	83.944	
3.00	-92.764	149.330	
4.00	-88.397	174.993	
5.00	-88.594	-120.549	
6.00	-81.912	-110.218	
7.00	-81.785	-84.492	
8.00	-82.186	-93.920	
9.00	-79.021	-65.214	
10.00	-81.346	-65.846	
11.00	-84.126	-51.638	
12.00	-80.568	-31.432	
13.00	-82.222	-6.193	
14.00	-82.275	21.981	
15.00	-79.559	30.617	
16.00	-79.450	55.779	
17.00	-77.125	58.925	
18.00	-78.246	65.797	
19.00	-78.506	88.771	
20.00	-78.585	104.998	
21.00	-79.773	121.879	
22.00	-80.125	171.633	
23.00	-82.185	-162.214	
24.00	-77.890	-108.489	
25.00	-77.466	-81.177	
26.00	-75.540	-56.289	
27.00	-72.137	-36.259	
28.00	-71.920	-33.630	
29.00	-71.114	-22.211	
30.00	-70.082	-6.353	
31.00	-69.826	-1.006	
32.00	-68.920	34.570	
33.00	-69.276	46.727	
34.00	-69.951	75.188	
35.00	-70.641	89.802	
36.00	-70.854	116.689	
37.00	-71.520	134.236	
38.00	-72.811	174.461	
39.00	-73.100	-150.594	
40.00	-72.689	-127.472	
41.00	-72.372	-108.480	
42.00	-71.280	-70.013	
43.00	-71.026	-59.639	
44.00	-70.793	-30.921	
45.00	-69.980	-9.206	
46.00	-70.435	3.155	
47.00	-70.038	32.706	
48.00	-70.718	47.460	
49.00	-72.172	78.195	
50.00	-72.202	104.221	
51.00	-72.695	147.223	
52.00	-74.532	-174.647	
53.00	-74.267	-145.734	
54.00	-73.100	-102.842	
55.00	-71.803	-73.887	
56.00	-69.861	-40.353	
57.00	-68.783	-28.108	
58.00	-68.116	3.223	
59.00	-67.237	18.765	
60.00	-67.232	44.847	
61.00	-67.946	64.810	
62.00	-68.656	95.197	
63.00	-70.017	126.466	
64.00	-71.100	149.316	
65.00	-72.486	-153.861	
66.00	-72.341	-127.127	
67.00	-72.343	-90.361	
68.00	-71.864	-64.028	
69.00	-71.255	-25.425	
70.00	-72.432	-9.514	
71.00	-71.376	36.582	
72.00	-72.437	40.223	
73.00	-74.777	73.078	
74.00	-77.753	88.952	
75.00	-82.727	83.723	
76.00	-83.158	52.127	
77.00	-85.203	41.996	
78.00	-79.116	45.398	
79.00	-75.573	83.601	
80.00	-74.969	88.172	
81.00	-74.154	124.397	
82.00	-73.103	155.805	
83.00	-71.883	-166.296	
84.00	-70.368	-125.887	
85.00	-68.582	-95.135	
86.00	-66.797	-66.427	
87.00	-65.164	-31.205	
88.00	-63.641	-10.873	
89.00	-62.819	20.475	
90.00	-61.835	43.770	
91.00	-61.187	73.011	
92.00	-60.348	92.144	
93.00	-59.689	121.516	
94.00	-59.061	138.628	
95.00	-58.433	179.840	
96.00	-57.696	-165.611	
97.00	-56.882	-125.523	
98.00	-56.011	-106.135	
99.00	-55.257	-72.491	
100.00	-54.477	-47.594	
101.00	-53.619	-23.214	
102.00	-52.967	-0.772	
103.00	-52.212	26.535	
104.00	-51.653	42.723	
105.00	-51.207	75.848	
106.00	-50.638	93.904	
107.00	-50.228	126.095	
108.00	-49.636	146.372	
109.00	-49.330	177.127	
110.00	-48.802	-149.362	
111.00	-48.309	-130.175	
112.00	-47.878	-106.852	
113.00	-47.287	-88.372	
114.00	-46.860	-70.450	
115.00	-46.213	-32.640	
116.00	-45.801	-26.171	
117.00	-45.276	8.112	
118.00	-44.816	17.529	
119.00	-44.431	42.679	
120.00	-43.991	65.170	
121.00	-43.594	79.923	
122.00	-43.241	106.888	
123.00	-42.873	122.469	
124.00	-42.521	143.789	
125.00	-42.178	161.180	
126.00	-41.894	-176.805	
127.00	-41.557	-154.093	
128.00	-41.217	-134.920	
129.00	-40.904	-113.896	
130.00	-40.602	-94.549	
131.00	-40.314	-70.863	
132.00	-39.998	-58.720	
133.00	-39.770	-38.321	
134.00	-39.514	-21.892	
135.00	-39.287	-8.182	
136.00	-39.085	8.584	
137.00	-38.883	22.836	
138.00	-38.703	40.227	
139.00	-38.496	56.207	
140.00	-38.352	67.568	
141.00	-38.166	85.754	
142.00	-38.007	90.408	
143.00	-37.847	114.413	
144.00	-37.715	118.698	
145.00	-37.571	140.468	
146.00	-37.430	146.893	
147.00	-37.320	162.895	
148.00	-37.153	171.755	
149.00	-36.994	-179.262	
150.00	-36.823	-176.556	
151.00	-36.685	-168.283	
152.00	-36.520	-160.287	
153.00	-36.371	-155.547	
154.00	-36.234	-143.688	
155.00	-36.086	-142.516	
156.00	-35.943	-126.247	
157.00	-35.819	-125.349	
158.00	-35.687	-119.327	
159.00	-35.602	-113.238	
160.00	-35.525	-103.059	
161.00	-35.464	-102.840	
162.00	-35.398	-88.723	
163.00	-35.348	-94.380	
164.00	-35.319	-86.868	
165.00	-35.308	-92.943	
166.00	-35.303	-88.714	
167.00	-35.292	-87.972	
168.00	-35.310	-87.917	
169.00	-35.324	-87.390	
170.00	-35.336	-89.882	
171.00	-35.358	-92.909	
172.00	-35.381	-96.053	
173.00	-35.387	-98.510	
174.00	-35.403	-99.137	
175.00	-35.401	-103.310	
176.00	-35.393	-112.144	
177.00	-35.400	-113.839	
178.00	-35.370	-114.904	
179.00	-35.343	-115.020	
180.00	-35.317	-113.882	
181.00	-35.309	-120.648	
182.00	-35.288	-123.075	
183.00	-35.306	-140.202	
184.00	-35.300	-144.738	
185.00	-35.357	-147.111	
186.00	-35.372	-156.123	
187.00	-35.445	-162.100	
188.00	-35.504	-170.912	
189.00	-35.592	-175.858	
190.00	-35.708	176.581	
191.00	-35.820	168.299	
192.00	-35.951	168.326	
193.00	-36.075	149.536	
194.00	-36.216	147.828	
195.00	-36.371	133.074	
196.00	-36.522	126.176	
197.00	-36.694	113.383	
198.00	-36.813	98.906	
199.00	-36.971	85.937	
200.00	-37.090	79.200	
201.00	-37.253	61.525	
202.00	-37.341	51.162	
203.00	-37.466	37.562	
204.00	-37.573	20.699	
205.00	-37.668	7.049	
206.00	-37.793	-10.631	
207.00	-37.845	-28.178	
208.00	-37.960	-41.055	
209.00	-38.022	-60.866	
210.00	-38.112	-71.009	
211.00	-38.212	-93.079	
212.00	-38.284	-115.582	
213.00	-38.338	-127.364	
214.00	-38.482	-146.998	
215.00	-38.526	-170.297	
216.00	-38.665	168.457	
217.00	-38.759	157.100	
218.00	-38.956	132.428	
219.00	-39.088	109.188	
220.00	-39.210	97.017	
221.00	-39.430	69.031	
222.00	-39.543	47.842	
223.00	-39.848	24.173	
224.00	-40.001	2.083	
225.00	-40.355	-14.757	
226.00	-40.484	-45.860	
227.00	-40.784	-48.410	
228.00	-41.093	-77.463	
229.00	-41.361	-88.121	
230.00	-41.715	-115.291	
231.00	-42.011	-130.542	
232.00	-42.388	-147.833	
233.00	-42.670	-177.774	
234.00	-42.993	165.860	
235.00	-43.328	135.296	
236.00	-43.665	118.990	
237.00	-44.069	87.385	
238.00	-44.436	71.437	
239.00	-44.938	35.340	
240.00	-45.293	9.323	
241.00	-45.886	-16.716	
242.00	-46.281	-42.228	
243.00	-46.790	-64.743	
244.00	-47.314	-92.169	
245.00	-47.903	-117.714	
246.00	-48.395	-152.206	
247.00	-48.824	-179.193	
248.00	-49.286	155.685	
249.00	-49.673	126.702	
250.00	-50.137	104.855	
251.00	-50.551	71.005	
252.00	-51.034	57.135	
253.00	-51.563	21.958	
254.00	-52.114	2.348	
255.00	-52.749	-32.583	
256.00	-53.442	-60.377	
257.00	-54.289	-96.910	
258.00	-54.728	-125.200	
259.00	-55.219	-150.178	
260.00	-55.668	172.220	
261.00	-55.998	152.770	
262.00	-56.196	115.593	
263.00	-56.403	92.841	
264.00	-56.761	61.272	
265.00	-57.157	34.688	
266.00	-57.514	3.388	
267.00	-58.096	-25.156	
268.00	-58.802	-52.627	
269.00	-59.626	-86.180	
270.00	-60.212	-116.571	
271.00	-60.739	-156.235	
272.00	-60.899	165.828	
273.00	-61.149	134.225	
274.00	-61.043	96.387	
275.00	-61.137	71.007	
276.00	-61.400	40.353	
277.00	-61.724	12.955	
278.00	-62.430	-19.071	
279.00	-63.506	-52.156	
280.00	-64.403	-79.451	
281.00	-65.872	-116.113	
282.00	-65.828	-155.177	
283.00	-66.424	169.462	
284.00	-65.879	138.783	
285.00	-66.060	105.599	
286.00	-65.993	70.299	
287.00	-66.469	40.130	
288.00	-67.598	20.528	
289.00	-68.279	-10.705	
290.00	-69.858	-47.892	
291.00	-70.465	-78.009	
292.00	-70.615	-106.129	
293.00	-71.322	-162.136	
294.00	-70.778	171.578	
295.00	-70.130	129.825	
296.00	-70.023	113.480	
297.00	-69.312	71.319	
298.00	-68.929	58.317	
299.00	-68.794	22.518	
300.00	-69.601	-7.587	
301.00	-70.228	-27.101	
302.00	-70.573	-60.248	
303.00	-71.439	-85.675	
304.00	-72.421	-123.126	
305.00	-71.737	-169.833	
306.00	-71.964	157.344	
307.00	-71.187	128.869	
308.00	-70.233	101.130	
309.00	-68.809	70.203	
310.00	-68.537	53.609	
311.00	-68.486	27.837	
312.00	-68.209	16.021	
313.00	-68.961	-12.621	
314.00	-70.240	-37.073	
315.00	-71.446	-50.549	
316.00	-73.572	-83.584	
317.00	-75.718	-112.256	
318.00	-77.715	-159.351	
319.00	-77.097	145.776	
320.00	-75.248	110.729	
321.00	-73.091	89.194	
322.00	-72.089	61.907	
323.00	-71.615	49.700	
324.00	-71.179	30.303	
325.00	-70.809	15.268	
326.00	-72.118	-6.606	
327.00	-72.290	-20.463	
328.00	-73.387	-47.250	
329.00	-75.129	-62.406	
330.00	-75.749	-92.460	
331.00	-75.548	-105.181	
332.00	-78.759	-141.088	
333.00	-78.305	-173.460	
334.00	-77.139	154.148	
335.00	-77.216	123.339	
336.00	-77.005	103.892	
337.00	-77.175	66.260	
338.00	-74.797	55.459	
339.00	-75.312	32.687	
340.00	-73.983	4.467	
341.00	-74.302	13.901	
342.00	-74.440	-4.443	
343.00	-73.684	-13.561	
344.00	-74.841	-19.370	
345.00	-77.892	-35.956	
346.00	-78.611	-33.280	
347.00	-85.207	-43.527	
348.00	-95.761	-66.742	
349.00	-94.678	69.629	
350.00	-90.503	100.108	
351.00	-81.580	94.722	
352.00	-81.029	102.271	
353.00	-77.008	95.022	
354.00	-77.718	84.918	
355.00	-76.577	80.950	
356.00	-76.499	92.937	
357.00	-77.613	85.129	
358.00	-79.194	86.684	
359.00	-82.086	79.667	
Frequency	3550.00	MHz	
Channel	test		
Scan Axis name	Azimuth  [deg]		
Scan Axis	Amplitude	Phase	
			
0.00	-76.991	156.881	
1.00	-77.896	160.508	
2.00	-78.132	179.122	
3.00	-79.544	-171.060	
4.00	-82.541	177.431	
5.00	-81.900	-160.828	
6.00	-85.119	-141.819	
7.00	-86.844	-160.968	
8.00	-90.538	178.869	
9.00	-88.060	174.214	
10.00	-84.978	162.491	
11.00	-84.436	165.787	
12.00	-81.747	159.757	
13.00	-78.754	162.916	
14.00	-76.398	157.588	
15.00	-75.508	174.438	
16.00	-73.800	175.756	
17.00	-73.939	-171.702	
18.00	-72.895	-161.612	
19.00	-72.868	-152.437	
20.00	-73.028	-143.693	
21.00	-72.205	-118.464	
22.00	-74.018	-79.561	
23.00	-73.063	-68.390	
24.00	-73.100	-32.874	
25.00	-72.435	-10.018	
26.00	-71.268	12.307	
27.00	-70.070	32.916	
28.00	-70.136	37.031	
29.00	-69.641	56.379	
30.00	-68.882	73.786	
31.00	-68.649	84.872	
32.00	-68.390	119.990	
33.00	-67.859	137.776	
34.00	-68.170	170.181	
35.00	-67.869	-177.367	
36.00	-68.153	-153.654	
37.00	-68.555	-136.821	
38.00	-69.407	-101.800	
39.00	-69.646	-75.854	
40.00	-70.625	-51.800	
41.00	-70.739	-26.689	
42.00	-70.543	9.963	
43.00	-71.726	28.563	
44.00	-70.211	60.788	
45.00	-69.740	81.135	
46.00	-69.170	101.246	
47.00	-68.570	133.704	
48.00	-68.965	150.094	
49.00	-68.924	178.922	
50.00	-68.947	-148.862	
51.00	-69.612	-117.700	
52.00	-69.809	-87.400	
53.00	-69.396	-61.071	
54.00	-69.324	-20.378	
55.00	-68.890	4.710	
56.00	-67.666	35.237	
57.00	-66.832	50.814	
58.00	-66.123	88.334	
59.00	-65.759	101.405	
60.00	-65.463	134.495	
61.00	-65.932	151.227	
62.00	-66.423	-176.105	
63.00	-67.278	-146.760	
64.00	-68.612	-125.196	
65.00	-69.595	-79.095	
66.00	-70.930	-50.309	
67.00	-71.235	-12.301	
68.00	-71.180	21.608	
69.00	-70.005	59.864	
70.00	-70.377	79.850	
71.00	-69.332	116.953	
72.00	-70.122	125.673	
73.00	-70.816	155.473	
74.00	-74.168	170.162	
75.00	-74.687	-171.990	
76.00	-76.655	-169.990	
77.00	-78.861	-169.026	
78.00	-78.231	-164.955	
79.00	-78.453	-166.133	
80.00	-75.849	-154.187	
81.00	-76.181	-123.021	
82.00	-75.243	-86.636	
83.00	-74.203	-47.598	
84.00	-71.832	-2.491	
85.00	-69.942	29.221	
86.00	-67.263	59.034	
87.00	-65.119	94.052	
88.00	-63.475	115.914	
89.00	-61.911	142.436	
90.00	-61.204	163.029	
91.00	-60.089	-167.823	
92.00	-59.168	-148.980	
93.00	-58.558	-124.065	
94.00	-57.993	-105.470	
95.00	-57.492	-64.469	
96.00	-56.848	-48.163	
97.00	-56.169	-9.335	
98.00	-55.412	12.112	
99.00	-54.306	46.339	
100.00	-53.710	71.129	
101.00	-52.687	95.624	
102.00	-52.004	119.026	
103.00	-51.318	144.221	
104.00	-50.731	161.277	
105.00	-50.173	-165.333	
106.00	-49.727	-148.522	
107.00	-49.295	-115.550	
108.00	-48.782	-94.985	
109.00	-48.451	-64.390	
110.00	-47.859	-30.314	
111.00	-47.420	-10.696	
112.00	-46.836	13.198	
113.00	-46.304	31.402	
114.00	-45.835	50.006	
115.00	-45.197	87.544	
116.00	-44.767	93.810	
117.00	-44.217	128.357	
118.00	-43.759	137.549	
119.00	-43.336	162.929	
120.00	-42.922	-174.569	
121.00	-42.577	-159.551	
122.00	-42.221	-132.684	
123.00	-41.904	-116.773	
124.00	-41.576	-95.393	
125.00	-41.254	-77.700	
126.00	-40.983	-54.995	
127.00	-40.634	-32.013	
128.00	-40.336	-12.593	
129.00	-40.010	8.762	
130.00	-39.718	28.405	
131.00	-39.422	52.444	
132.00	-39.176	64.763	
133.00	-38.936	85.388	
134.00	-38.693	102.249	
135.00	-38.529	116.276	
136.00	-38.319	133.285	
137.00	-38.155	147.627	
138.00	-38.031	165.552	
139.00	-37.884	-178.771	
140.00	-37.798	-166.898	
141.00	-37.659	-148.920	
142.00	-37.578	-143.713	
143.00	-37.475	-119.382	
144.00	-37.388	-115.103	
145.00	-37.309	-93.008	
146.00	-37.198	-86.943	
147.00	-37.118	-70.497	
148.00	-36.998	-62.338	
149.00	-36.896	-53.198	
150.00	-36.760	-51.080	
151.00	-36.640	-42.653	
152.00	-36.485	-35.114	
153.00	-36.353	-30.380	
154.00	-36.219	-18.859	
155.00	-36.077	-17.656	
156.00	-35.925	-1.549	
157.00	-35.803	-0.789	
158.00	-35.666	5.143	
159.00	-35.564	11.474	
160.00	-35.470	21.232	
161.00	-35.397	21.956	
162.00	-35.322	35.952	
163.00	-35.285	30.176	
164.00	-35.257	38.277	
165.00	-35.244	31.847	
166.00	-35.262	36.710	
167.00	-35.281	37.148	
168.00	-35.324	37.716	
169.00	-35.367	38.287	
170.00	-35.413	35.877	
171.00	-35.488	32.968	
172.00	-35.547	29.669	
173.00	-35.617	27.378	
174.00	-35.663	26.553	
175.00	-35.725	22.162	
176.00	-35.761	13.170	
177.00	-35.788	11.026	
178.00	-35.778	10.299	
179.00	-35.769	9.671	
180.00	-35.765	10.651	
181.00	-35.753	3.497	
182.00	-35.753	0.630	
183.00	-35.768	-17.318	
184.00	-35.753	-21.531	
185.00	-35.790	-24.632	
186.00	-35.798	-33.443	
187.00	-35.847	-40.028	
188.00	-35.889	-48.852	
189.00	-35.975	-54.142	
190.00	-36.070	-61.820	
191.00	-36.189	-69.924	
192.00	-36.330	-70.471	
193.00	-36.452	-89.568	
194.00	-36.604	-91.260	
195.00	-36.769	-106.656	
196.00	-36.909	-113.528	
197.00	-37.102	-127.269	
198.00	-37.209	-141.841	
199.00	-37.373	-155.541	
200.00	-37.472	-162.296	
201.00	-37.629	178.948	
202.00	-37.688	168.645	
203.00	-37.801	154.057	
204.00	-37.872	136.992	
205.00	-37.924	122.982	
206.00	-38.027	104.410	
207.00	-38.067	86.784	
208.00	-38.132	73.411	
209.00	-38.164	53.381	
210.00	-38.248	42.759	
211.00	-38.316	20.002	
212.00	-38.356	-2.782	
213.00	-38.401	-14.748	
214.00	-38.517	-35.340	
215.00	-38.534	-58.918	
216.00	-38.631	-81.020	
217.00	-38.705	-92.204	
218.00	-38.846	-117.800	
219.00	-38.922	-141.287	
220.00	-39.005	-153.938	
221.00	-39.207	177.401	
222.00	-39.278	156.217	
223.00	-39.531	131.381	
224.00	-39.636	109.985	
225.00	-39.970	91.754	
226.00	-40.063	61.159	
227.00	-40.310	57.873	
228.00	-40.579	28.406	
229.00	-40.829	17.931	
230.00	-41.136	-10.060	
231.00	-41.402	-25.115	
232.00	-41.764	-43.246	
233.00	-41.982	-73.357	
234.00	-42.322	-90.325	
235.00	-42.604	-121.356	
236.00	-42.869	-137.813	
237.00	-43.204	-170.025	
238.00	-43.505	174.120	
239.00	-43.977	136.593	
240.00	-44.265	111.379	
241.00	-44.820	83.988	
242.00	-45.142	58.946	
243.00	-45.605	35.767	
244.00	-46.058	8.349	
245.00	-46.638	-17.704	
246.00	-47.002	-52.032	
247.00	-47.368	-79.862	
248.00	-47.795	-104.582	
249.00	-48.152	-133.281	
250.00	-48.536	-155.152	
251.00	-48.942	170.317	
252.00	-49.366	156.847	
253.00	-49.855	120.688	
254.00	-50.305	100.697	
255.00	-50.920	65.529	
256.00	-51.353	38.709	
257.00	-52.125	2.006	
258.00	-52.542	-25.501	
259.00	-53.124	-49.607	
260.00	-53.532	-86.277	
261.00	-54.012	-104.978	
262.00	-54.274	-141.914	
263.00	-54.616	-163.723	
264.00	-55.037	162.542	
265.00	-55.377	136.613	
266.00	-56.027	103.967	
267.00	-56.424	75.647	
268.00	-57.224	47.947	
269.00	-57.756	13.815	
270.00	-58.431	-15.192	
271.00	-59.042	-54.177	
272.00	-59.177	-93.503	
273.00	-59.313	-124.617	
274.00	-59.586	-162.699	
275.00	-59.844	170.218	
276.00	-60.225	139.930	
277.00	-60.780	111.902	
278.00	-61.627	78.713	
279.00	-62.544	44.074	
280.00	-63.445	16.178	
281.00	-64.753	-24.222	
282.00	-64.519	-64.482	
283.00	-64.569	-95.023	
284.00	-64.147	-128.665	
285.00	-63.830	-161.255	
286.00	-64.168	169.063	
287.00	-64.691	140.375	
288.00	-64.984	122.070	
289.00	-66.192	92.184	
290.00	-67.825	57.933	
291.00	-69.616	33.441	
292.00	-72.005	-2.201	
293.00	-72.006	-65.016	
294.00	-70.984	-90.369	
295.00	-69.968	-133.217	
296.00	-69.177	-147.045	
297.00	-69.457	170.136	
298.00	-68.731	155.332	
299.00	-69.421	119.161	
300.00	-70.204	88.643	
301.00	-70.032	61.487	
302.00	-70.922	26.247	
303.00	-71.689	-1.545	
304.00	-71.822	-42.869	
305.00	-71.903	-76.781	
306.00	-70.864	-112.608	
307.00	-70.672	-138.081	
308.00	-70.686	-164.840	
309.00	-70.465	169.174	
310.00	-70.414	146.491	
311.00	-70.567	115.045	
312.00	-71.096	103.044	
313.00	-71.295	75.349	
314.00	-73.275	47.888	
315.00	-75.131	20.185	
316.00	-77.253	-12.136	
317.00	-80.420	-39.608	
318.00	-78.842	-100.223	
319.00	-76.984	-129.893	
320.00	-77.709	-168.224	
321.00	-74.413	173.556	
322.00	-75.938	150.251	
323.00	-75.046	127.019	
324.00	-75.664	115.830	
325.00	-75.913	89.616	
326.00	-77.475	62.291	
327.00	-78.585	51.428	
328.00	-79.649	0.959	
329.00	-79.874	-30.122	
330.00	-80.076	-72.053	
331.00	-78.137	-81.961	
332.00	-76.664	-122.136	
333.00	-76.259	-134.311	
334.00	-77.122	-156.692	
335.00	-75.603	-172.330	
336.00	-76.063	174.906	
337.00	-76.529	144.671	
338.00	-77.570	130.830	
339.00	-78.612	113.598	
340.00	-81.418	85.291	
341.00	-81.949	76.369	
342.00	-79.340	62.156	
343.00	-84.479	42.102	
344.00	-87.817	38.286	
345.00	-90.743	-20.115	
346.00	-97.204	-5.624	
347.00	-83.367	-145.935	
348.00	-82.568	-154.857	
349.00	-78.858	-167.075	
350.00	-78.391	-165.322	
351.00	-77.244	-176.492	
352.00	-76.448	172.720	
353.00	-74.912	174.254	
354.00	-74.583	173.870	
355.00	-74.814	171.206	
356.00	-75.205	168.061	
357.00	-75.656	173.222	
358.00	-77.759	165.850	
359.00	-78.016	172.806	
Frequency	3600.00	MHz	
Channel	test		
Scan Axis name	Azimuth  [deg]		
Scan Axis	Amplitude	Phase	
			
0.00	-85.273	-87.786	
1.00	-83.569	-66.761	
2.00	-80.709	-55.455	
3.00	-82.196	-33.561	
4.00	-78.927	-12.581	
5.00	-78.800	-18.878	
6.00	-79.257	-8.678	
7.00	-80.931	-3.238	
8.00	-81.374	1.926	
9.00	-83.416	15.477	
10.00	-98.688	43.198	
11.00	-94.821	122.575	
12.00	-89.954	157.643	
13.00	-82.716	168.585	
14.00	-82.989	179.310	
15.00	-78.086	-136.770	
16.00	-76.290	-135.898	
17.00	-75.993	-121.857	
18.00	-75.808	-113.827	
19.00	-75.425	-89.758	
20.00	-74.782	-83.119	
21.00	-73.437	-55.760	
22.00	-73.313	-18.444	
23.00	-73.108	-17.064	
24.00	-71.268	22.300	
25.00	-71.181	37.516	
26.00	-71.343	62.706	
27.00	-70.657	75.991	
28.00	-69.933	90.402	
29.00	-70.055	104.809	
30.00	-69.986	114.822	
31.00	-70.202	134.009	
32.00	-70.638	171.981	
33.00	-69.929	-160.689	
34.00	-70.398	-130.659	
35.00	-70.560	-106.277	
36.00	-69.384	-84.110	
37.00	-70.276	-63.461	
38.00	-69.817	-30.356	
39.00	-69.497	-5.610	
40.00	-69.985	21.981	
41.00	-69.372	41.246	
42.00	-68.991	70.016	
43.00	-69.897	87.304	
44.00	-69.678	110.126	
45.00	-70.643	135.043	
46.00	-69.625	164.032	
47.00	-69.931	-160.887	
48.00	-69.936	-143.547	
49.00	-69.059	-108.127	
50.00	-69.115	-76.588	
51.00	-68.153	-38.328	
52.00	-67.702	-18.694	
53.00	-67.050	5.955	
54.00	-67.165	28.259	
55.00	-67.057	58.882	
56.00	-67.067	75.726	
57.00	-67.006	100.915	
58.00	-66.998	139.141	
59.00	-68.087	150.942	
60.00	-67.677	-162.570	
61.00	-67.382	-139.144	
62.00	-67.574	-103.427	
63.00	-68.192	-78.119	
64.00	-68.588	-52.887	
65.00	-68.523	-5.260	
66.00	-68.069	12.871	
67.00	-67.949	41.683	
68.00	-69.251	61.572	
69.00	-69.033	101.556	
70.00	-69.795	127.598	
71.00	-72.023	165.202	
72.00	-72.368	170.869	
73.00	-71.124	-136.347	
74.00	-71.569	-119.067	
75.00	-71.477	-81.908	
76.00	-72.699	-70.768	
77.00	-73.521	-34.897	
78.00	-72.493	-29.931	
79.00	-72.414	10.131	
80.00	-71.102	28.632	
81.00	-70.868	54.579	
82.00	-69.505	73.017	
83.00	-67.684	99.934	
84.00	-67.321	126.739	
85.00	-65.721	150.045	
86.00	-65.006	176.799	
87.00	-63.759	-150.197	
88.00	-62.300	-132.589	
89.00	-61.838	-103.506	
90.00	-61.033	-81.546	
91.00	-60.350	-53.932	
92.00	-59.534	-35.921	
93.00	-58.647	-7.651	
94.00	-58.311	7.761	
95.00	-57.428	48.493	
96.00	-56.798	61.823	
97.00	-55.940	100.454	
98.00	-55.138	119.956	
99.00	-54.554	152.586	
100.00	-53.755	176.994	
101.00	-53.182	-158.287	
102.00	-52.609	-135.526	
103.00	-52.073	-109.110	
104.00	-51.463	-91.288	
105.00	-50.998	-57.119	
106.00	-50.453	-39.662	
107.00	-49.917	-6.591	
108.00	-49.387	13.353	
109.00	-48.981	44.106	
110.00	-48.354	77.139	
111.00	-47.921	96.375	
112.00	-47.510	119.184	
113.00	-47.044	136.891	
114.00	-46.694	156.461	
115.00	-46.100	-166.494	
116.00	-45.748	-159.838	
117.00	-45.351	-125.337	
118.00	-44.923	-115.936	
119.00	-44.526	-90.023	
120.00	-44.142	-67.555	
121.00	-43.771	-52.618	
122.00	-43.379	-25.415	
123.00	-43.048	-9.654	
124.00	-42.644	11.742	
125.00	-42.326	29.070	
126.00	-42.054	51.566	
127.00	-41.718	74.219	
128.00	-41.407	93.555	
129.00	-41.092	114.509	
130.00	-40.801	134.661	
131.00	-40.467	158.164	
132.00	-40.219	170.742	
133.00	-39.931	-168.493	
134.00	-39.688	-151.860	
135.00	-39.470	-137.571	
136.00	-39.220	-120.320	
137.00	-38.987	-105.748	
138.00	-38.842	-87.077	
139.00	-38.619	-71.620	
140.00	-38.467	-58.930	
141.00	-38.218	-41.049	
142.00	-38.103	-35.175	
143.00	-37.942	-10.488	
144.00	-37.787	-5.961	
145.00	-37.651	16.739	
146.00	-37.529	23.164	
147.00	-37.419	40.160	
148.00	-37.273	48.547	
149.00	-37.161	58.399	
150.00	-37.035	60.460	
151.00	-36.910	69.705	
152.00	-36.781	77.282	
153.00	-36.688	82.571	
154.00	-36.545	94.251	
155.00	-36.445	96.072	
156.00	-36.320	112.219	
157.00	-36.199	113.168	
158.00	-36.102	119.088	
159.00	-36.007	126.051	
160.00	-35.909	135.586	
161.00	-35.850	136.670	
162.00	-35.759	150.684	
163.00	-35.708	144.699	
164.00	-35.667	153.030	
165.00	-35.661	146.342	
166.00	-35.668	151.847	
167.00	-35.656	151.982	
168.00	-35.698	152.839	
169.00	-35.744	153.406	
170.00	-35.799	151.033	
171.00	-35.872	148.389	
172.00	-35.947	144.936	
173.00	-36.019	142.653	
174.00	-36.085	141.972	
175.00	-36.159	137.273	
176.00	-36.202	128.358	
177.00	-36.251	125.680	
178.00	-36.269	125.272	
179.00	-36.260	124.034	
180.00	-36.253	124.913	
181.00	-36.236	117.417	
182.00	-36.203	114.161	
183.00	-36.173	95.689	
184.00	-36.129	91.837	
185.00	-36.147	88.050	
186.00	-36.103	79.638	
187.00	-36.125	72.577	
188.00	-36.115	64.099	
189.00	-36.168	58.810	
190.00	-36.255	51.064	
191.00	-36.336	43.594	
192.00	-36.468	42.663	
193.00	-36.584	24.120	
194.00	-36.729	22.573	
195.00	-36.915	7.097	
196.00	-37.071	0.874	
197.00	-37.278	-13.415	
198.00	-37.429	-27.398	
199.00	-37.646	-41.542	
200.00	-37.775	-47.788	
201.00	-37.963	-67.323	
202.00	-38.072	-77.184	
203.00	-38.216	-92.417	
204.00	-38.276	-109.906	
205.00	-38.354	-123.935	
206.00	-38.446	-143.248	
207.00	-38.446	-160.762	
208.00	-38.505	-174.698	
209.00	-38.525	165.335	
210.00	-38.539	154.486	
211.00	-38.577	131.446	
212.00	-38.588	108.685	
213.00	-38.591	97.113	
214.00	-38.679	76.012	
215.00	-38.672	52.734	
216.00	-38.765	30.586	
217.00	-38.827	19.949	
218.00	-39.012	-5.867	
219.00	-39.109	-29.347	
220.00	-39.255	-41.857	
221.00	-39.472	-71.250	
222.00	-39.586	-91.902	
223.00	-39.883	-118.011	
224.00	-39.956	-138.762	
225.00	-40.315	-158.329	
226.00	-40.398	171.437	
227.00	-40.692	167.798	
228.00	-40.949	137.897	
229.00	-41.228	127.257	
230.00	-41.539	98.703	
231.00	-41.853	83.860	
232.00	-42.214	64.755	
233.00	-42.447	34.658	
234.00	-42.810	17.286	
235.00	-43.122	-14.542	
236.00	-43.446	-31.176	
237.00	-43.821	-64.383	
238.00	-44.126	-80.235	
239.00	-44.618	-119.563	
240.00	-44.868	-144.336	
241.00	-45.394	-173.105	
242.00	-45.710	162.255	
243.00	-46.119	137.874	
244.00	-46.603	110.729	
245.00	-47.103	83.491	
246.00	-47.555	49.706	
247.00	-47.920	22.169	
248.00	-48.339	-3.670	
249.00	-48.808	-33.183	
250.00	-49.216	-55.241	
251.00	-49.653	-90.369	
252.00	-50.024	-104.327	
253.00	-50.495	-141.821	
254.00	-50.966	-161.336	
255.00	-51.523	161.840	
256.00	-51.873	135.081	
257.00	-52.433	97.867	
258.00	-52.988	71.630	
259.00	-53.399	47.065	
260.00	-53.874	10.045	
261.00	-54.275	-7.936	
262.00	-54.777	-44.923	
263.00	-55.139	-67.605	
264.00	-55.673	-101.639	
265.00	-56.022	-127.679	
266.00	-56.684	-161.300	
267.00	-57.251	169.439	
268.00	-57.711	140.927	
269.00	-58.329	106.695	
270.00	-58.899	78.134	
271.00	-59.252	40.798	
272.00	-59.409	3.413	
273.00	-60.023	-27.378	
274.00	-60.233	-67.373	
275.00	-60.713	-93.903	
276.00	-61.403	-125.713	
277.00	-61.836	-155.679	
278.00	-62.367	171.143	
279.00	-63.307	136.159	
280.00	-64.112	109.640	
281.00	-64.586	71.757	
282.00	-64.977	38.970	
283.00	-65.707	4.650	
284.00	-65.879	-28.181	
285.00	-66.222	-63.852	
286.00	-66.363	-97.262	
287.00	-66.963	-130.187	
288.00	-67.731	-147.601	
289.00	-68.869	178.673	
290.00	-69.517	143.090	
291.00	-71.486	119.239	
292.00	-72.590	84.243	
293.00	-73.196	32.975	
294.00	-73.028	8.541	
295.00	-72.998	-33.076	
296.00	-74.001	-48.162	
297.00	-73.139	-90.380	
298.00	-74.314	-112.063	
299.00	-76.078	-157.907	
300.00	-75.907	172.668	
301.00	-78.251	128.639	
302.00	-75.875	89.958	
303.00	-75.214	60.357	
304.00	-74.495	23.967	
305.00	-73.891	0.199	
306.00	-73.954	-25.764	
307.00	-74.259	-51.208	
308.00	-76.040	-75.175	
309.00	-76.131	-110.559	
310.00	-76.078	-134.992	
311.00	-80.922	173.544	
312.00	-79.739	140.460	
313.00	-80.740	106.783	
314.00	-78.078	66.424	
315.00	-78.303	50.900	
316.00	-76.445	16.497	
317.00	-76.903	2.179	
318.00	-77.191	-31.117	
319.00	-77.116	-59.664	
320.00	-76.889	-83.895	
321.00	-78.525	-109.002	
322.00	-79.344	-135.122	
323.00	-81.765	-153.089	
324.00	-82.329	-164.548	
325.00	-86.970	158.718	
326.00	-89.207	127.000	
327.00	-91.943	85.746	
328.00	-85.131	5.225	
329.00	-85.564	-30.003	
330.00	-84.617	-49.151	
331.00	-87.235	-69.955	
332.00	-82.558	-92.749	
333.00	-80.866	-104.379	
334.00	-82.058	-126.541	
335.00	-84.630	-177.628	
336.00	-85.272	-152.775	
337.00	-83.164	145.144	
338.00	-81.934	118.166	
339.00	-80.266	97.455	
340.00	-80.482	59.009	
341.00	-80.499	61.034	
342.00	-80.028	34.102	
343.00	-83.848	7.906	
344.00	-78.646	-8.787	
345.00	-79.966	-29.841	
346.00	-82.027	-48.221	
347.00	-79.750	-76.746	
348.00	-79.468	-87.224	
349.00	-77.783	-114.522	
350.00	-78.254	-107.644	
351.00	-80.827	-120.051	
352.00	-78.303	-129.187	
353.00	-77.086	-134.208	
354.00	-79.632	-131.443	
355.00	-78.269	-131.176	
356.00	-82.506	-118.164	
357.00	-84.808	-84.493	
358.00	-82.335	-57.759	
359.00	-83.924	-67.008	
Frequency	3650.00	MHz	
Channel	test		
Scan Axis name	Azimuth  [deg]		
Scan Axis	Amplitude	Phase	
			
0.00	-76.525	28.595	
1.00	-74.729	29.607	
2.00	-73.619	36.596	
3.00	-73.564	38.651	
4.00	-73.377	45.251	
5.00	-73.325	39.839	
6.00	-73.732	53.181	
7.00	-75.236	72.606	
8.00	-75.887	63.531	
9.00	-79.201	94.041	
10.00	-82.901	76.719	
11.00	-82.774	118.046	
12.00	-82.851	156.875	
13.00	-83.231	-123.529	
14.00	-79.350	-146.640	
15.00	-77.941	-118.332	
16.00	-75.917	-98.347	
17.00	-76.824	-70.108	
18.00	-76.796	-62.807	
19.00	-76.595	-45.808	
20.00	-76.389	-32.390	
21.00	-75.528	3.548	
22.00	-73.849	45.028	
23.00	-73.253	56.551	
24.00	-72.146	83.432	
25.00	-72.332	101.637	
26.00	-70.135	124.862	
27.00	-70.916	138.875	
28.00	-71.072	141.507	
29.00	-72.359	156.227	
30.00	-72.625	171.314	
31.00	-75.422	-160.315	
32.00	-75.544	-110.287	
33.00	-72.971	-67.620	
34.00	-72.123	-23.880	
35.00	-71.437	-5.373	
36.00	-70.340	18.404	
37.00	-68.774	36.508	
38.00	-68.396	66.315	
39.00	-67.645	88.176	
40.00	-67.520	106.798	
41.00	-67.625	128.871	
42.00	-68.027	154.928	
43.00	-68.380	168.386	
44.00	-68.272	-160.906	
45.00	-68.375	-137.953	
46.00	-68.882	-116.062	
47.00	-68.551	-74.739	
48.00	-69.042	-67.426	
49.00	-67.344	-24.688	
50.00	-67.530	6.912	
51.00	-66.759	36.517	
52.00	-66.497	58.367	
53.00	-66.169	79.961	
54.00	-66.663	108.304	
55.00	-66.205	129.704	
56.00	-67.976	159.037	
57.00	-67.473	168.206	
58.00	-67.787	-141.602	
59.00	-68.782	-115.465	
60.00	-69.107	-71.009	
61.00	-68.686	-53.090	
62.00	-67.410	-14.232	
63.00	-66.500	16.041	
64.00	-66.841	39.900	
65.00	-68.179	76.360	
66.00	-68.876	99.225	
67.00	-68.886	126.266	
68.00	-71.989	151.510	
69.00	-73.298	-146.437	
70.00	-76.331	-105.741	
71.00	-73.634	-55.422	
72.00	-72.165	-50.320	
73.00	-71.477	-0.963	
74.00	-71.431	16.046	
75.00	-72.002	45.002	
76.00	-73.703	55.625	
77.00	-73.132	75.496	
78.00	-76.155	93.622	
79.00	-80.058	109.124	
80.00	-74.367	103.865	
81.00	-74.037	127.292	
82.00	-74.654	150.235	
83.00	-71.470	158.191	
84.00	-70.069	-167.658	
85.00	-69.642	-129.216	
86.00	-67.813	-107.218	
87.00	-66.079	-73.673	
88.00	-64.671	-53.230	
89.00	-62.469	-19.747	
90.00	-61.827	3.961	
91.00	-61.033	29.093	
92.00	-59.994	49.752	
93.00	-59.083	79.149	
94.00	-58.248	94.812	
95.00	-57.471	135.253	
96.00	-56.644	150.478	
97.00	-56.257	-170.448	
98.00	-55.351	-151.208	
99.00	-54.681	-115.673	
100.00	-53.935	-90.567	
101.00	-53.121	-64.781	
102.00	-52.502	-41.720	
103.00	-51.842	-14.109	
104.00	-51.139	3.820	
105.00	-50.533	39.175	
106.00	-49.994	57.204	
107.00	-49.412	90.392	
108.00	-48.832	110.620	
109.00	-48.516	142.961	
110.00	-47.959	175.641	
111.00	-47.524	-164.661	
112.00	-47.044	-140.724	
113.00	-46.554	-122.706	
114.00	-46.212	-102.162	
115.00	-45.567	-64.617	
116.00	-45.273	-56.550	
117.00	-44.680	-21.665	
118.00	-44.267	-12.115	
119.00	-43.875	14.725	
120.00	-43.418	37.445	
121.00	-43.098	53.228	
122.00	-42.664	80.327	
123.00	-42.315	96.304	
124.00	-42.045	118.631	
125.00	-41.678	136.373	
126.00	-41.353	159.875	
127.00	-41.059	-177.064	
128.00	-40.754	-157.033	
129.00	-40.462	-135.717	
130.00	-40.175	-114.836	
131.00	-39.870	-90.883	
132.00	-39.595	-77.808	
133.00	-39.346	-56.642	
134.00	-39.097	-39.387	
135.00	-38.903	-24.842	
136.00	-38.665	-7.051	
137.00	-38.451	7.745	
138.00	-38.293	27.101	
139.00	-38.103	42.526	
140.00	-37.998	56.022	
141.00	-37.813	73.933	
142.00	-37.719	80.212	
143.00	-37.597	105.379	
144.00	-37.498	110.202	
145.00	-37.412	133.467	
146.00	-37.330	139.796	
147.00	-37.287	157.591	
148.00	-37.215	165.610	
149.00	-37.148	175.727	
150.00	-37.046	177.705	
151.00	-36.996	-172.594	
152.00	-36.907	-165.284	
153.00	-36.821	-159.994	
154.00	-36.719	-148.589	
155.00	-36.622	-146.798	
156.00	-36.491	-130.623	
157.00	-36.401	-129.885	
158.00	-36.275	-124.202	
159.00	-36.182	-117.140	
160.00	-36.057	-108.016	
161.00	-35.965	-106.685	
162.00	-35.863	-92.855	
163.00	-35.779	-98.984	
164.00	-35.719	-90.330	
165.00	-35.684	-97.283	
166.00	-35.661	-91.233	
167.00	-35.637	-91.296	
168.00	-35.654	-90.020	
169.00	-35.666	-89.327	
170.00	-35.720	-91.633	
171.00	-35.795	-93.997	
172.00	-35.876	-97.273	
173.00	-35.968	-99.183	
174.00	-36.037	-99.692	
175.00	-36.139	-104.489	
176.00	-36.206	-113.219	
177.00	-36.296	-116.016	
178.00	-36.326	-115.838	
179.00	-36.356	-117.434	
180.00	-36.346	-116.610	
181.00	-36.337	-124.319	
182.00	-36.320	-127.961	
183.00	-36.300	-146.994	
184.00	-36.257	-150.435	
185.00	-36.245	-155.064	
186.00	-36.185	-163.197	
187.00	-36.185	-170.775	
188.00	-36.170	-179.191	
189.00	-36.182	175.210	
190.00	-36.240	167.159	
191.00	-36.295	160.259	
192.00	-36.397	158.809	
193.00	-36.465	140.288	
194.00	-36.613	138.922	
195.00	-36.765	123.197	
196.00	-36.915	117.386	
197.00	-37.130	102.729	
198.00	-37.263	89.266	
199.00	-37.484	74.830	
200.00	-37.664	69.099	
201.00	-37.854	49.312	
202.00	-38.000	39.814	
203.00	-38.185	24.052	
204.00	-38.294	6.728	
205.00	-38.404	-7.451	
206.00	-38.557	-27.229	
207.00	-38.613	-44.835	
208.00	-38.713	-59.364	
209.00	-38.762	-79.445	
210.00	-38.813	-90.934	
211.00	-38.878	-114.638	
212.00	-38.920	-137.787	
213.00	-38.948	-149.524	
214.00	-39.045	-171.554	
215.00	-39.057	164.929	
216.00	-39.144	141.967	
217.00	-39.233	131.085	
218.00	-39.358	104.218	
219.00	-39.475	80.523	
220.00	-39.598	67.530	
221.00	-39.797	36.922	
222.00	-39.885	16.380	
223.00	-40.201	-10.706	
224.00	-40.277	-31.269	
225.00	-40.629	-52.427	
226.00	-40.700	-82.056	
227.00	-40.953	-86.654	
228.00	-41.170	-117.349	
229.00	-41.427	-128.077	
230.00	-41.719	-157.543	
231.00	-41.927	-172.206	
232.00	-42.302	167.564	
233.00	-42.476	137.279	
234.00	-42.790	119.651	
235.00	-43.090	87.105	
236.00	-43.353	70.310	
237.00	-43.682	36.479	
238.00	-43.991	20.547	
239.00	-44.439	-19.726	
240.00	-44.646	-44.330	
241.00	-45.166	-74.397	
242.00	-45.431	-98.429	
243.00	-45.912	-123.512	
244.00	-46.220	-150.826	
245.00	-46.722	-178.338	
246.00	-47.072	147.542	
247.00	-47.498	119.599	
248.00	-47.812	94.770	
249.00	-48.244	65.152	
250.00	-48.659	42.727	
251.00	-49.156	7.177	
252.00	-49.580	-6.745	
253.00	-50.147	-45.124	
254.00	-50.543	-64.597	
255.00	-51.095	-102.331	
256.00	-51.452	-128.962	
257.00	-52.026	-167.008	
258.00	-52.446	167.577	
259.00	-53.000	142.899	
260.00	-53.377	106.334	
261.00	-53.911	87.665	
262.00	-54.469	50.394	
263.00	-54.839	28.422	
264.00	-55.559	-6.593	
265.00	-56.062	-33.729	
266.00	-56.708	-67.956	
267.00	-57.138	-98.248	
268.00	-57.704	-128.184	
269.00	-58.290	-162.331	
270.00	-58.472	167.749	
271.00	-59.094	130.372	
272.00	-59.269	93.047	
273.00	-59.871	62.943	
274.00	-60.324	25.059	
275.00	-60.968	-2.616	
276.00	-61.683	-34.590	
277.00	-62.438	-67.535	
278.00	-63.290	-100.595	
279.00	-63.698	-139.029	
280.00	-64.367	-165.665	
281.00	-65.064	157.197	
282.00	-65.363	123.674	
283.00	-66.048	92.413	
284.00	-66.610	58.855	
285.00	-67.443	23.867	
286.00	-68.368	-15.465	
287.00	-69.550	-49.398	
288.00	-69.690	-75.909	
289.00	-71.110	-116.130	
290.00	-71.145	-156.115	
291.00	-71.438	176.538	
292.00	-71.407	144.405	
293.00	-71.030	101.066	
294.00	-72.008	80.629	
295.00	-72.099	40.088	
296.00	-73.265	29.482	
297.00	-74.348	-26.203	
298.00	-76.160	-43.446	
299.00	-76.936	-102.329	
300.00	-75.928	-150.421	
301.00	-74.576	178.139	
302.00	-72.951	140.104	
303.00	-73.323	120.950	
304.00	-71.919	84.817	
305.00	-71.852	65.387	
306.00	-72.277	42.230	
307.00	-73.569	20.793	
308.00	-76.206	-5.483	
309.00	-78.529	-42.905	
310.00	-80.788	-84.274	
311.00	-80.912	-155.683	
312.00	-77.591	-175.389	
313.00	-74.784	139.767	
314.00	-73.972	116.935	
315.00	-72.491	92.626	
316.00	-72.725	63.095	
317.00	-72.730	40.769	
318.00	-72.197	23.276	
319.00	-73.316	-3.887	
320.00	-72.555	-37.521	
321.00	-73.000	-57.299	
322.00	-73.195	-81.332	
323.00	-73.614	-104.526	
324.00	-72.914	-122.617	
325.00	-74.447	-141.451	
326.00	-74.066	-174.464	
327.00	-75.970	170.408	
328.00	-76.819	142.793	
329.00	-78.042	117.799	
330.00	-78.382	83.662	
331.00	-80.941	83.166	
332.00	-81.115	39.502	
333.00	-81.089	13.285	
334.00	-87.333	24.123	
335.00	-90.590	-56.452	
336.00	-89.772	-71.014	
337.00	-87.480	169.642	
338.00	-85.216	167.779	
339.00	-78.306	128.921	
340.00	-78.170	105.270	
341.00	-78.056	104.350	
342.00	-76.130	87.174	
343.00	-76.574	81.352	
344.00	-77.310	68.645	
345.00	-77.776	46.575	
346.00	-78.784	41.158	
347.00	-79.312	19.131	
348.00	-83.260	4.036	
349.00	-83.925	-17.548	
350.00	-80.943	-32.860	
351.00	-83.905	-47.746	
352.00	-84.038	-47.997	
353.00	-86.837	-45.360	
354.00	-88.496	-40.415	
355.00	-103.390	-66.659	
356.00	-89.810	17.882	
357.00	-83.732	65.611	
358.00	-82.452	64.286	
359.00	-78.490	60.925	
Frequency	3700.00	MHz	
Channel	test		
Scan Axis name	Azimuth  [deg]		
Scan Axis	Amplitude	Phase	
			
0.00	-83.508	68.820	
1.00	-80.525	75.857	
2.00	-78.494	72.613	
3.00	-76.507	81.188	
4.00	-77.087	88.254	
5.00	-79.590	83.635	
6.00	-80.405	109.936	
7.00	-79.630	122.702	
8.00	-82.896	123.616	
9.00	-92.709	149.843	
10.00	-87.612	-117.433	
11.00	-79.708	-93.382	
12.00	-77.732	-92.513	
13.00	-76.582	-84.097	
14.00	-75.302	-72.082	
15.00	-74.962	-59.426	
16.00	-74.621	-48.112	
17.00	-74.237	-49.953	
18.00	-74.906	-36.686	
19.00	-77.785	-18.148	
20.00	-80.207	-3.408	
21.00	-80.733	47.249	
22.00	-78.459	108.174	
23.00	-76.805	135.991	
24.00	-75.546	151.688	
25.00	-74.253	178.414	
26.00	-73.409	-167.375	
27.00	-72.396	-145.321	
28.00	-72.577	-136.844	
29.00	-72.551	-118.619	
30.00	-72.079	-110.080	
31.00	-72.828	-86.742	
32.00	-73.043	-38.507	
33.00	-73.158	-23.620	
34.00	-72.232	22.081	
35.00	-72.745	39.069	
36.00	-72.423	68.518	
37.00	-72.884	89.308	
38.00	-71.708	133.213	
39.00	-70.548	156.971	
40.00	-69.947	-174.593	
41.00	-70.257	-155.560	
42.00	-69.237	-124.776	
43.00	-68.923	-113.423	
44.00	-68.931	-86.579	
45.00	-68.385	-64.680	
46.00	-68.882	-51.442	
47.00	-69.056	-10.571	
48.00	-68.927	2.129	
49.00	-69.749	37.573	
50.00	-69.827	68.344	
51.00	-69.624	105.436	
52.00	-69.325	130.369	
53.00	-69.530	153.643	
54.00	-69.324	-171.077	
55.00	-69.222	-143.945	
56.00	-69.578	-112.341	
57.00	-69.894	-92.572	
58.00	-69.381	-54.260	
59.00	-69.501	-39.445	
60.00	-69.876	0.729	
61.00	-69.757	23.894	
62.00	-69.952	59.329	
63.00	-69.641	88.357	
64.00	-70.632	110.647	
65.00	-71.097	155.204	
66.00	-71.870	179.431	
67.00	-72.731	-151.325	
68.00	-73.282	-110.037	
69.00	-74.438	-79.853	
70.00	-74.584	-47.026	
71.00	-74.351	-13.839	
72.00	-74.783	6.575	
73.00	-74.461	40.703	
74.00	-75.620	56.310	
75.00	-74.941	78.619	
76.00	-75.414	94.087	
77.00	-73.892	120.583	
78.00	-74.018	139.813	
79.00	-72.515	164.715	
80.00	-71.907	-174.122	
81.00	-70.564	-145.133	
82.00	-69.242	-117.073	
83.00	-67.517	-92.801	
84.00	-65.813	-62.390	
85.00	-64.846	-39.967	
86.00	-63.727	-8.942	
87.00	-62.871	20.325	
88.00	-62.033	45.517	
89.00	-61.146	75.382	
90.00	-60.589	99.306	
91.00	-59.651	131.139	
92.00	-58.787	152.819	
93.00	-58.035	-178.142	
94.00	-57.368	-159.163	
95.00	-56.308	-119.010	
96.00	-55.688	-104.335	
97.00	-54.816	-64.247	
98.00	-54.049	-45.772	
99.00	-53.411	-11.722	
100.00	-52.790	13.762	
101.00	-52.249	39.314	
102.00	-51.742	63.400	
103.00	-51.221	91.293	
104.00	-50.690	109.657	
105.00	-50.233	146.424	
106.00	-49.690	164.301	
107.00	-49.236	-161.090	
108.00	-48.618	-140.344	
109.00	-48.280	-107.467	
110.00	-47.711	-74.052	
111.00	-47.276	-54.273	
112.00	-46.829	-29.812	
113.00	-46.390	-12.901	
114.00	-46.077	9.038	
115.00	-45.540	46.007	
116.00	-45.265	53.907	
117.00	-44.849	89.508	
118.00	-44.494	98.919	
119.00	-44.172	126.723	
120.00	-43.799	149.342	
121.00	-43.452	165.672	
122.00	-43.130	-166.659	
123.00	-42.807	-150.297	
124.00	-42.504	-127.790	
125.00	-42.188	-110.271	
126.00	-41.941	-86.445	
127.00	-41.632	-63.391	
128.00	-41.348	-43.373	
129.00	-41.050	-22.146	
130.00	-40.802	-1.076	
131.00	-40.526	22.898	
132.00	-40.275	35.594	
133.00	-40.055	57.124	
134.00	-39.807	73.957	
135.00	-39.605	88.757	
136.00	-39.396	106.571	
137.00	-39.192	121.281	
138.00	-39.047	141.333	
139.00	-38.852	156.646	
140.00	-38.727	170.724	
141.00	-38.519	-171.816	
142.00	-38.400	-164.444	
143.00	-38.251	-139.281	
144.00	-38.140	-134.096	
145.00	-38.031	-110.343	
146.00	-37.912	-103.924	
147.00	-37.835	-85.348	
148.00	-37.735	-77.261	
149.00	-37.660	-66.524	
150.00	-37.571	-64.658	
151.00	-37.507	-54.106	
152.00	-37.427	-46.805	
153.00	-37.345	-40.955	
154.00	-37.250	-29.363	
155.00	-37.189	-27.104	
156.00	-37.076	-10.959	
157.00	-36.982	-10.167	
158.00	-36.878	-4.383	
159.00	-36.803	3.046	
160.00	-36.677	11.901	
161.00	-36.600	13.528	
162.00	-36.469	27.257	
163.00	-36.375	20.918	
164.00	-36.309	29.645	
165.00	-36.245	22.148	
166.00	-36.191	28.747	
167.00	-36.158	28.228	
168.00	-36.128	29.720	
169.00	-36.125	30.289	
170.00	-36.146	28.000	
171.00	-36.178	26.002	
172.00	-36.232	22.595	
173.00	-36.284	20.885	
174.00	-36.347	20.623	
175.00	-36.426	15.509	
176.00	-36.482	7.330	
177.00	-36.554	4.230	
178.00	-36.585	5.040	
179.00	-36.628	3.297	
180.00	-36.639	4.342	
181.00	-36.634	-3.422	
182.00	-36.633	-7.254	
183.00	-36.606	-26.664	
184.00	-36.571	-29.700	
185.00	-36.553	-35.167	
186.00	-36.491	-42.879	
187.00	-36.464	-51.011	
188.00	-36.440	-59.141	
189.00	-36.442	-64.996	
190.00	-36.479	-73.350	
191.00	-36.500	-79.727	
192.00	-36.600	-81.700	
193.00	-36.649	-99.830	
194.00	-36.779	-101.200	
195.00	-36.938	-117.007	
196.00	-37.113	-122.389	
197.00	-37.325	-137.556	
198.00	-37.501	-150.446	
199.00	-37.739	-165.286	
200.00	-37.927	-170.715	
201.00	-38.189	168.881	
202.00	-38.332	159.835	
203.00	-38.534	143.383	
204.00	-38.698	125.831	
205.00	-38.804	111.458	
206.00	-38.936	91.020	
207.00	-38.995	73.426	
208.00	-39.084	58.444	
209.00	-39.095	38.373	
210.00	-39.134	26.572	
211.00	-39.175	2.649	
212.00	-39.208	-20.630	
213.00	-39.226	-32.057	
214.00	-39.325	-54.767	
215.00	-39.349	-78.154	
216.00	-39.417	-101.486	
217.00	-39.500	-112.175	
218.00	-39.651	-139.563	
219.00	-39.720	-163.418	
220.00	-39.824	-176.700	
221.00	-40.026	152.124	
222.00	-40.113	132.028	
223.00	-40.367	104.213	
224.00	-40.443	84.700	
225.00	-40.770	62.131	
226.00	-40.868	33.443	
227.00	-41.129	28.410	
228.00	-41.358	-2.313	
229.00	-41.611	-13.290	
230.00	-41.921	-42.543	
231.00	-42.181	-57.325	
232.00	-42.556	-78.236	
233.00	-42.789	-108.250	
234.00	-43.133	-126.316	
235.00	-43.438	-159.281	
236.00	-43.728	-176.061	
237.00	-44.100	149.094	
238.00	-44.375	133.267	
239.00	-44.826	91.695	
240.00	-45.084	67.572	
241.00	-45.581	36.295	
242.00	-45.828	12.820	
243.00	-46.268	-13.109	
244.00	-46.676	-39.577	
245.00	-47.209	-68.217	
246.00	-47.690	-102.485	
247.00	-48.102	-130.675	
248.00	-48.513	-156.381	
249.00	-48.959	173.603	
250.00	-49.514	150.664	
251.00	-49.925	114.933	
252.00	-50.352	100.572	
253.00	-50.935	61.040	
254.00	-51.334	41.857	
255.00	-51.923	3.193	
256.00	-52.359	-23.715	
257.00	-52.827	-62.991	
258.00	-53.238	-87.996	
259.00	-53.982	-114.093	
260.00	-54.417	-151.155	
261.00	-54.954	-169.636	
262.00	-55.496	151.929	
263.00	-55.958	129.184	
264.00	-56.506	93.208	
265.00	-56.878	66.054	
266.00	-57.490	31.690	
267.00	-58.125	2.472	
268.00	-58.859	-28.135	
269.00	-59.182	-62.712	
270.00	-59.770	-91.387	
271.00	-60.544	-133.923	
272.00	-60.796	-169.518	
273.00	-61.240	157.517	
274.00	-61.528	115.390	
275.00	-61.867	88.425	
276.00	-62.707	56.985	
277.00	-62.920	25.772	
278.00	-63.916	-8.057	
279.00	-64.139	-43.821	
280.00	-64.855	-69.961	
281.00	-65.935	-104.492	
282.00	-66.872	-136.465	
283.00	-67.970	-175.563	
284.00	-68.526	151.372	
285.00	-69.204	115.104	
286.00	-70.216	75.266	
287.00	-71.323	38.989	
288.00	-71.467	15.374	
289.00	-71.639	-27.977	
290.00	-72.269	-64.213	
291.00	-73.707	-90.894	
292.00	-75.219	-127.087	
293.00	-74.560	-176.374	
294.00	-74.483	159.396	
295.00	-74.911	120.785	
296.00	-75.437	99.551	
297.00	-75.866	54.288	
298.00	-76.823	37.075	
299.00	-77.448	0.840	
300.00	-79.307	-46.979	
301.00	-81.532	-65.723	
302.00	-80.443	-147.373	
303.00	-80.315	-159.994	
304.00	-77.942	152.471	
305.00	-75.556	122.188	
306.00	-76.623	94.043	
307.00	-76.121	75.653	
308.00	-76.304	37.924	
309.00	-76.763	7.686	
310.00	-78.584	-13.287	
311.00	-79.760	-67.887	
312.00	-79.286	-96.166	
313.00	-78.707	-137.027	
314.00	-77.318	178.655	
315.00	-76.540	154.339	
316.00	-75.687	126.507	
317.00	-74.830	99.999	
318.00	-74.588	73.595	
319.00	-74.468	49.219	
320.00	-75.530	10.121	
321.00	-75.365	-10.677	
322.00	-73.509	-41.054	
323.00	-73.653	-61.721	
324.00	-74.117	-82.939	
325.00	-75.116	-107.142	
326.00	-74.439	-125.848	
327.00	-75.615	-144.812	
328.00	-75.671	-172.237	
329.00	-77.515	169.066	
330.00	-77.518	131.848	
331.00	-77.382	109.105	
332.00	-77.623	87.278	
333.00	-77.583	64.191	
334.00	-80.912	44.500	
335.00	-82.496	10.159	
336.00	-82.820	42.033	
337.00	-87.813	-26.325	
338.00	-86.958	-91.631	
339.00	-86.889	-147.205	
340.00	-84.197	165.703	
341.00	-81.564	175.856	
342.00	-82.092	124.456	
343.00	-80.043	132.594	
344.00	-78.699	106.367	
345.00	-78.075	99.955	
346.00	-79.909	79.645	
347.00	-81.290	37.788	
348.00	-80.343	29.082	
349.00	-81.091	-0.745	
350.00	-80.145	1.320	
351.00	-82.544	-25.099	
352.00	-83.922	-19.223	
353.00	-82.215	-50.869	
354.00	-93.419	-37.929	
355.00	-97.717	-32.183	
356.00	-93.732	15.794	
357.00	-88.089	103.042	
358.00	-80.274	96.548	
359.00	-81.936	111.753	
Frequency	3750.00	MHz	
Channel	test		
Scan Axis name	Azimuth  [deg]		
Scan Axis	Amplitude	Phase	
			
0.00	-91.559	134.924	
1.00	-80.981	150.947	
2.00	-78.770	161.128	
3.00	-80.076	155.579	
4.00	-78.347	162.412	
5.00	-78.037	167.599	
6.00	-81.349	-175.688	
7.00	-81.139	-173.454	
8.00	-81.292	-165.332	
9.00	-83.419	-152.528	
10.00	-94.304	-49.682	
11.00	-91.072	-18.201	
12.00	-84.216	-50.011	
13.00	-86.176	-39.961	
14.00	-81.010	2.086	
15.00	-79.041	-5.909	
16.00	-80.593	10.958	
17.00	-84.046	27.351	
18.00	-82.560	46.950	
19.00	-83.378	60.610	
20.00	-81.268	100.351	
21.00	-77.133	139.298	
22.00	-78.664	-169.732	
23.00	-77.918	-158.999	
24.00	-76.512	-135.707	
25.00	-74.428	-115.884	
26.00	-73.598	-94.360	
27.00	-73.753	-78.308	
28.00	-71.765	-83.555	
29.00	-73.879	-65.596	
30.00	-73.903	-52.501	
31.00	-74.164	-36.502	
32.00	-74.332	3.127	
33.00	-75.850	38.654	
34.00	-77.820	76.135	
35.00	-77.467	113.980	
36.00	-75.709	142.651	
37.00	-74.893	167.665	
38.00	-74.887	-155.082	
39.00	-73.708	-120.107	
40.00	-71.346	-100.038	
41.00	-70.610	-79.707	
42.00	-70.615	-53.345	
43.00	-70.017	-46.490	
44.00	-72.398	-30.886	
45.00	-71.194	-1.800	
46.00	-71.969	16.667	
47.00	-70.677	61.329	
48.00	-71.862	80.502	
49.00	-72.058	126.562	
50.00	-71.562	148.286	
51.00	-70.942	-170.227	
52.00	-68.747	-146.229	
53.00	-69.444	-117.934	
54.00	-68.397	-98.281	
55.00	-69.407	-77.276	
56.00	-69.802	-49.721	
57.00	-70.700	-39.938	
58.00	-72.182	5.604	
59.00	-72.182	27.583	
60.00	-71.081	87.409	
61.00	-72.029	108.293	
62.00	-73.130	146.463	
63.00	-70.897	178.620	
64.00	-70.382	-164.108	
65.00	-71.844	-126.690	
66.00	-71.132	-104.363	
67.00	-70.515	-71.703	
68.00	-75.333	-49.235	
69.00	-71.494	-18.588	
70.00	-73.893	11.545	
71.00	-75.040	40.799	
72.00	-73.743	68.176	
73.00	-74.045	132.435	
74.00	-73.195	130.143	
75.00	-72.671	173.730	
76.00	-74.569	-169.893	
77.00	-70.118	-122.698	
78.00	-70.549	-127.771	
79.00	-69.786	-92.440	
80.00	-68.370	-82.784	
81.00	-67.286	-43.131	
82.00	-66.314	-25.115	
83.00	-65.760	-2.384	
84.00	-66.506	34.203	
85.00	-64.639	58.473	
86.00	-64.100	90.140	
87.00	-62.757	124.426	
88.00	-61.836	149.466	
89.00	-60.999	-177.804	
90.00	-59.700	-152.327	
91.00	-58.765	-123.068	
92.00	-57.881	-101.349	
93.00	-56.999	-75.306	
94.00	-56.125	-57.407	
95.00	-55.577	-17.481	
96.00	-55.073	-4.299	
97.00	-54.468	37.117	
98.00	-53.906	55.497	
99.00	-53.443	91.622	
100.00	-52.715	116.982	
101.00	-52.081	144.131	
102.00	-51.556	169.125	
103.00	-51.004	-163.094	
104.00	-50.365	-144.082	
105.00	-49.831	-108.155	
106.00	-49.270	-89.944	
107.00	-48.797	-55.378	
108.00	-48.316	-34.939	
109.00	-47.919	-1.632	
110.00	-47.480	31.706	
111.00	-47.043	51.676	
112.00	-46.599	76.787	
113.00	-46.231	94.230	
114.00	-45.866	116.977	
115.00	-45.301	154.111	
116.00	-45.001	162.642	
117.00	-44.550	-161.793	
118.00	-44.137	-152.076	
119.00	-43.825	-124.104	
120.00	-43.397	-101.147	
121.00	-43.094	-84.593	
122.00	-42.735	-56.850	
123.00	-42.421	-40.574	
124.00	-42.105	-17.822	
125.00	-41.812	0.135	
126.00	-41.561	24.779	
127.00	-41.250	47.464	
128.00	-40.986	68.112	
129.00	-40.682	89.675	
130.00	-40.400	111.257	
131.00	-40.127	135.739	
132.00	-39.915	148.866	
133.00	-39.623	170.815	
134.00	-39.370	-171.883	
135.00	-39.203	-156.572	
136.00	-38.925	-138.481	
137.00	-38.717	-123.565	
138.00	-38.560	-102.848	
139.00	-38.331	-87.731	
140.00	-38.172	-72.906	
141.00	-37.989	-55.551	
142.00	-37.875	-47.551	
143.00	-37.690	-22.268	
144.00	-37.581	-16.886	
145.00	-37.492	7.484	
146.00	-37.377	13.863	
147.00	-37.318	33.111	
148.00	-37.240	41.012	
149.00	-37.166	52.330	
150.00	-37.093	54.104	
151.00	-37.101	65.240	
152.00	-37.052	72.652	
153.00	-36.989	79.093	
154.00	-36.954	90.489	
155.00	-36.908	93.324	
156.00	-36.844	109.566	
157.00	-36.795	110.440	
158.00	-36.729	116.201	
159.00	-36.688	124.099	
160.00	-36.610	132.578	
161.00	-36.549	134.855	
162.00	-36.460	148.092	
163.00	-36.374	141.617	
164.00	-36.331	150.501	
165.00	-36.293	142.630	
166.00	-36.244	149.548	
167.00	-36.200	148.696	
168.00	-36.165	150.667	
169.00	-36.161	150.855	
170.00	-36.168	148.458	
171.00	-36.203	146.529	
172.00	-36.234	143.005	
173.00	-36.290	141.789	
174.00	-36.356	141.585	
175.00	-36.440	136.390	
176.00	-36.504	128.590	
177.00	-36.600	125.418	
178.00	-36.671	126.920	
179.00	-36.739	125.004	
180.00	-36.803	126.157	
181.00	-36.849	118.468	
182.00	-36.884	114.137	
183.00	-36.930	94.375	
184.00	-36.926	91.757	
185.00	-36.957	85.194	
186.00	-36.919	77.754	
187.00	-36.928	68.721	
188.00	-36.924	60.683	
189.00	-36.924	54.342	
190.00	-36.953	45.302	
191.00	-36.994	39.094	
192.00	-37.060	36.251	
193.00	-37.125	17.981	
194.00	-37.229	16.122	
195.00	-37.341	-0.270	
196.00	-37.475	-5.647	
197.00	-37.649	-21.572	
198.00	-37.758	-34.215	
199.00	-37.961	-49.508	
200.00	-38.129	-54.751	
201.00	-38.338	-75.682	
202.00	-38.473	-84.395	
203.00	-38.639	-101.294	
204.00	-38.790	-118.931	
205.00	-38.892	-133.080	
206.00	-39.004	-154.191	
207.00	-39.057	-171.583	
208.00	-39.138	172.916	
209.00	-39.152	152.938	
210.00	-39.195	140.782	
211.00	-39.245	116.281	
212.00	-39.221	92.634	
213.00	-39.242	80.929	
214.00	-39.312	57.499	
215.00	-39.280	34.346	
216.00	-39.333	10.262	
217.00	-39.411	-0.383	
218.00	-39.486	-28.165	
219.00	-39.548	-52.071	
220.00	-39.670	-65.563	
221.00	-39.868	-97.795	
222.00	-39.925	-117.283	
223.00	-40.204	-146.042	
224.00	-40.283	-164.783	
225.00	-40.629	170.939	
226.00	-40.730	143.097	
227.00	-40.971	137.247	
228.00	-41.209	106.177	
229.00	-41.499	94.870	
230.00	-41.763	64.844	
231.00	-41.975	50.104	
232.00	-42.356	28.277	
233.00	-42.543	-1.622	
234.00	-42.840	-20.092	
235.00	-43.162	-53.373	
236.00	-43.507	-70.112	
237.00	-43.839	-105.238	
238.00	-44.162	-120.979	
239.00	-44.690	-163.789	
240.00	-44.953	172.918	
241.00	-45.502	139.905	
242.00	-45.824	116.776	
243.00	-46.186	89.290	
244.00	-46.580	62.048	
245.00	-46.959	32.700	
246.00	-47.336	-1.971	
247.00	-47.692	-30.395	
248.00	-48.106	-56.322	
249.00	-48.524	-85.706	
250.00	-49.011	-108.540	
251.00	-49.516	-144.420	
252.00	-50.039	-158.711	
253.00	-50.710	160.812	
254.00	-51.163	141.218	
255.00	-51.780	101.211	
256.00	-52.203	73.563	
257.00	-52.637	33.266	
258.00	-52.871	8.092	
259.00	-53.472	-17.982	
260.00	-53.761	-53.863	
261.00	-54.314	-71.924	
262.00	-54.863	-109.678	
263.00	-55.648	-132.764	
264.00	-56.311	-168.862	
265.00	-57.048	163.281	
266.00	-57.919	126.522	
267.00	-58.277	95.419	
268.00	-58.601	62.894	
269.00	-59.068	27.051	
270.00	-59.542	-0.888	
271.00	-60.060	-41.528	
272.00	-60.310	-77.717	
273.00	-60.801	-110.086	
274.00	-61.810	-152.229	
275.00	-62.278	178.744	
276.00	-62.985	141.422	
277.00	-63.169	110.949	
278.00	-63.514	71.992	
279.00	-63.456	36.882	
280.00	-63.786	12.029	
281.00	-63.832	-24.286	
282.00	-64.936	-54.481	
283.00	-65.705	-85.259	
284.00	-66.501	-116.775	
285.00	-68.030	-148.835	
286.00	-69.012	170.404	
287.00	-70.920	130.775	
288.00	-70.818	103.836	
289.00	-71.696	63.227	
290.00	-72.164	21.095	
291.00	-71.770	-6.835	
292.00	-72.625	-28.965	
293.00	-73.166	-67.055	
294.00	-73.783	-86.751	
295.00	-76.035	-127.887	
296.00	-78.616	-158.447	
297.00	-80.556	155.002	
298.00	-79.871	117.713	
299.00	-79.811	47.343	
300.00	-77.881	10.324	
301.00	-76.522	-17.899	
302.00	-76.837	-41.972	
303.00	-75.944	-61.428	
304.00	-77.123	-100.821	
305.00	-78.674	-127.655	
306.00	-81.778	-169.991	
307.00	-82.838	159.488	
308.00	-84.233	100.299	
309.00	-80.114	75.950	
310.00	-78.548	23.101	
311.00	-76.164	-11.034	
312.00	-74.839	-21.077	
313.00	-76.128	-49.746	
314.00	-75.614	-69.350	
315.00	-78.364	-96.268	
316.00	-80.665	-138.293	
317.00	-87.190	-159.130	
318.00	-86.232	118.379	
319.00	-79.840	74.171	
320.00	-78.800	39.489	
321.00	-75.583	25.397	
322.00	-74.468	0.086	
323.00	-74.055	-21.091	
324.00	-72.433	-36.235	
325.00	-73.479	-57.790	
326.00	-71.900	-76.461	
327.00	-72.422	-90.642	
328.00	-73.404	-112.936	
329.00	-74.789	-130.507	
330.00	-75.583	-151.243	
331.00	-76.268	-160.792	
332.00	-78.705	176.637	
333.00	-80.744	138.043	
334.00	-85.008	121.686	
335.00	-85.495	37.895	
336.00	-89.713	-2.005	
337.00	-82.719	-24.671	
338.00	-81.149	-56.245	
339.00	-79.137	-79.360	
340.00	-84.200	-99.076	
341.00	-80.648	-94.360	
342.00	-78.455	-119.487	
343.00	-80.269	-140.063	
344.00	-85.791	-153.751	
345.00	-86.298	167.886	
346.00	-90.249	131.496	
347.00	-88.490	72.442	
348.00	-83.659	65.565	
349.00	-82.781	23.379	
350.00	-78.794	35.919	
351.00	-78.361	6.230	
352.00	-81.653	6.417	
353.00	-80.089	6.939	
354.00	-81.283	4.235	
355.00	-83.101	-16.671	
356.00	-82.844	-45.986	
357.00	-92.507	-48.230	
358.00	-94.186	-161.977	
359.00	-83.811	-161.368	
Frequency	3800.00	MHz	
Channel	test		
Scan Axis name	Azimuth  [deg]		
Scan Axis	Amplitude	Phase	
			
0.00	-89.469	-157.069	
1.00	-85.944	-172.455	
2.00	-82.318	-162.425	
3.00	-82.120	-141.739	
4.00	-81.773	-148.404	
5.00	-80.264	-159.100	
6.00	-86.778	-144.215	
7.00	-82.991	-171.219	
8.00	-84.505	155.785	
9.00	-86.229	159.701	
10.00	-87.540	130.991	
11.00	-84.821	120.311	
12.00	-81.946	105.518	
13.00	-81.482	106.710	
14.00	-78.414	108.762	
15.00	-79.327	102.254	
16.00	-77.683	114.553	
17.00	-77.860	119.000	
18.00	-79.082	131.505	
19.00	-78.515	144.069	
20.00	-79.993	154.490	
21.00	-78.938	-177.979	
22.00	-80.030	-118.366	
23.00	-80.017	-111.355	
24.00	-81.746	-89.019	
25.00	-82.067	-31.316	
26.00	-80.525	-20.408	
27.00	-78.954	2.624	
28.00	-76.819	23.735	
29.00	-75.886	34.883	
30.00	-75.167	54.994	
31.00	-74.743	64.696	
32.00	-74.708	104.356	
33.00	-74.692	127.761	
34.00	-75.185	154.318	
35.00	-75.098	-179.714	
36.00	-75.778	-150.598	
37.00	-75.340	-128.707	
38.00	-75.891	-85.175	
39.00	-74.090	-44.615	
40.00	-73.651	-25.993	
41.00	-72.571	-1.318	
42.00	-72.438	30.879	
43.00	-71.249	43.514	
44.00	-71.564	70.698	
45.00	-71.176	87.833	
46.00	-71.204	107.723	
47.00	-71.318	139.266	
48.00	-71.446	156.717	
49.00	-71.743	-163.351	
50.00	-71.265	-133.617	
51.00	-71.221	-95.309	
52.00	-70.868	-64.847	
53.00	-71.161	-44.267	
54.00	-69.704	-10.846	
55.00	-70.096	18.835	
56.00	-69.964	46.940	
57.00	-69.467	62.923	
58.00	-69.731	110.499	
59.00	-69.066	121.695	
60.00	-69.239	165.121	
61.00	-69.646	-176.587	
62.00	-70.115	-136.000	
63.00	-70.231	-105.629	
64.00	-70.918	-80.080	
65.00	-71.060	-34.395	
66.00	-71.379	-3.299	
67.00	-71.742	29.012	
68.00	-71.616	59.702	
69.00	-71.638	92.909	
70.00	-72.040	127.218	
71.00	-72.010	164.012	
72.00	-72.087	-177.823	
73.00	-73.018	-134.919	
74.00	-72.347	-117.525	
75.00	-72.624	-73.990	
76.00	-72.575	-62.165	
77.00	-72.574	-21.360	
78.00	-71.487	-4.815	
79.00	-71.230	28.413	
80.00	-70.026	43.474	
81.00	-69.295	72.236	
82.00	-68.077	93.733	
83.00	-67.412	121.881	
84.00	-66.412	149.903	
85.00	-65.682	168.750	
86.00	-64.859	-161.706	
87.00	-64.135	-132.862	
88.00	-63.212	-106.237	
89.00	-62.420	-73.186	
90.00	-61.360	-49.776	
91.00	-60.617	-18.831	
92.00	-59.633	0.576	
93.00	-58.782	29.409	
94.00	-57.919	47.631	
95.00	-57.015	87.379	
96.00	-56.235	101.591	
97.00	-55.505	141.366	
98.00	-55.009	159.642	
99.00	-54.257	-164.536	
100.00	-53.599	-139.083	
101.00	-53.111	-112.414	
102.00	-52.443	-87.401	
103.00	-51.892	-59.301	
104.00	-51.245	-39.982	
105.00	-50.638	-3.000	
106.00	-50.085	15.133	
107.00	-49.511	50.688	
108.00	-48.901	71.280	
109.00	-48.529	105.748	
110.00	-47.914	138.892	
111.00	-47.464	159.040	
112.00	-46.980	-175.617	
113.00	-46.525	-158.869	
114.00	-46.206	-134.702	
115.00	-45.645	-98.546	
116.00	-45.323	-88.875	
117.00	-44.850	-53.056	
118.00	-44.452	-43.163	
119.00	-44.050	-14.158	
120.00	-43.607	8.930	
121.00	-43.267	26.197	
122.00	-42.841	54.518	
123.00	-42.512	71.270	
124.00	-42.137	94.397	
125.00	-41.798	112.716	
126.00	-41.560	137.759	
127.00	-41.246	160.686	
128.00	-40.974	-178.206	
129.00	-40.714	-156.348	
130.00	-40.451	-134.105	
131.00	-40.211	-109.342	
132.00	-39.988	-95.799	
133.00	-39.765	-73.160	
134.00	-39.524	-55.570	
135.00	-39.331	-39.870	
136.00	-39.132	-21.235	
137.00	-38.930	-6.060	
138.00	-38.793	15.248	
139.00	-38.592	29.940	
140.00	-38.514	45.549	
141.00	-38.333	62.455	
142.00	-38.269	71.116	
143.00	-38.123	96.259	
144.00	-38.068	101.940	
145.00	-37.983	126.245	
146.00	-37.928	132.610	
147.00	-37.889	151.819	
148.00	-37.827	159.419	
149.00	-37.794	170.630	
150.00	-37.739	172.018	
151.00	-37.706	-176.679	
152.00	-37.648	-169.641	
153.00	-37.603	-163.095	
154.00	-37.539	-151.876	
155.00	-37.487	-148.997	
156.00	-37.403	-132.907	
157.00	-37.326	-132.005	
158.00	-37.248	-126.398	
159.00	-37.186	-118.034	
160.00	-37.094	-109.762	
161.00	-37.029	-106.898	
162.00	-36.937	-93.666	
163.00	-36.871	-100.106	
164.00	-36.801	-90.707	
165.00	-36.752	-98.905	
166.00	-36.713	-91.404	
167.00	-36.668	-92.611	
168.00	-36.663	-90.257	
169.00	-36.672	-90.164	
170.00	-36.682	-92.671	
171.00	-36.720	-94.458	
172.00	-36.784	-98.114	
173.00	-36.854	-99.535	
174.00	-36.920	-99.585	
175.00	-37.000	-105.326	
176.00	-37.091	-112.932	
177.00	-37.178	-116.729	
178.00	-37.249	-114.906	
179.00	-37.301	-117.043	
180.00	-37.345	-116.039	
181.00	-37.374	-123.945	
182.00	-37.397	-128.561	
183.00	-37.404	-148.761	
184.00	-37.378	-150.834	
185.00	-37.382	-158.304	
186.00	-37.318	-165.297	
187.00	-37.293	-174.775	
188.00	-37.273	177.480	
189.00	-37.249	170.862	
190.00	-37.290	161.532	
191.00	-37.282	155.918	
192.00	-37.342	152.236	
193.00	-37.389	134.351	
194.00	-37.450	132.604	
195.00	-37.571	115.983	
196.00	-37.694	110.959	
197.00	-37.879	94.495	
198.00	-38.002	82.205	
199.00	-38.202	66.411	
200.00	-38.372	61.812	
201.00	-38.612	40.054	
202.00	-38.767	31.789	
203.00	-38.982	14.400	
204.00	-39.154	-3.363	
205.00	-39.313	-17.761	
206.00	-39.461	-39.461	
207.00	-39.550	-56.983	
208.00	-39.675	-73.345	
209.00	-39.701	-93.502	
210.00	-39.772	-106.346	
211.00	-39.779	-131.757	
212.00	-39.787	-156.016	
213.00	-39.793	-167.898	
214.00	-39.823	167.427	
215.00	-39.773	143.988	
216.00	-39.816	119.183	
217.00	-39.837	108.293	
218.00	-39.919	79.757	
219.00	-39.964	55.351	
220.00	-40.051	41.531	
221.00	-40.199	8.283	
222.00	-40.240	-11.405	
223.00	-40.448	-41.465	
224.00	-40.499	-59.682	
225.00	-40.829	-85.665	
226.00	-40.810	-113.111	
227.00	-41.051	-119.679	
228.00	-41.177	-150.780	
229.00	-41.378	-162.621	
230.00	-41.598	166.990	
231.00	-41.784	153.159	
232.00	-42.081	130.414	
233.00	-42.246	100.778	
234.00	-42.542	82.182	
235.00	-42.799	48.690	
236.00	-43.145	31.960	
237.00	-43.470	-3.975	
238.00	-43.803	-19.301	
239.00	-44.265	-63.104	
240.00	-44.486	-86.027	
241.00	-44.956	-119.958	
242.00	-45.189	-142.471	
243.00	-45.640	-170.104	
244.00	-45.949	163.225	
245.00	-46.420	133.902	
246.00	-46.807	99.244	
247.00	-47.253	71.041	
248.00	-47.717	44.713	
249.00	-48.188	14.397	
250.00	-48.721	-8.728	
251.00	-49.150	-45.187	
252.00	-49.601	-59.267	
253.00	-50.097	-100.535	
254.00	-50.571	-119.172	
255.00	-51.062	-160.162	
256.00	-51.542	173.574	
257.00	-52.034	133.226	
258.00	-52.520	107.819	
259.00	-53.096	80.830	
260.00	-53.583	44.043	
261.00	-54.190	24.828	
262.00	-54.778	-13.210	
263.00	-55.209	-36.565	
264.00	-55.805	-74.721	
265.00	-56.319	-101.513	
266.00	-56.953	-138.774	
267.00	-57.507	-168.257	
268.00	-58.001	160.801	
269.00	-58.674	126.922	
270.00	-59.374	97.652	
271.00	-59.994	56.019	
272.00	-60.803	18.442	
273.00	-61.222	-18.195	
274.00	-61.773	-61.338	
275.00	-61.883	-90.479	
276.00	-62.357	-126.302	
277.00	-62.657	-157.175	
278.00	-62.467	165.921	
279.00	-63.234	132.446	
280.00	-63.790	106.814	
281.00	-64.830	70.989	
282.00	-65.994	36.013	
283.00	-67.031	1.013	
284.00	-67.795	-35.739	
285.00	-68.315	-76.355	
286.00	-68.619	-116.050	
287.00	-68.438	-155.887	
288.00	-68.483	-174.095	
289.00	-69.126	146.892	
290.00	-69.903	120.850	
291.00	-71.690	97.562	
292.00	-72.360	69.189	
293.00	-74.592	18.483	
294.00	-76.484	-11.878	
295.00	-76.481	-65.033	
296.00	-74.949	-89.800	
297.00	-75.143	-148.457	
298.00	-75.924	-164.062	
299.00	-75.683	153.445	
300.00	-76.143	122.948	
301.00	-76.087	95.373	
302.00	-78.425	63.427	
303.00	-78.884	31.859	
304.00	-80.153	-22.723	
305.00	-79.573	-58.810	
306.00	-81.891	-112.153	
307.00	-81.125	-134.392	
308.00	-79.571	-150.936	
309.00	-78.596	159.647	
310.00	-80.255	133.876	
311.00	-78.502	101.070	
312.00	-80.957	79.774	
313.00	-80.573	47.684	
314.00	-83.502	0.684	
315.00	-83.211	-20.544	
316.00	-82.615	-68.421	
317.00	-81.573	-104.591	
318.00	-81.209	-141.482	
319.00	-80.034	-169.785	
320.00	-79.635	154.581	
321.00	-78.755	134.257	
322.00	-79.408	109.579	
323.00	-79.837	73.007	
324.00	-81.017	61.790	
325.00	-84.675	18.271	
326.00	-84.907	-13.694	
327.00	-80.066	-69.059	
328.00	-78.915	-95.010	
329.00	-78.257	-118.718	
330.00	-76.336	-133.753	
331.00	-77.710	-149.285	
332.00	-76.111	-167.040	
333.00	-79.083	-179.900	
334.00	-77.931	145.422	
335.00	-80.440	117.055	
336.00	-80.728	106.168	
337.00	-82.574	48.093	
338.00	-81.061	34.451	
339.00	-84.700	7.790	
340.00	-83.340	-25.683	
341.00	-83.881	-35.629	
342.00	-88.660	-63.511	
343.00	-84.027	-112.488	
344.00	-83.561	-140.656	
345.00	-83.737	177.561	
346.00	-84.509	173.407	
347.00	-81.392	131.797	
348.00	-78.412	135.267	
349.00	-77.423	106.375	
350.00	-77.105	117.183	
351.00	-77.628	103.183	
352.00	-77.945	98.871	
353.00	-76.829	85.114	
354.00	-77.793	93.419	
355.00	-83.505	53.185	
356.00	-82.838	73.981	
357.00	-89.527	57.770	
358.00	-94.232	126.993	
359.00	-96.612	-146.318	
Frequency	3850.00	MHz	
Channel	test		
Scan Axis name	Azimuth  [deg]		
Scan Axis	Amplitude	Phase	
			
0.00	-82.976	-80.114	
1.00	-86.740	-93.959	
2.00	-85.495	-95.150	
3.00	-81.336	-80.533	
4.00	-83.402	-87.776	
5.00	-84.463	-78.214	
6.00	-85.005	-112.031	
7.00	-90.591	-111.601	
8.00	-86.922	-117.605	
9.00	-88.926	-140.807	
10.00	-88.828	-137.996	
11.00	-83.262	-169.947	
12.00	-83.295	-174.091	
13.00	-82.068	-156.887	
14.00	-81.934	-172.043	
15.00	-82.529	-138.038	
16.00	-80.970	-141.688	
17.00	-83.831	-142.261	
18.00	-84.111	-113.421	
19.00	-81.326	-110.851	
20.00	-80.766	-108.283	
21.00	-81.469	-90.768	
22.00	-85.717	-79.508	
23.00	-85.851	-47.569	
24.00	-90.141	-3.979	
25.00	-88.136	77.441	
26.00	-88.876	102.123	
27.00	-82.852	142.850	
28.00	-83.930	143.159	
29.00	-80.576	144.538	
30.00	-78.832	154.450	
31.00	-77.435	170.411	
32.00	-75.863	-154.597	
33.00	-76.925	-136.702	
34.00	-77.153	-107.450	
35.00	-76.060	-84.627	
36.00	-77.509	-68.503	
37.00	-75.301	-51.329	
38.00	-75.854	-9.811	
39.00	-77.605	16.566	
40.00	-76.620	59.285	
41.00	-75.547	82.189	
42.00	-76.778	117.570	
43.00	-75.250	124.954	
44.00	-74.419	163.687	
45.00	-74.232	170.120	
46.00	-74.243	-167.938	
47.00	-72.549	-127.818	
48.00	-72.833	-116.423	
49.00	-73.900	-77.789	
50.00	-73.444	-56.104	
51.00	-74.182	-10.439	
52.00	-74.863	6.289	
53.00	-75.267	40.400	
54.00	-74.102	73.725	
55.00	-73.499	102.428	
56.00	-74.096	145.730	
57.00	-73.230	156.476	
58.00	-72.796	-151.622	
59.00	-71.451	-139.839	
60.00	-71.989	-103.661	
61.00	-71.545	-86.443	
62.00	-73.907	-35.379	
63.00	-72.495	-16.156	
64.00	-74.466	12.396	
65.00	-74.748	60.466	
66.00	-74.867	93.402	
67.00	-75.819	128.930	
68.00	-74.668	160.140	
69.00	-74.343	-164.023	
70.00	-74.371	-125.375	
71.00	-74.727	-90.917	
72.00	-74.150	-67.703	
73.00	-73.511	-41.574	
74.00	-74.880	-25.629	
75.00	-75.897	13.437	
76.00	-74.464	31.561	
77.00	-77.069	50.564	
78.00	-74.621	76.652	
79.00	-75.328	112.470	
80.00	-74.457	138.031	
81.00	-72.924	160.396	
82.00	-72.288	-161.654	
83.00	-71.159	-145.453	
84.00	-69.287	-122.939	
85.00	-67.932	-99.345	
86.00	-67.306	-69.836	
87.00	-66.479	-40.242	
88.00	-65.745	-17.869	
89.00	-64.507	11.964	
90.00	-64.109	36.783	
91.00	-62.715	69.192	
92.00	-61.950	91.146	
93.00	-61.189	118.115	
94.00	-60.500	138.532	
95.00	-59.467	179.454	
96.00	-58.665	-165.160	
97.00	-57.853	-123.547	
98.00	-57.005	-104.854	
99.00	-56.525	-67.862	
100.00	-55.695	-43.096	
101.00	-55.106	-15.984	
102.00	-54.466	8.950	
103.00	-53.814	36.781	
104.00	-53.303	56.736	
105.00	-52.633	94.485	
106.00	-52.044	113.091	
107.00	-51.513	149.057	
108.00	-51.014	170.387	
109.00	-50.499	-154.272	
110.00	-49.766	-120.576	
111.00	-49.301	-100.205	
112.00	-48.714	-74.204	
113.00	-48.205	-57.297	
114.00	-47.827	-32.573	
115.00	-47.160	2.985	
116.00	-46.848	13.649	
117.00	-46.303	49.293	
118.00	-45.901	59.355	
119.00	-45.493	88.699	
120.00	-45.061	111.886	
121.00	-44.661	130.008	
122.00	-44.268	158.466	
123.00	-43.879	175.439	
124.00	-43.457	-160.930	
125.00	-43.141	-142.180	
126.00	-42.770	-116.160	
127.00	-42.433	-93.042	
128.00	-42.123	-71.521	
129.00	-41.832	-49.573	
130.00	-41.515	-26.728	
131.00	-41.219	-1.673	
132.00	-40.954	12.066	
133.00	-40.695	34.955	
134.00	-40.433	52.699	
135.00	-40.214	68.723	
136.00	-39.983	87.537	
137.00	-39.792	102.804	
138.00	-39.640	124.729	
139.00	-39.433	139.139	
140.00	-39.338	155.661	
141.00	-39.153	172.244	
142.00	-39.068	-178.336	
143.00	-38.898	-153.192	
144.00	-38.823	-147.050	
145.00	-38.719	-122.389	
146.00	-38.622	-115.919	
147.00	-38.553	-96.206	
148.00	-38.469	-88.644	
149.00	-38.384	-77.084	
150.00	-38.306	-75.616	
151.00	-38.239	-63.611	
152.00	-38.159	-56.694	
153.00	-38.096	-49.546	
154.00	-38.009	-38.080	
155.00	-37.940	-34.453	
156.00	-37.876	-18.095	
157.00	-37.776	-16.831	
158.00	-37.705	-11.108	
159.00	-37.647	-2.026	
160.00	-37.577	6.221	
161.00	-37.527	9.672	
162.00	-37.457	22.768	
163.00	-37.396	16.520	
164.00	-37.356	25.940	
165.00	-37.350	17.399	
166.00	-37.312	25.448	
167.00	-37.300	23.677	
168.00	-37.283	26.309	
169.00	-37.290	26.005	
170.00	-37.315	23.554	
171.00	-37.348	21.591	
172.00	-37.373	17.611	
173.00	-37.420	16.398	
174.00	-37.468	16.176	
175.00	-37.509	10.114	
176.00	-37.570	2.959	
177.00	-37.610	-1.058	
178.00	-37.658	1.494	
179.00	-37.704	-0.625	
180.00	-37.734	0.804	
181.00	-37.771	-6.716	
182.00	-37.811	-11.384	
183.00	-37.822	-31.607	
184.00	-37.834	-32.939	
185.00	-37.868	-40.966	
186.00	-37.850	-47.334	
187.00	-37.858	-57.443	
188.00	-37.838	-64.984	
189.00	-37.855	-71.712	
190.00	-37.875	-81.593	
191.00	-37.908	-86.928	
192.00	-37.981	-91.503	
193.00	-37.992	-109.391	
194.00	-38.088	-111.464	
195.00	-38.135	-128.612	
196.00	-38.242	-133.619	
197.00	-38.400	-150.790	
198.00	-38.479	-162.772	
199.00	-38.637	-179.033	
200.00	-38.772	176.369	
201.00	-38.958	154.165	
202.00	-39.087	146.281	
203.00	-39.285	128.435	
204.00	-39.420	110.869	
205.00	-39.549	96.525	
206.00	-39.720	74.426	
207.00	-39.778	57.195	
208.00	-39.939	40.387	
209.00	-40.001	20.393	
210.00	-40.096	7.032	
211.00	-40.130	-18.949	
212.00	-40.138	-43.520	
213.00	-40.137	-55.841	
214.00	-40.178	-81.381	
215.00	-40.108	-104.818	
216.00	-40.103	-130.242	
217.00	-40.127	-141.704	
218.00	-40.164	-171.111	
219.00	-40.163	164.452	
220.00	-40.200	150.347	
221.00	-40.300	116.206	
222.00	-40.308	96.818	
223.00	-40.523	65.967	
224.00	-40.561	48.516	
225.00	-40.830	21.416	
226.00	-40.829	-4.960	
227.00	-41.056	-12.264	
228.00	-41.191	-43.209	
229.00	-41.442	-55.308	
230.00	-41.689	-85.925	
231.00	-41.884	-99.588	
232.00	-42.208	-123.441	
233.00	-42.430	-152.651	
234.00	-42.727	-171.608	
235.00	-43.029	154.481	
236.00	-43.401	137.610	
237.00	-43.754	101.479	
238.00	-44.061	86.086	
239.00	-44.597	41.614	
240.00	-44.879	19.597	
241.00	-45.414	-15.808	
242.00	-45.726	-37.522	
243.00	-46.200	-66.246	
244.00	-46.606	-93.158	
245.00	-47.162	-123.043	
246.00	-47.623	-158.523	
247.00	-48.082	172.950	
248.00	-48.642	146.006	
249.00	-49.078	115.804	
250.00	-49.670	92.022	
251.00	-50.144	54.922	
252.00	-50.695	40.895	
253.00	-51.331	-1.642	
254.00	-51.754	-20.615	
255.00	-52.271	-61.954	
256.00	-52.852	-89.553	
257.00	-53.327	-130.783	
258.00	-53.884	-155.661	
259.00	-54.493	176.639	
260.00	-54.916	139.143	
261.00	-55.559	118.595	
262.00	-56.214	78.806	
263.00	-56.759	56.063	
264.00	-57.463	16.848	
265.00	-57.879	-10.097	
266.00	-58.483	-47.797	
267.00	-58.831	-77.669	
268.00	-59.569	-110.981	
269.00	-59.872	-147.637	
270.00	-60.605	-177.759	
271.00	-61.145	142.474	
272.00	-61.552	102.734	
273.00	-62.074	67.757	
274.00	-63.006	24.511	
275.00	-62.638	-4.906	
276.00	-63.180	-41.629	
277.00	-63.686	-73.078	
278.00	-63.906	-106.944	
279.00	-64.434	-145.033	
280.00	-65.103	-167.456	
281.00	-66.143	152.118	
282.00	-66.798	117.253	
283.00	-68.395	79.322	
284.00	-68.295	41.235	
285.00	-68.780	-4.288	
286.00	-68.283	-40.810	
287.00	-68.421	-76.500	
288.00	-68.635	-95.379	
289.00	-69.049	-128.405	
290.00	-70.674	-161.427	
291.00	-71.394	176.505	
292.00	-72.837	143.454	
293.00	-74.342	91.985	
294.00	-75.258	64.635	
295.00	-75.607	15.762	
296.00	-76.329	-2.048	
297.00	-75.266	-63.261	
298.00	-75.602	-79.479	
299.00	-75.724	-122.711	
300.00	-75.884	-158.982	
301.00	-76.578	165.563	
302.00	-77.354	132.183	
303.00	-76.949	106.542	
304.00	-77.126	72.732	
305.00	-77.110	32.551	
306.00	-78.117	-0.433	
307.00	-79.704	-25.458	
308.00	-81.673	-52.557	
309.00	-82.868	-81.578	
310.00	-83.548	-113.215	
311.00	-84.947	177.675	
312.00	-89.892	130.938	
313.00	-82.506	97.283	
314.00	-81.295	36.402	
315.00	-82.230	10.986	
316.00	-79.433	-13.799	
317.00	-78.985	-44.541	
318.00	-76.191	-76.296	
319.00	-77.088	-88.266	
320.00	-76.706	-113.364	
321.00	-78.564	-128.971	
322.00	-79.606	-160.363	
323.00	-81.236	-176.986	
324.00	-85.644	166.714	
325.00	-86.298	114.268	
326.00	-88.368	101.636	
327.00	-83.049	38.403	
328.00	-85.283	2.106	
329.00	-80.130	-46.923	
330.00	-80.060	-47.606	
331.00	-79.722	-74.321	
332.00	-80.026	-86.534	
333.00	-79.480	-111.944	
334.00	-83.523	-120.927	
335.00	-88.001	-160.632	
336.00	-85.464	-143.028	
337.00	-89.179	164.955	
338.00	-101.458	-174.418	
339.00	-102.589	101.101	
340.00	-90.608	0.210	
341.00	-92.464	-21.032	
342.00	-87.751	-72.798	
343.00	-85.362	-84.869	
344.00	-82.442	-106.090	
345.00	-84.959	-116.947	
346.00	-82.053	-130.643	
347.00	-80.299	-157.465	
348.00	-79.217	-157.487	
349.00	-79.762	-155.726	
350.00	-80.165	-159.486	
351.00	-82.020	-168.019	
352.00	-82.954	-170.375	
353.00	-85.131	170.153	
354.00	-88.140	-161.214	
355.00	-88.696	-123.651	
356.00	-105.394	42.904	
357.00	-94.965	-93.999	
358.00	-85.453	-78.339	
359.00	-84.860	-42.636	
Frequency	3900.00	MHz	
Channel	test		
Scan Axis name	Azimuth  [deg]		
Scan Axis	Amplitude	Phase	
			
0.00	-81.965	26.319	
1.00	-84.405	27.649	
2.00	-85.970	42.900	
3.00	-83.424	68.758	
4.00	-88.013	58.111	
5.00	-88.703	53.894	
6.00	-88.731	105.431	
7.00	-88.643	137.894	
8.00	-87.764	112.418	
9.00	-87.842	149.381	
10.00	-90.344	154.060	
11.00	-87.030	113.748	
12.00	-84.146	174.214	
13.00	-86.329	-173.248	
14.00	-89.954	152.554	
15.00	-99.786	-156.293	
16.00	-87.216	147.748	
17.00	-94.088	-105.631	
18.00	-91.627	-64.514	
19.00	-94.124	-73.473	
20.00	-97.001	15.948	
21.00	-89.077	38.987	
22.00	-90.289	22.548	
23.00	-86.286	66.395	
24.00	-88.964	115.122	
25.00	-88.501	163.544	
26.00	-83.851	166.536	
27.00	-85.123	-165.855	
28.00	-85.699	-156.746	
29.00	-81.881	-139.849	
30.00	-81.775	-150.563	
31.00	-84.175	-124.611	
32.00	-81.913	-91.921	
33.00	-83.355	-47.902	
34.00	-83.361	-29.500	
35.00	-83.823	16.939	
36.00	-80.504	7.289	
37.00	-78.145	54.494	
38.00	-76.901	86.688	
39.00	-76.851	105.769	
40.00	-75.994	144.011	
41.00	-76.232	160.681	
42.00	-74.567	179.365	
43.00	-77.375	-149.510	
44.00	-75.468	-131.874	
45.00	-75.395	-111.239	
46.00	-77.316	-90.486	
47.00	-77.387	-66.093	
48.00	-79.084	-20.853	
49.00	-80.341	1.425	
50.00	-77.006	28.264	
51.00	-74.129	73.309	
52.00	-74.751	105.892	
53.00	-75.028	140.227	
54.00	-78.156	177.676	
55.00	-76.834	-150.180	
56.00	-75.976	-135.224	
57.00	-74.227	-113.690	
58.00	-75.555	-62.345	
59.00	-73.670	-51.947	
60.00	-75.088	-23.006	
61.00	-74.570	6.029	
62.00	-74.125	48.125	
63.00	-74.495	78.504	
64.00	-74.466	105.157	
65.00	-72.030	146.710	
66.00	-76.835	-171.077	
67.00	-75.633	-135.595	
68.00	-76.704	-100.667	
69.00	-77.180	-87.679	
70.00	-74.333	-24.827	
71.00	-75.987	-6.008	
72.00	-74.725	17.826	
73.00	-75.022	69.400	
74.00	-73.630	61.215	
75.00	-74.096	82.555	
76.00	-76.738	103.744	
77.00	-76.854	138.652	
78.00	-74.500	134.835	
79.00	-76.827	-175.130	
80.00	-76.693	-156.664	
81.00	-75.724	-132.872	
82.00	-73.773	-99.456	
83.00	-72.231	-68.358	
84.00	-70.892	-34.262	
85.00	-70.039	-11.367	
86.00	-68.298	17.503	
87.00	-67.447	49.984	
88.00	-65.563	77.880	
89.00	-64.194	104.373	
90.00	-63.493	131.344	
91.00	-63.081	162.645	
92.00	-61.791	-176.346	
93.00	-61.074	-148.038	
94.00	-60.685	-126.757	
95.00	-59.522	-85.042	
96.00	-58.937	-69.710	
97.00	-57.773	-27.188	
98.00	-57.283	-10.149	
99.00	-56.531	29.018	
100.00	-55.746	53.498	
101.00	-55.149	81.790	
102.00	-54.713	106.965	
103.00	-54.044	135.185	
104.00	-53.351	155.696	
105.00	-52.724	-167.011	
106.00	-52.226	-147.439	
107.00	-51.613	-111.615	
108.00	-50.954	-89.643	
109.00	-50.459	-54.024	
110.00	-49.686	-20.597	
111.00	-49.141	1.503	
112.00	-48.608	26.881	
113.00	-48.013	43.578	
114.00	-47.666	69.965	
115.00	-46.923	105.193	
116.00	-46.614	116.555	
117.00	-46.057	151.818	
118.00	-45.658	162.569	
119.00	-45.225	-167.599	
120.00	-44.737	-144.151	
121.00	-44.357	-125.947	
122.00	-43.885	-96.836	
123.00	-43.503	-79.135	
124.00	-43.053	-54.923	
125.00	-42.688	-36.159	
126.00	-42.376	-8.969	
127.00	-42.021	14.483	
128.00	-41.653	36.583	
129.00	-41.348	58.787	
130.00	-41.052	82.503	
131.00	-40.714	107.946	
132.00	-40.457	122.061	
133.00	-40.180	145.510	
134.00	-39.924	163.699	
135.00	-39.700	-179.488	
136.00	-39.474	-160.122	
137.00	-39.255	-144.487	
138.00	-39.123	-121.452	
139.00	-38.932	-107.151	
140.00	-38.822	-89.322	
141.00	-38.645	-72.831	
142.00	-38.573	-62.398	
143.00	-38.439	-36.888	
144.00	-38.395	-30.226	
145.00	-38.305	-4.911	
146.00	-38.240	1.946	
147.00	-38.209	22.282	
148.00	-38.153	30.208	
149.00	-38.119	42.216	
150.00	-38.054	43.738	
151.00	-38.051	56.335	
152.00	-37.985	63.288	
153.00	-37.937	71.091	
154.00	-37.898	82.346	
155.00	-37.875	86.258	
156.00	-37.808	102.661	
157.00	-37.777	104.146	
158.00	-37.709	109.773	
159.00	-37.678	119.173	
160.00	-37.610	126.868	
161.00	-37.581	130.804	
162.00	-37.495	143.668	
163.00	-37.436	137.195	
164.00	-37.399	146.905	
165.00	-37.349	138.231	
166.00	-37.314	146.570	
167.00	-37.284	144.546	
168.00	-37.278	147.650	
169.00	-37.273	147.210	
170.00	-37.285	144.601	
171.00	-37.310	143.029	
172.00	-37.341	139.020	
173.00	-37.394	137.941	
174.00	-37.435	138.004	
175.00	-37.507	131.630	
176.00	-37.558	124.941	
177.00	-37.631	120.633	
178.00	-37.689	123.674	
179.00	-37.745	121.536	
180.00	-37.811	122.788	
181.00	-37.854	115.244	
182.00	-37.912	110.344	
183.00	-37.977	89.597	
184.00	-38.021	88.982	
185.00	-38.054	79.912	
186.00	-38.072	73.811	
187.00	-38.084	63.051	
188.00	-38.079	55.379	
189.00	-38.102	48.301	
190.00	-38.127	37.628	
191.00	-38.121	32.789	
192.00	-38.165	27.311	
193.00	-38.159	9.441	
194.00	-38.195	7.000	
195.00	-38.244	-10.414	
196.00	-38.299	-15.191	
197.00	-38.421	-33.168	
198.00	-38.457	-44.863	
199.00	-38.574	-61.396	
200.00	-38.697	-65.701	
201.00	-38.827	-88.257	
202.00	-38.948	-95.586	
203.00	-39.105	-113.709	
204.00	-39.265	-131.220	
205.00	-39.408	-145.315	
206.00	-39.586	-167.757	
207.00	-39.669	175.498	
208.00	-39.843	158.437	
209.00	-39.921	138.883	
210.00	-40.045	125.292	
211.00	-40.139	99.271	
212.00	-40.202	74.618	
213.00	-40.251	62.256	
214.00	-40.374	35.970	
215.00	-40.399	12.306	
216.00	-40.446	-13.815	
217.00	-40.484	-25.785	
218.00	-40.559	-55.999	
219.00	-40.575	-81.182	
220.00	-40.630	-95.534	
221.00	-40.736	-131.101	
222.00	-40.744	-150.598	
223.00	-40.941	176.945	
224.00	-40.937	160.372	
225.00	-41.178	131.320	
226.00	-41.191	105.496	
227.00	-41.398	97.489	
228.00	-41.516	66.012	
229.00	-41.720	53.419	
230.00	-41.921	22.091	
231.00	-42.111	8.772	
232.00	-42.463	-16.180	
233.00	-42.643	-45.574	
234.00	-42.973	-65.462	
235.00	-43.216	-100.097	
236.00	-43.575	-117.275	
237.00	-43.928	-154.315	
238.00	-44.259	-169.960	
239.00	-44.667	143.900	
240.00	-44.890	122.574	
241.00	-45.432	85.999	
242.00	-45.684	64.970	
243.00	-46.158	35.158	
244.00	-46.586	8.475	
245.00	-47.127	-22.753	
246.00	-47.535	-58.243	
247.00	-48.066	-87.385	
248.00	-48.497	-114.620	
249.00	-49.018	-145.157	
250.00	-49.577	-169.972	
251.00	-49.941	153.147	
252.00	-50.464	139.144	
253.00	-50.997	96.043	
254.00	-51.528	77.303	
255.00	-52.141	34.683	
256.00	-52.742	8.709	
257.00	-53.263	-33.347	
258.00	-53.876	-58.230	
259.00	-54.489	-87.247	
260.00	-55.100	-124.440	
261.00	-55.696	-146.182	
262.00	-56.292	174.013	
263.00	-56.823	149.772	
264.00	-57.559	111.009	
265.00	-57.993	83.268	
266.00	-58.527	43.127	
267.00	-59.000	13.339	
268.00	-59.753	-19.299	
269.00	-60.319	-55.505	
270.00	-60.698	-87.542	
271.00	-61.455	-127.981	
272.00	-62.108	-168.984	
273.00	-62.781	155.800	
274.00	-63.070	114.096	
275.00	-63.506	82.741	
276.00	-64.093	45.633	
277.00	-64.658	12.084	
278.00	-65.277	-29.282	
279.00	-65.499	-67.483	
280.00	-65.667	-94.036	
281.00	-66.645	-137.102	
282.00	-67.013	-170.376	
283.00	-67.709	153.533	
284.00	-68.208	118.031	
285.00	-68.386	78.259	
286.00	-68.903	39.592	
287.00	-69.149	2.880	
288.00	-69.690	-21.143	
289.00	-70.053	-65.615	
290.00	-71.189	-96.304	
291.00	-71.392	-130.237	
292.00	-71.855	-157.888	
293.00	-72.291	146.600	
294.00	-72.251	124.786	
295.00	-72.248	85.031	
296.00	-72.668	62.870	
297.00	-72.885	14.613	
298.00	-74.430	-1.934	
299.00	-74.002	-45.404	
300.00	-75.698	-88.855	
301.00	-74.861	-118.262	
302.00	-74.877	-160.442	
303.00	-74.587	175.261	
304.00	-73.761	138.594	
305.00	-74.135	110.226	
306.00	-74.722	70.886	
307.00	-75.874	54.405	
308.00	-77.508	20.513	
309.00	-78.571	-13.784	
310.00	-79.115	-48.325	
311.00	-81.878	-107.869	
312.00	-80.495	-117.531	
313.00	-83.415	-178.197	
314.00	-80.099	129.266	
315.00	-78.273	92.005	
316.00	-78.919	64.475	
317.00	-78.520	41.658	
318.00	-77.151	15.780	
319.00	-76.939	2.849	
320.00	-77.313	-29.912	
321.00	-78.446	-44.695	
322.00	-79.578	-73.551	
323.00	-82.752	-117.551	
324.00	-84.781	-124.454	
325.00	-90.009	-165.298	
326.00	-82.073	136.621	
327.00	-81.967	95.233	
328.00	-78.254	81.103	
329.00	-79.572	51.020	
330.00	-78.680	42.196	
331.00	-78.138	11.701	
332.00	-78.764	-12.104	
333.00	-80.471	-22.076	
334.00	-83.736	-29.449	
335.00	-85.913	-75.963	
336.00	-85.689	-88.574	
337.00	-97.638	-131.355	
338.00	-93.161	-161.032	
339.00	-88.624	114.714	
340.00	-89.488	130.622	
341.00	-92.165	83.221	
342.00	-94.289	68.413	
343.00	-92.554	29.854	
344.00	-87.117	24.108	
345.00	-85.417	-58.295	
346.00	-88.518	-20.220	
347.00	-85.756	-79.772	
348.00	-88.072	-53.949	
349.00	-85.471	-87.082	
350.00	-88.816	-68.626	
351.00	-88.008	-52.183	
352.00	-94.852	-20.302	
353.00	-95.489	-61.335	
354.00	-91.603	-29.809	
355.00	-87.650	29.248	
356.00	-87.544	33.737	
357.00	-82.818	34.545	
358.00	-81.617	31.922	
359.00	-84.155	29.806	
Frequency	3950.00	MHz	
Channel	test		
Scan Axis name	Azimuth  [deg]		
Scan Axis	Amplitude	Phase	
			
0.00	-87.023	65.932	
1.00	-86.741	62.670	
2.00	-90.701	70.642	
3.00	-97.486	118.331	
4.00	-97.381	97.557	
5.00	-89.609	-85.689	
6.00	-93.376	-77.021	
7.00	-92.913	-82.246	
8.00	-84.808	-89.792	
9.00	-84.757	-102.345	
10.00	-86.825	-110.337	
11.00	-89.122	-95.707	
12.00	-89.051	-107.220	
13.00	-86.668	-90.428	
14.00	-94.074	-150.995	
15.00	-94.134	-134.633	
16.00	-98.181	3.382	
17.00	-101.361	93.563	
18.00	-91.951	159.578	
19.00	-96.361	66.128	
20.00	-89.182	70.118	
21.00	-86.115	103.267	
22.00	-85.909	134.327	
23.00	-88.178	67.906	
24.00	-82.708	164.397	
25.00	-83.076	161.783	
26.00	-82.971	-157.373	
27.00	-86.181	-137.533	
28.00	-80.864	-151.602	
29.00	-84.993	-118.650	
30.00	-85.830	-107.374	
31.00	-86.184	-83.299	
32.00	-83.050	-45.427	
33.00	-82.426	-39.981	
34.00	-85.072	-29.721	
35.00	-85.874	5.882	
36.00	-95.462	-17.695	
37.00	-87.416	102.943	
38.00	-85.930	168.848	
39.00	-89.991	-150.161	
40.00	-84.030	-162.516	
41.00	-82.119	-111.780	
42.00	-81.896	-73.133	
43.00	-82.192	-79.067	
44.00	-81.180	-20.885	
45.00	-79.946	-27.960	
46.00	-79.979	9.385	
47.00	-77.815	37.131	
48.00	-76.930	46.700	
49.00	-77.822	86.360	
50.00	-78.958	115.630	
51.00	-79.094	150.701	
52.00	-79.375	-176.920	
53.00	-80.481	-146.369	
54.00	-80.825	-105.145	
55.00	-79.206	-78.030	
56.00	-78.387	-41.405	
57.00	-76.396	-30.987	
58.00	-77.280	11.615	
59.00	-75.680	23.651	
60.00	-75.883	56.339	
61.00	-77.233	77.966	
62.00	-77.273	113.094	
63.00	-76.613	150.552	
64.00	-77.818	173.936	
65.00	-78.354	-141.449	
66.00	-78.755	-106.445	
67.00	-78.462	-96.400	
68.00	-78.164	-46.909	
69.00	-77.058	-28.013	
70.00	-76.462	8.772	
71.00	-76.251	31.883	
72.00	-74.836	63.243	
73.00	-74.743	103.545	
74.00	-75.313	127.548	
75.00	-73.529	149.678	
76.00	-74.518	-178.265	
77.00	-73.978	-152.576	
78.00	-73.047	-117.908	
79.00	-73.103	-88.016	
80.00	-71.913	-61.945	
81.00	-70.857	-26.093	
82.00	-70.304	3.408	
83.00	-69.051	36.388	
84.00	-67.491	69.536	
85.00	-66.744	91.080	
86.00	-65.923	125.961	
87.00	-65.114	155.926	
88.00	-64.507	-173.329	
89.00	-64.576	-142.689	
90.00	-63.219	-116.946	
91.00	-63.010	-85.538	
92.00	-62.123	-63.396	
93.00	-61.036	-31.852	
94.00	-60.654	-13.965	
95.00	-59.585	27.645	
96.00	-58.867	45.112	
97.00	-58.094	85.619	
98.00	-57.743	104.734	
99.00	-57.090	141.747	
100.00	-56.563	167.353	
101.00	-55.897	-162.793	
102.00	-55.364	-138.571	
103.00	-54.727	-109.008	
104.00	-54.146	-87.813	
105.00	-53.512	-50.525	
106.00	-52.862	-30.386	
107.00	-52.241	4.879	
108.00	-51.671	25.977	
109.00	-51.244	62.887	
110.00	-50.620	95.889	
111.00	-50.129	117.195	
112.00	-49.675	143.143	
113.00	-49.117	160.464	
114.00	-48.857	-172.411	
115.00	-48.139	-137.131	
116.00	-47.770	-125.256	
117.00	-47.203	-90.047	
118.00	-46.784	-78.790	
119.00	-46.404	-48.685	
120.00	-45.938	-25.544	
121.00	-45.560	-6.330	
122.00	-45.098	22.499	
123.00	-44.744	40.423	
124.00	-44.358	64.589	
125.00	-43.997	83.663	
126.00	-43.696	111.113	
127.00	-43.325	134.595	
128.00	-43.035	157.130	
129.00	-42.720	179.436	
130.00	-42.448	-156.841	
131.00	-42.124	-131.253	
132.00	-41.897	-116.898	
133.00	-41.601	-93.096	
134.00	-41.371	-75.242	
135.00	-41.163	-58.370	
136.00	-40.938	-38.956	
137.00	-40.749	-23.290	
138.00	-40.595	0.041	
139.00	-40.372	14.060	
140.00	-40.274	32.051	
141.00	-40.111	48.026	
142.00	-40.014	59.179	
143.00	-39.845	84.183	
144.00	-39.771	91.192	
145.00	-39.656	116.160	
146.00	-39.576	122.935	
147.00	-39.493	143.634	
148.00	-39.415	151.119	
149.00	-39.349	163.172	
150.00	-39.253	164.531	
151.00	-39.196	177.469	
152.00	-39.083	-175.950	
153.00	-39.039	-167.700	
154.00	-38.930	-156.619	
155.00	-38.884	-151.982	
156.00	-38.795	-135.612	
157.00	-38.729	-133.827	
158.00	-38.653	-128.163	
159.00	-38.595	-118.037	
160.00	-38.541	-110.466	
161.00	-38.491	-105.687	
162.00	-38.413	-92.942	
163.00	-38.398	-99.025	
164.00	-38.365	-89.339	
165.00	-38.319	-98.333	
166.00	-38.316	-89.388	
167.00	-38.302	-91.816	
168.00	-38.318	-88.244	
169.00	-38.324	-89.108	
170.00	-38.345	-91.780	
171.00	-38.392	-93.426	
172.00	-38.414	-97.831	
173.00	-38.447	-98.637	
174.00	-38.483	-98.682	
175.00	-38.551	-105.418	
176.00	-38.578	-111.838	
177.00	-38.637	-116.576	
178.00	-38.692	-113.050	
179.00	-38.720	-115.500	
180.00	-38.778	-113.989	
181.00	-38.808	-121.305	
182.00	-38.890	-126.507	
183.00	-38.940	-147.368	
184.00	-38.986	-147.196	
185.00	-39.052	-157.110	
186.00	-39.035	-162.621	
187.00	-39.093	-174.028	
188.00	-39.082	178.800	
189.00	-39.096	171.584	
190.00	-39.136	160.533	
191.00	-39.137	156.425	
192.00	-39.193	149.914	
193.00	-39.176	132.253	
194.00	-39.231	129.681	
195.00	-39.269	111.842	
196.00	-39.315	107.256	
197.00	-39.420	88.584	
198.00	-39.451	77.229	
199.00	-39.581	60.166	
200.00	-39.699	56.238	
201.00	-39.836	33.001	
202.00	-39.960	26.003	
203.00	-40.160	7.213	
204.00	-40.311	-10.637	
205.00	-40.497	-24.636	
206.00	-40.702	-48.101	
207.00	-40.810	-65.011	
208.00	-40.994	-83.103	
209.00	-41.063	-103.056	
210.00	-41.174	-117.723	
211.00	-41.263	-144.814	
212.00	-41.214	-170.002	
213.00	-41.231	177.355	
214.00	-41.254	149.812	
215.00	-41.180	126.131	
216.00	-41.148	99.745	
217.00	-41.140	87.554	
218.00	-41.119	56.574	
219.00	-41.103	31.776	
220.00	-41.081	16.970	
221.00	-41.128	-19.223	
222.00	-41.083	-38.383	
223.00	-41.214	-71.806	
224.00	-41.171	-87.317	
225.00	-41.404	-117.680	
226.00	-41.337	-142.367	
227.00	-41.569	-150.919	
228.00	-41.613	178.233	
229.00	-41.828	165.206	
230.00	-42.031	133.772	
231.00	-42.206	121.280	
232.00	-42.540	95.436	
233.00	-42.782	66.585	
234.00	-43.109	46.653	
235.00	-43.402	12.244	
236.00	-43.760	-5.125	
237.00	-44.097	-42.343	
238.00	-44.472	-58.229	
239.00	-44.911	-104.862	
240.00	-45.228	-125.639	
241.00	-45.736	-163.325	
242.00	-46.005	176.267	
243.00	-46.555	146.121	
244.00	-47.003	119.722	
245.00	-47.653	88.338	
246.00	-48.151	52.941	
247.00	-48.684	23.720	
248.00	-49.319	-4.458	
249.00	-49.872	-36.241	
250.00	-50.458	-61.041	
251.00	-50.981	-99.077	
252.00	-51.459	-113.667	
253.00	-52.013	-158.073	
254.00	-52.488	-176.607	
255.00	-53.118	140.414	
256.00	-53.629	113.596	
257.00	-54.339	71.066	
258.00	-54.884	46.351	
259.00	-55.685	17.180	
260.00	-56.134	-21.774	
261.00	-57.021	-43.202	
262.00	-57.620	-84.815	
263.00	-58.368	-109.447	
264.00	-58.850	-151.187	
265.00	-59.277	-179.833	
266.00	-59.948	140.942	
267.00	-60.078	110.559	
268.00	-60.744	75.092	
269.00	-61.206	39.582	
270.00	-61.610	7.101	
271.00	-62.115	-36.856	
272.00	-62.611	-75.672	
273.00	-63.499	-111.292	
274.00	-63.505	-156.545	
275.00	-64.199	174.478	
276.00	-64.672	134.820	
277.00	-64.448	101.390	
278.00	-65.155	63.438	
279.00	-65.737	29.905	
280.00	-66.162	-1.100	
281.00	-66.426	-43.380	
282.00	-67.223	-74.031	
283.00	-67.733	-112.057	
284.00	-68.374	-146.417	
285.00	-68.833	174.013	
286.00	-68.904	137.239	
287.00	-70.328	97.332	
288.00	-71.154	70.917	
289.00	-72.249	32.300	
290.00	-72.471	-3.167	
291.00	-73.211	-45.354	
292.00	-73.591	-71.291	
293.00	-73.117	-123.827	
294.00	-73.787	-148.913	
295.00	-73.389	166.593	
296.00	-73.331	149.545	
297.00	-73.977	103.136	
298.00	-74.829	89.058	
299.00	-75.790	35.407	
300.00	-77.847	5.509	
301.00	-78.472	-39.584	
302.00	-78.190	-79.728	
303.00	-77.909	-99.690	
304.00	-77.546	-157.459	
305.00	-77.105	173.360	
306.00	-76.694	132.924	
307.00	-75.522	97.938	
308.00	-76.015	73.576	
309.00	-75.496	42.983	
310.00	-76.187	18.851	
311.00	-76.161	-4.780	
312.00	-78.742	-25.543	
313.00	-79.684	-60.798	
314.00	-84.317	-105.554	
315.00	-91.268	-146.132	
316.00	-90.216	108.074	
317.00	-82.699	84.080	
318.00	-80.198	64.122	
319.00	-80.785	28.204	
320.00	-80.254	10.530	
321.00	-79.546	4.343	
322.00	-81.878	-27.672	
323.00	-84.991	-59.158	
324.00	-85.222	-79.399	
325.00	-85.042	-119.256	
326.00	-84.496	-174.307	
327.00	-84.581	161.898	
328.00	-81.973	122.640	
329.00	-82.321	94.303	
330.00	-80.949	68.555	
331.00	-78.985	56.685	
332.00	-78.874	26.615	
333.00	-79.853	12.928	
334.00	-81.787	-1.474	
335.00	-83.234	-50.436	
336.00	-83.771	-65.121	
337.00	-82.135	-101.543	
338.00	-85.998	-105.996	
339.00	-86.898	-172.793	
340.00	-87.222	158.365	
341.00	-87.729	109.320	
342.00	-88.113	124.139	
343.00	-85.652	92.685	
344.00	-86.341	50.580	
345.00	-85.501	42.190	
346.00	-85.763	34.358	
347.00	-93.928	29.959	
348.00	-86.532	39.319	
349.00	-92.012	-60.220	
350.00	-88.614	44.931	
351.00	-93.254	156.673	
352.00	-87.170	123.358	
353.00	-87.962	154.744	
354.00	-86.679	151.223	
355.00	-84.725	131.743	
356.00	-84.605	145.622	
357.00	-81.872	114.346	
358.00	-84.910	108.391	
359.00	-83.610	94.984	
Frequency	4000.00	MHz	
Channel	test		
Scan Axis name	Azimuth  [deg]		
Scan Axis	Amplitude	Phase	
			
0.00	-83.877	163.539	
1.00	-84.585	141.196	
2.00	-86.349	85.438	
3.00	-93.158	131.785	
4.00	-98.144	-47.480	
5.00	-85.808	1.337	
6.00	-91.533	-58.103	
7.00	-86.212	-24.420	
8.00	-95.570	-50.997	
9.00	-89.168	-52.830	
10.00	-81.239	-49.740	
11.00	-81.956	-70.127	
12.00	-86.425	-92.425	
13.00	-85.089	-84.619	
14.00	-80.764	-107.611	
15.00	-80.040	-122.265	
16.00	-82.485	-120.853	
17.00	-86.260	-116.912	
18.00	-80.662	-128.436	
19.00	-84.384	-166.576	
20.00	-79.352	-176.972	
21.00	-81.794	-162.810	
22.00	-81.632	-136.268	
23.00	-81.178	-146.132	
24.00	-80.513	-128.268	
25.00	-79.438	-122.010	
26.00	-84.507	-103.723	
27.00	-80.132	-78.099	
28.00	-86.765	-84.817	
29.00	-81.012	-79.792	
30.00	-79.579	-56.702	
31.00	-88.077	-40.612	
32.00	-86.488	-4.501	
33.00	-84.479	33.277	
34.00	-86.364	70.503	
35.00	-83.821	101.899	
36.00	-81.421	170.749	
37.00	-84.852	-162.724	
38.00	-83.395	-127.182	
39.00	-79.820	-105.952	
40.00	-78.520	-93.105	
41.00	-79.442	-58.335	
42.00	-79.396	-37.372	
43.00	-81.172	-49.823	
44.00	-83.254	35.023	
45.00	-78.786	43.567	
46.00	-81.760	57.136	
47.00	-76.352	124.505	
48.00	-79.232	117.932	
49.00	-77.151	157.471	
50.00	-74.001	167.954	
51.00	-77.048	-166.640	
52.00	-75.423	-140.623	
53.00	-79.422	-108.598	
54.00	-81.913	-43.647	
55.00	-83.683	-8.162	
56.00	-79.525	53.555	
57.00	-76.543	25.524	
58.00	-73.939	74.432	
59.00	-75.875	83.717	
60.00	-73.494	137.523	
61.00	-75.228	138.061	
62.00	-73.180	-159.776	
63.00	-74.256	-137.556	
64.00	-73.247	-124.924	
65.00	-72.693	-79.673	
66.00	-73.069	-33.051	
67.00	-73.586	-20.923	
68.00	-72.531	14.607	
69.00	-74.474	39.771	
70.00	-76.206	81.869	
71.00	-72.781	121.878	
72.00	-70.925	153.338	
73.00	-71.193	-176.628	
74.00	-70.774	-136.833	
75.00	-72.659	-97.653	
76.00	-70.085	-75.759	
77.00	-69.085	-44.204	
78.00	-72.678	-16.090	
79.00	-70.202	28.084	
80.00	-69.653	54.972	
81.00	-69.126	73.961	
82.00	-67.952	116.870	
83.00	-68.568	151.967	
84.00	-66.545	179.659	
85.00	-65.947	-154.271	
86.00	-65.457	-116.977	
87.00	-64.483	-90.807	
88.00	-63.756	-50.054	
89.00	-63.119	-28.549	
90.00	-63.732	1.438	
91.00	-62.783	32.833	
92.00	-62.255	56.904	
93.00	-62.603	82.220	
94.00	-61.279	104.065	
95.00	-60.395	143.904	
96.00	-59.827	161.151	
97.00	-59.503	-158.769	
98.00	-59.041	-139.364	
99.00	-58.390	-103.092	
100.00	-57.800	-77.117	
101.00	-57.354	-50.114	
102.00	-56.807	-24.306	
103.00	-56.411	2.780	
104.00	-55.842	23.249	
105.00	-55.202	62.109	
106.00	-54.670	81.224	
107.00	-54.187	117.159	
108.00	-53.595	137.200	
109.00	-52.856	175.350	
110.00	-52.302	-153.469	
111.00	-51.756	-131.888	
112.00	-51.152	-106.783	
113.00	-50.716	-90.478	
114.00	-50.399	-62.563	
115.00	-49.559	-30.052	
116.00	-49.253	-17.556	
117.00	-48.627	17.567	
118.00	-48.186	28.191	
119.00	-47.707	58.843	
120.00	-47.170	81.631	
121.00	-46.738	100.805	
122.00	-46.229	130.138	
123.00	-45.757	147.985	
124.00	-45.179	171.779	
125.00	-44.799	-169.352	
126.00	-44.316	-140.433	
127.00	-43.881	-117.281	
128.00	-43.501	-94.551	
129.00	-43.098	-72.153	
130.00	-42.726	-48.228	
131.00	-42.368	-22.181	
132.00	-42.074	-7.826	
133.00	-41.733	16.514	
134.00	-41.395	34.846	
135.00	-41.141	51.879	
136.00	-40.844	71.839	
137.00	-40.596	87.975	
138.00	-40.309	112.053	
139.00	-40.113	125.980	
140.00	-39.986	145.659	
141.00	-39.726	161.261	
142.00	-39.649	173.246	
143.00	-39.421	-161.502	
144.00	-39.318	-153.664	
145.00	-39.205	-128.215	
146.00	-39.117	-121.304	
147.00	-39.042	-99.836	
148.00	-38.969	-92.417	
149.00	-38.880	-79.626	
150.00	-38.855	-78.343	
151.00	-38.793	-64.571	
152.00	-38.709	-58.140	
153.00	-38.686	-49.380	
154.00	-38.610	-38.503	
155.00	-38.565	-33.165	
156.00	-38.497	-16.973	
157.00	-38.432	-15.101	
158.00	-38.393	-9.609	
159.00	-38.365	1.123	
160.00	-38.253	8.016	
161.00	-38.229	13.443	
162.00	-38.186	25.879	
163.00	-38.138	19.622	
164.00	-38.099	29.537	
165.00	-38.069	20.241	
166.00	-38.048	29.557	
167.00	-38.039	26.760	
168.00	-38.034	30.710	
169.00	-38.020	29.492	
170.00	-38.050	27.026	
171.00	-38.062	25.384	
172.00	-38.102	21.022	
173.00	-38.143	20.484	
174.00	-38.165	20.409	
175.00	-38.216	13.738	
176.00	-38.256	7.518	
177.00	-38.309	2.546	
178.00	-38.348	6.560	
179.00	-38.390	4.130	
180.00	-38.465	5.729	
181.00	-38.525	-1.439	
182.00	-38.613	-6.882	
183.00	-38.699	-28.021	
184.00	-38.763	-27.288	
185.00	-38.845	-37.905	
186.00	-38.897	-43.077	
187.00	-38.945	-55.092	
188.00	-38.980	-62.286	
189.00	-38.997	-69.825	
190.00	-39.055	-81.525	
191.00	-39.022	-85.337	
192.00	-39.084	-92.942	
193.00	-39.042	-110.566	
194.00	-39.043	-113.471	
195.00	-39.076	-131.750	
196.00	-39.077	-136.397	
197.00	-39.140	-155.608	
198.00	-39.142	-166.963	
199.00	-39.223	175.869	
200.00	-39.283	172.015	
201.00	-39.392	148.341	
202.00	-39.498	141.757	
203.00	-39.664	122.685	
204.00	-39.806	105.093	
205.00	-39.998	90.888	
206.00	-40.210	67.554	
207.00	-40.321	51.037	
208.00	-40.538	32.537	
209.00	-40.665	13.025	
210.00	-40.851	-2.068	
211.00	-40.981	-29.355	
212.00	-41.031	-54.805	
213.00	-41.109	-67.548	
214.00	-41.234	-96.166	
215.00	-41.224	-120.178	
216.00	-41.255	-147.468	
217.00	-41.273	-160.463	
218.00	-41.292	167.389	
219.00	-41.272	141.998	
220.00	-41.284	126.541	
221.00	-41.326	88.988	
222.00	-41.270	69.287	
223.00	-41.372	34.560	
224.00	-41.303	19.297	
225.00	-41.523	-12.830	
226.00	-41.413	-36.897	
227.00	-41.588	-46.735	
228.00	-41.644	-77.487	
229.00	-41.790	-91.031	
230.00	-41.977	-123.005	
231.00	-42.165	-135.171	
232.00	-42.474	-162.317	
233.00	-42.674	168.705	
234.00	-42.995	148.213	
235.00	-43.255	113.272	
236.00	-43.583	95.510	
237.00	-43.901	57.930	
238.00	-44.274	41.710	
239.00	-44.662	-6.241	
240.00	-44.894	-26.164	
241.00	-45.365	-65.027	
242.00	-45.626	-84.997	
243.00	-46.083	-116.024	
244.00	-46.476	-142.701	
245.00	-47.069	-174.043	
246.00	-47.570	150.230	
247.00	-48.078	120.088	
248.00	-48.650	92.064	
249.00	-49.159	60.586	
250.00	-49.734	34.845	
251.00	-50.102	-2.496	
252.00	-50.662	-16.834	
253.00	-51.154	-60.284	
254.00	-51.634	-80.081	
255.00	-52.155	-123.414	
256.00	-52.768	-149.108	
257.00	-53.406	167.439	
258.00	-54.032	143.933	
259.00	-54.762	112.286	
260.00	-55.338	74.401	
261.00	-55.980	53.145	
262.00	-56.619	11.649	
263.00	-57.170	-13.310	
264.00	-57.748	-52.627	
265.00	-58.260	-79.970	
266.00	-59.114	-120.178	
267.00	-59.797	-150.775	
268.00	-60.424	175.261	
269.00	-60.848	138.303	
270.00	-61.667	105.115	
271.00	-61.856	58.964	
272.00	-62.706	19.202	
273.00	-63.110	-16.250	
274.00	-63.376	-63.203	
275.00	-63.882	-89.279	
276.00	-64.571	-128.069	
277.00	-64.824	-159.371	
278.00	-65.439	160.427	
279.00	-65.819	120.795	
280.00	-66.017	95.124	
281.00	-66.869	51.771	
282.00	-67.139	16.037	
283.00	-68.135	-21.092	
284.00	-68.272	-55.549	
285.00	-69.004	-99.568	
286.00	-69.640	-131.287	
287.00	-69.919	-167.613	
288.00	-70.935	174.996	
289.00	-71.844	135.630	
290.00	-73.837	98.718	
291.00	-75.377	66.304	
292.00	-77.991	21.230	
293.00	-77.374	-31.193	
294.00	-77.364	-63.037	
295.00	-76.738	-108.102	
296.00	-76.846	-122.317	
297.00	-76.712	-172.464	
298.00	-78.287	177.406	
299.00	-81.685	133.132	
300.00	-88.731	65.673	
301.00	-86.218	-8.428	
302.00	-79.880	-34.273	
303.00	-79.560	-58.260	
304.00	-78.786	-111.147	
305.00	-79.418	-129.387	
306.00	-78.488	-159.681	
307.00	-79.850	-177.284	
308.00	-80.271	140.963	
309.00	-78.801	114.538	
310.00	-83.728	100.758	
311.00	-82.002	54.007	
312.00	-88.245	14.595	
313.00	-87.072	-34.703	
314.00	-87.527	-84.860	
315.00	-86.762	-163.253	
316.00	-83.819	178.549	
317.00	-84.948	126.066	
318.00	-79.446	117.760	
319.00	-82.014	76.344	
320.00	-79.279	57.588	
321.00	-80.709	20.457	
322.00	-80.771	4.141	
323.00	-80.139	-27.046	
324.00	-80.961	-63.284	
325.00	-79.383	-84.943	
326.00	-79.756	-119.728	
327.00	-81.112	-152.227	
328.00	-79.704	-149.024	
329.00	-84.118	163.272	
330.00	-83.741	134.155	
331.00	-82.273	99.518	
332.00	-83.150	54.936	
333.00	-79.536	21.651	
334.00	-79.124	-1.293	
335.00	-80.474	-26.206	
336.00	-79.317	-43.977	
337.00	-77.398	-75.220	
338.00	-80.943	-74.889	
339.00	-80.816	-122.266	
340.00	-83.156	-128.957	
341.00	-85.690	-176.291	
342.00	-84.187	155.971	
343.00	-81.993	141.671	
344.00	-88.051	100.960	
345.00	-82.813	81.580	
346.00	-81.020	69.647	
347.00	-90.085	34.142	
348.00	-89.125	-10.330	
349.00	-86.134	-26.861	
350.00	-83.501	-45.108	
351.00	-87.173	-86.131	
352.00	-85.751	-109.604	
353.00	-83.055	-114.403	
354.00	-80.800	-130.370	
355.00	-81.555	-153.565	
356.00	-80.261	-165.695	
357.00	-78.657	-160.885	
358.00	-79.319	-174.180	
359.00	-79.852	-178.661	
Frequency	4050.00	MHz	
Channel	test		
Scan Axis name	Azimuth  [deg]		
Scan Axis	Amplitude	Phase	
			
0.00	-83.762	168.307	
1.00	-84.000	170.347	
2.00	-82.609	154.159	
3.00	-84.401	134.707	
4.00	-84.633	138.976	
5.00	-82.907	95.623	
6.00	-83.322	94.771	
7.00	-88.083	104.426	
8.00	-86.711	78.389	
9.00	-89.804	65.820	
10.00	-86.365	38.262	
11.00	-99.558	-29.659	
12.00	-87.708	-52.831	
13.00	-83.677	-40.286	
14.00	-83.174	-42.914	
15.00	-81.600	-56.209	
16.00	-83.255	-55.558	
17.00	-81.458	-43.340	
18.00	-80.320	-63.467	
19.00	-82.277	-56.033	
20.00	-84.918	-38.767	
21.00	-84.536	-31.166	
22.00	-87.488	-28.716	
23.00	-86.656	-24.145	
24.00	-85.304	-24.404	
25.00	-91.880	34.038	
26.00	-90.550	42.508	
27.00	-109.401	-119.377	
28.00	-87.584	39.867	
29.00	-86.005	58.786	
30.00	-85.720	86.993	
31.00	-83.245	78.270	
32.00	-87.890	111.267	
33.00	-87.250	140.265	
34.00	-87.137	156.604	
35.00	-84.118	-173.429	
36.00	-86.459	-165.288	
37.00	-92.591	-114.972	
38.00	-95.722	-31.071	
39.00	-83.702	-20.995	
40.00	-85.059	-6.406	
41.00	-79.534	27.969	
42.00	-79.314	44.556	
43.00	-81.311	56.480	
44.00	-81.643	77.057	
45.00	-79.352	98.582	
46.00	-83.655	103.554	
47.00	-82.044	136.807	
48.00	-83.424	121.794	
49.00	-87.400	-150.380	
50.00	-83.008	-131.212	
51.00	-92.690	-19.706	
52.00	-85.824	-7.833	
53.00	-84.157	30.102	
54.00	-85.118	47.961	
55.00	-81.056	90.622	
56.00	-81.715	111.329	
57.00	-81.455	114.582	
58.00	-76.596	173.774	
59.00	-80.503	169.040	
60.00	-79.266	-132.594	
61.00	-80.071	-108.557	
62.00	-78.227	-69.356	
63.00	-80.971	-39.755	
64.00	-77.843	-2.712	
65.00	-77.831	49.564	
66.00	-76.627	66.513	
67.00	-76.867	90.902	
68.00	-77.022	134.473	
69.00	-77.453	154.052	
70.00	-77.944	-160.567	
71.00	-77.034	-127.909	
72.00	-76.035	-96.665	
73.00	-75.991	-54.463	
74.00	-74.960	-22.526	
75.00	-73.036	14.713	
76.00	-72.572	38.600	
77.00	-71.431	67.423	
78.00	-71.414	103.070	
79.00	-70.184	131.511	
80.00	-70.319	161.559	
81.00	-70.216	-173.952	
82.00	-69.935	-128.866	
83.00	-69.120	-104.490	
84.00	-68.966	-66.281	
85.00	-68.555	-39.107	
86.00	-67.398	0.824	
87.00	-66.349	28.693	
88.00	-66.020	54.877	
89.00	-64.459	85.885	
90.00	-64.533	115.102	
91.00	-64.130	142.187	
92.00	-63.994	162.182	
93.00	-63.613	-168.429	
94.00	-63.303	-145.184	
95.00	-62.728	-104.667	
96.00	-62.340	-86.389	
97.00	-61.997	-45.071	
98.00	-60.962	-24.396	
99.00	-60.904	13.998	
100.00	-60.142	38.380	
101.00	-59.487	65.153	
102.00	-58.901	89.248	
103.00	-58.331	118.317	
104.00	-57.854	137.166	
105.00	-57.212	174.357	
106.00	-56.745	-164.373	
107.00	-56.170	-130.898	
108.00	-55.550	-109.426	
109.00	-54.986	-70.717	
110.00	-54.324	-40.316	
111.00	-53.600	-18.180	
112.00	-52.969	7.035	
113.00	-52.404	22.227	
114.00	-51.868	50.719	
115.00	-51.205	83.550	
116.00	-50.724	96.488	
117.00	-50.082	130.668	
118.00	-49.619	141.675	
119.00	-49.048	173.037	
120.00	-48.492	-164.578	
121.00	-47.972	-144.294	
122.00	-47.411	-115.832	
123.00	-46.874	-97.333	
124.00	-46.353	-72.986	
125.00	-45.876	-53.564	
126.00	-45.423	-25.028	
127.00	-44.909	-1.293	
128.00	-44.484	21.941	
129.00	-44.038	44.628	
130.00	-43.665	68.511	
131.00	-43.236	94.466	
132.00	-42.896	109.499	
133.00	-42.565	133.767	
134.00	-42.235	151.973	
135.00	-41.974	169.757	
136.00	-41.710	-170.144	
137.00	-41.424	-154.126	
138.00	-41.232	-129.365	
139.00	-41.006	-115.767	
140.00	-40.831	-95.866	
141.00	-40.615	-80.478	
142.00	-40.536	-67.308	
143.00	-40.301	-42.795	
144.00	-40.223	-34.302	
145.00	-40.087	-8.692	
146.00	-39.970	-1.500	
147.00	-39.878	20.042	
148.00	-39.825	27.427	
149.00	-39.743	40.058	
150.00	-39.672	41.523	
151.00	-39.609	55.620	
152.00	-39.528	61.743	
153.00	-39.501	70.641	
154.00	-39.406	81.256	
155.00	-39.381	87.154	
156.00	-39.305	102.968	
157.00	-39.243	105.088	
158.00	-39.192	110.377	
159.00	-39.142	121.298	
160.00	-39.085	128.004	
161.00	-39.038	133.834	
162.00	-38.960	145.825	
163.00	-38.903	139.736	
164.00	-38.845	149.548	
165.00	-38.807	139.965	
166.00	-38.779	149.825	
167.00	-38.725	146.374	
168.00	-38.710	150.582	
169.00	-38.677	149.379	
170.00	-38.668	146.722	
171.00	-38.660	145.338	
172.00	-38.654	140.952	
173.00	-38.691	140.416	
174.00	-38.681	140.574	
175.00	-38.709	133.473	
176.00	-38.748	127.905	
177.00	-38.784	122.452	
178.00	-38.804	127.144	
179.00	-38.845	124.544	
180.00	-38.914	126.087	
181.00	-38.973	118.826	
182.00	-39.081	113.131	
183.00	-39.126	91.542	
184.00	-39.171	92.807	
185.00	-39.252	81.345	
186.00	-39.261	76.470	
187.00	-39.295	63.743	
188.00	-39.282	56.470	
189.00	-39.259	49.043	
190.00	-39.266	36.811	
191.00	-39.215	33.619	
192.00	-39.214	25.280	
193.00	-39.159	8.372	
194.00	-39.168	5.265	
195.00	-39.141	-13.224	
196.00	-39.150	-17.280	
197.00	-39.219	-37.203	
198.00	-39.227	-47.896	
199.00	-39.327	-65.266	
200.00	-39.412	-69.029	
201.00	-39.559	-93.086	
202.00	-39.724	-99.347	
203.00	-39.928	-118.975	
204.00	-40.134	-136.829	
205.00	-40.345	-150.880	
206.00	-40.616	-175.379	
207.00	-40.816	168.368	
208.00	-41.071	149.125	
209.00	-41.273	129.181	
210.00	-41.484	113.279	
211.00	-41.625	85.291	
212.00	-41.754	59.383	
213.00	-41.850	45.734	
214.00	-41.982	15.854	
215.00	-41.968	-8.617	
216.00	-41.978	-36.976	
217.00	-41.970	-50.698	
218.00	-41.896	-84.038	
219.00	-41.832	-109.710	
220.00	-41.778	-125.478	
221.00	-41.734	-163.783	
222.00	-41.622	176.774	
223.00	-41.682	141.016	
224.00	-41.566	126.789	
225.00	-41.731	93.457	
226.00	-41.654	70.143	
227.00	-41.800	59.533	
228.00	-41.867	29.120	
229.00	-42.001	14.947	
230.00	-42.176	-17.438	
231.00	-42.313	-29.192	
232.00	-42.650	-57.298	
233.00	-42.767	-86.063	
234.00	-43.079	-106.974	
235.00	-43.277	-142.155	
236.00	-43.588	-159.979	
237.00	-43.853	162.530	
238.00	-44.183	146.823	
239.00	-44.612	98.200	
240.00	-44.902	79.297	
241.00	-45.416	39.693	
242.00	-45.737	20.093	
243.00	-46.204	-11.572	
244.00	-46.666	-38.383	
245.00	-47.228	-71.151	
246.00	-47.692	-107.082	
247.00	-48.140	-136.529	
248.00	-48.573	-164.734	
249.00	-48.986	164.677	
250.00	-49.573	139.527	
251.00	-50.038	102.802	
252.00	-50.625	88.691	
253.00	-51.276	45.248	
254.00	-51.855	26.504	
255.00	-52.488	-17.989	
256.00	-53.224	-44.407	
257.00	-53.887	-88.824	
258.00	-54.526	-113.121	
259.00	-55.037	-144.543	
260.00	-55.605	177.883	
261.00	-56.172	156.338	
262.00	-56.866	115.360	
263.00	-57.422	92.361	
264.00	-58.136	53.817	
265.00	-58.902	27.184	
266.00	-59.787	-12.073	
267.00	-60.756	-41.370	
268.00	-61.717	-79.119	
269.00	-62.497	-114.859	
270.00	-63.035	-150.075	
271.00	-63.837	162.934	
272.00	-64.283	124.070	
273.00	-64.921	88.182	
274.00	-65.457	48.211	
275.00	-66.413	15.042	
276.00	-67.671	-20.535	
277.00	-69.069	-63.101	
278.00	-69.259	-108.905	
279.00	-69.450	-148.556	
280.00	-69.275	-179.200	
281.00	-69.965	141.540	
282.00	-69.671	112.764	
283.00	-71.130	77.538	
284.00	-71.748	46.821	
285.00	-74.027	9.556	
286.00	-76.925	-34.725	
287.00	-77.434	-91.550	
288.00	-80.485	-120.871	
289.00	-79.527	-176.594	
290.00	-79.714	151.682	
291.00	-78.436	116.458	
292.00	-80.487	98.122	
293.00	-82.919	54.159	
294.00	-82.244	11.894	
295.00	-86.580	-44.715	
296.00	-85.120	-101.256	
297.00	-82.330	-164.742	
298.00	-83.321	-179.152	
299.00	-81.006	134.878	
300.00	-82.060	94.339	
301.00	-78.590	51.830	
302.00	-80.893	29.605	
303.00	-79.102	2.299	
304.00	-79.618	-47.748	
305.00	-79.974	-91.788	
306.00	-77.264	-130.252	
307.00	-77.928	-163.864	
308.00	-77.413	161.744	
309.00	-75.663	127.793	
310.00	-76.144	116.995	
311.00	-76.054	79.349	
312.00	-77.698	61.472	
313.00	-79.311	17.123	
314.00	-82.089	-13.718	
315.00	-85.490	-85.175	
316.00	-84.096	-139.033	
317.00	-78.921	178.201	
318.00	-76.198	162.379	
319.00	-74.456	141.392	
320.00	-73.585	115.390	
321.00	-74.246	86.053	
322.00	-73.821	75.004	
323.00	-74.142	43.111	
324.00	-74.862	34.973	
325.00	-77.503	0.727	
326.00	-78.442	-17.597	
327.00	-80.751	-55.947	
328.00	-80.033	-114.474	
329.00	-80.141	-149.110	
330.00	-78.301	179.294	
331.00	-76.627	147.662	
332.00	-76.304	124.936	
333.00	-75.495	99.729	
334.00	-74.521	80.091	
335.00	-74.951	55.327	
336.00	-74.743	46.896	
337.00	-76.470	19.372	
338.00	-76.767	17.044	
339.00	-81.009	-43.098	
340.00	-83.200	-75.716	
341.00	-83.947	-95.857	
342.00	-83.277	-140.208	
343.00	-81.999	-151.546	
344.00	-80.086	177.542	
345.00	-79.112	146.309	
346.00	-79.682	148.696	
347.00	-78.357	109.882	
348.00	-80.698	113.450	
349.00	-79.820	86.410	
350.00	-82.504	71.582	
351.00	-85.749	53.581	
352.00	-86.937	21.886	
353.00	-87.916	9.656	
354.00	-88.110	-17.899	
355.00	-84.546	-65.797	
356.00	-82.750	-83.545	
357.00	-89.639	-116.933	
358.00	-87.718	-95.453	
359.00	-85.937	-133.619	
Frequency	4100.00	MHz	
Channel	test		
Scan Axis name	Azimuth  [deg]		
Scan Axis	Amplitude	Phase	
			
0.00	-80.610	-146.246	
1.00	-81.419	-148.132	
2.00	-80.501	-161.814	
3.00	-80.042	-153.508	
4.00	-79.006	-148.347	
5.00	-79.316	-150.193	
6.00	-81.981	-134.755	
7.00	-80.949	-155.874	
8.00	-80.152	-130.086	
9.00	-87.707	-96.191	
10.00	-89.416	-141.621	
11.00	-97.890	-72.906	
12.00	-87.411	-19.661	
13.00	-87.777	-48.890	
14.00	-87.983	-20.024	
15.00	-86.539	-11.760	
16.00	-85.115	-15.735	
17.00	-81.453	-30.009	
18.00	-90.801	-24.849	
19.00	-85.373	-36.493	
20.00	-87.485	-42.709	
21.00	-92.457	-42.317	
22.00	-91.109	-46.931	
23.00	-84.128	-65.251	
24.00	-88.690	-52.244	
25.00	-84.639	-26.863	
26.00	-86.458	-30.409	
27.00	-89.771	-24.955	
28.00	-92.041	-28.847	
29.00	-91.762	-60.509	
30.00	-102.867	126.338	
31.00	-87.773	172.178	
32.00	-81.807	-161.187	
33.00	-82.025	-137.860	
34.00	-80.149	-102.347	
35.00	-82.170	-70.889	
36.00	-82.385	-81.410	
37.00	-81.348	-55.737	
38.00	-79.295	-10.565	
39.00	-83.577	12.389	
40.00	-80.031	38.276	
41.00	-84.012	64.526	
42.00	-84.059	116.946	
43.00	-80.352	138.825	
44.00	-85.086	142.897	
45.00	-83.380	-166.709	
46.00	-84.140	-158.958	
47.00	-86.330	-126.718	
48.00	-82.222	-99.209	
49.00	-80.977	-30.008	
50.00	-82.471	-54.438	
51.00	-86.989	43.134	
52.00	-84.725	46.168	
53.00	-81.092	53.717	
54.00	-82.067	112.076	
55.00	-82.161	134.280	
56.00	-79.533	-158.159	
57.00	-77.444	-155.617	
58.00	-77.767	-101.253	
59.00	-77.648	-103.574	
60.00	-81.785	-58.060	
61.00	-77.823	-49.824	
62.00	-79.582	3.668	
63.00	-79.291	35.083	
64.00	-83.015	59.148	
65.00	-81.502	133.209	
66.00	-79.491	159.363	
67.00	-75.603	176.818	
68.00	-76.510	-147.162	
69.00	-76.246	-139.790	
70.00	-77.280	-84.370	
71.00	-73.307	-65.993	
72.00	-73.686	-24.621	
73.00	-74.032	-11.247	
74.00	-72.896	24.374	
75.00	-72.447	80.129	
76.00	-70.459	113.248	
77.00	-69.215	138.709	
78.00	-69.296	-177.350	
79.00	-68.475	-146.693	
80.00	-67.844	-117.172	
81.00	-66.896	-92.078	
82.00	-67.143	-51.795	
83.00	-66.396	-22.652	
84.00	-65.370	17.174	
85.00	-64.603	42.846	
86.00	-64.003	82.599	
87.00	-64.069	116.426	
88.00	-63.677	150.223	
89.00	-62.275	179.787	
90.00	-62.028	-153.854	
91.00	-61.304	-122.280	
92.00	-61.355	-98.760	
93.00	-60.873	-70.920	
94.00	-60.645	-46.530	
95.00	-59.772	-3.508	
96.00	-59.750	16.669	
97.00	-59.223	59.708	
98.00	-58.875	80.001	
99.00	-58.477	119.223	
100.00	-57.791	145.755	
101.00	-57.385	173.735	
102.00	-56.899	-160.022	
103.00	-56.468	-132.375	
104.00	-56.186	-109.954	
105.00	-55.784	-73.049	
106.00	-55.475	-52.841	
107.00	-55.131	-16.348	
108.00	-54.789	4.473	
109.00	-54.337	43.332	
110.00	-53.933	75.054	
111.00	-53.592	96.734	
112.00	-53.095	121.957	
113.00	-52.541	138.149	
114.00	-52.360	167.784	
115.00	-51.769	-161.089	
116.00	-51.335	-147.300	
117.00	-50.733	-113.423	
118.00	-50.291	-103.264	
119.00	-49.936	-71.832	
120.00	-49.282	-50.684	
121.00	-48.863	-30.935	
122.00	-48.374	-2.878	
123.00	-48.026	14.755	
124.00	-47.519	39.048	
125.00	-46.989	57.898	
126.00	-46.558	86.414	
127.00	-46.107	109.588	
128.00	-45.651	132.350	
129.00	-45.210	155.279	
130.00	-44.842	178.950	
131.00	-44.313	-155.091	
132.00	-43.967	-139.997	
133.00	-43.607	-115.562	
134.00	-43.217	-98.334	
135.00	-42.913	-80.167	
136.00	-42.577	-60.129	
137.00	-42.285	-44.161	
138.00	-42.006	-18.895	
139.00	-41.735	-5.480	
140.00	-41.495	15.357	
141.00	-41.218	30.093	
142.00	-41.044	44.022	
143.00	-40.801	68.718	
144.00	-40.698	77.641	
145.00	-40.493	103.272	
146.00	-40.338	110.935	
147.00	-40.260	133.164	
148.00	-40.137	140.654	
149.00	-40.027	153.663	
150.00	-39.953	155.374	
151.00	-39.864	170.023	
152.00	-39.777	176.430	
153.00	-39.720	-173.733	
154.00	-39.636	-163.340	
155.00	-39.576	-156.617	
156.00	-39.504	-140.667	
157.00	-39.426	-137.989	
158.00	-39.386	-132.780	
159.00	-39.306	-121.148	
160.00	-39.243	-114.924	
161.00	-39.211	-108.261	
162.00	-39.126	-96.701	
163.00	-39.068	-102.427	
164.00	-38.987	-92.749	
165.00	-38.961	-102.218	
166.00	-38.910	-92.126	
167.00	-38.861	-95.925	
168.00	-38.834	-91.347	
169.00	-38.803	-92.853	
170.00	-38.780	-95.321	
171.00	-38.760	-96.771	
172.00	-38.754	-101.351	
173.00	-38.744	-101.597	
174.00	-38.768	-101.776	
175.00	-38.773	-108.977	
176.00	-38.782	-114.339	
177.00	-38.807	-119.963	
178.00	-38.848	-114.928	
179.00	-38.883	-117.635	
180.00	-38.945	-115.992	
181.00	-38.997	-122.949	
182.00	-39.093	-128.895	
183.00	-39.181	-150.502	
184.00	-39.237	-148.133	
185.00	-39.353	-160.349	
186.00	-39.404	-164.459	
187.00	-39.500	-177.884	
188.00	-39.511	175.352	
189.00	-39.598	167.757	
190.00	-39.641	154.855	
191.00	-39.671	152.200	
192.00	-39.713	142.604	
193.00	-39.688	125.766	
194.00	-39.699	121.973	
195.00	-39.731	103.125	
196.00	-39.750	98.778	
197.00	-39.781	77.832	
198.00	-39.816	67.116	
199.00	-39.882	49.093	
200.00	-39.961	45.317	
201.00	-40.053	20.491	
202.00	-40.172	14.232	
203.00	-40.333	-5.975	
204.00	-40.476	-23.687	
205.00	-40.649	-37.831	
206.00	-40.897	-62.510	
207.00	-41.058	-78.401	
208.00	-41.324	-98.122	
209.00	-41.505	-117.379	
210.00	-41.773	-133.574	
211.00	-41.959	-161.835	
212.00	-42.108	172.112	
213.00	-42.250	158.515	
214.00	-42.371	127.838	
215.00	-42.387	103.218	
216.00	-42.415	74.874	
217.00	-42.440	60.591	
218.00	-42.407	26.905	
219.00	-42.340	0.901	
220.00	-42.307	-15.090	
221.00	-42.299	-54.343	
222.00	-42.230	-73.642	
223.00	-42.307	-110.822	
224.00	-42.174	-124.573	
225.00	-42.376	-159.560	
226.00	-42.271	178.023	
227.00	-42.438	165.929	
228.00	-42.448	135.492	
229.00	-42.610	120.512	
230.00	-42.725	87.842	
231.00	-42.881	76.108	
232.00	-43.114	47.046	
233.00	-43.239	18.429	
234.00	-43.550	-3.048	
235.00	-43.743	-37.923	
236.00	-44.069	-56.184	
237.00	-44.373	-94.149	
238.00	-44.731	-110.233	
239.00	-45.191	-159.581	
240.00	-45.489	-178.293	
241.00	-46.014	140.499	
242.00	-46.376	121.363	
243.00	-46.862	88.706	
244.00	-47.300	61.729	
245.00	-47.893	28.240	
246.00	-48.361	-7.757	
247.00	-48.772	-37.762	
248.00	-49.158	-66.373	
249.00	-49.693	-97.187	
250.00	-50.345	-123.133	
251.00	-50.889	-160.144	
252.00	-51.526	-174.714	
253.00	-52.124	140.550	
254.00	-52.811	120.171	
255.00	-53.398	75.614	
256.00	-53.956	48.407	
257.00	-54.581	3.919	
258.00	-55.149	-19.687	
259.00	-55.917	-51.892	
260.00	-56.366	-88.809	
261.00	-57.298	-110.475	
262.00	-57.981	-151.133	
263.00	-58.847	-176.792	
264.00	-59.555	141.553	
265.00	-60.118	112.284	
266.00	-61.022	69.003	
267.00	-61.476	41.394	
268.00	-62.158	4.571	
269.00	-62.854	-29.527	
270.00	-63.666	-64.679	
271.00	-64.382	-106.042	
272.00	-65.448	-146.521	
273.00	-66.650	173.302	
274.00	-67.368	124.628	
275.00	-68.242	95.854	
276.00	-68.779	48.608	
277.00	-68.501	14.865	
278.00	-68.858	-25.631	
279.00	-69.594	-64.488	
280.00	-70.462	-90.322	
281.00	-71.481	-140.993	
282.00	-71.895	-177.632	
283.00	-72.885	140.146	
284.00	-73.806	100.938	
285.00	-74.730	52.535	
286.00	-74.523	19.511	
287.00	-74.734	-26.790	
288.00	-74.745	-48.239	
289.00	-76.092	-99.017	
290.00	-77.439	-123.577	
291.00	-78.424	-159.539	
292.00	-81.485	156.422	
293.00	-80.482	90.379	
294.00	-81.108	57.241	
295.00	-80.401	10.461	
296.00	-80.305	-15.432	
297.00	-77.008	-62.052	
298.00	-76.746	-78.215	
299.00	-79.617	-126.848	
300.00	-80.337	-148.734	
301.00	-78.965	162.149	
302.00	-81.478	128.126	
303.00	-81.469	85.385	
304.00	-80.655	6.352	
305.00	-77.653	-16.726	
306.00	-76.166	-51.285	
307.00	-77.851	-81.809	
308.00	-75.855	-108.893	
309.00	-76.229	-132.753	
310.00	-76.816	-165.334	
311.00	-77.441	164.701	
312.00	-77.476	134.944	
313.00	-78.338	82.359	
314.00	-78.970	48.055	
315.00	-79.896	11.211	
316.00	-78.424	-21.888	
317.00	-79.457	-49.550	
318.00	-80.352	-87.523	
319.00	-78.652	-128.181	
320.00	-78.867	-160.557	
321.00	-79.576	161.091	
322.00	-80.128	130.651	
323.00	-80.177	103.725	
324.00	-79.931	65.500	
325.00	-78.418	32.745	
326.00	-80.714	13.057	
327.00	-79.285	-25.478	
328.00	-77.751	-58.503	
329.00	-78.556	-69.301	
330.00	-76.321	-100.885	
331.00	-76.458	-126.784	
332.00	-76.565	-156.956	
333.00	-78.277	176.697	
334.00	-79.857	157.903	
335.00	-78.006	112.381	
336.00	-81.382	110.490	
337.00	-81.443	56.720	
338.00	-82.035	19.082	
339.00	-79.280	-22.233	
340.00	-77.295	-50.455	
341.00	-76.633	-50.217	
342.00	-77.162	-87.983	
343.00	-76.112	-89.656	
344.00	-77.186	-111.648	
345.00	-79.000	-130.929	
346.00	-79.127	-130.803	
347.00	-82.562	-176.325	
348.00	-82.938	-177.320	
349.00	-87.430	126.910	
350.00	-98.813	68.186	
351.00	-93.567	88.926	
352.00	-83.793	37.387	
353.00	-85.734	11.661	
354.00	-84.322	-2.802	
355.00	-82.179	-25.119	
356.00	-84.720	-24.928	
357.00	-83.129	-65.762	
358.00	-81.430	-73.023	
359.00	-80.189	-87.918	
Frequency	4150.00	MHz	
Channel	test		
Scan Axis name	Azimuth  [deg]		
Scan Axis	Amplitude	Phase	
			
0.00	-87.011	-117.269	
1.00	-82.864	-86.058	
2.00	-83.068	-106.991	
3.00	-85.024	-111.804	
4.00	-86.072	-112.571	
5.00	-86.735	-125.512	
6.00	-86.744	-131.303	
7.00	-87.238	-151.301	
8.00	-85.996	-178.757	
9.00	-88.254	-149.748	
10.00	-86.068	168.558	
11.00	-87.268	151.165	
12.00	-90.337	123.747	
13.00	-92.581	82.969	
14.00	-91.538	115.023	
15.00	-91.038	113.616	
16.00	-86.269	58.794	
17.00	-89.879	34.426	
18.00	-85.759	14.414	
19.00	-85.000	11.091	
20.00	-84.092	-15.583	
21.00	-82.493	22.264	
22.00	-81.457	50.668	
23.00	-81.246	22.752	
24.00	-81.985	85.505	
25.00	-88.939	74.620	
26.00	-87.039	124.145	
27.00	-87.800	115.161	
28.00	-88.435	149.042	
29.00	-89.411	152.329	
30.00	-84.483	-157.015	
31.00	-84.764	-140.008	
32.00	-83.405	-79.280	
33.00	-83.606	-29.239	
34.00	-86.048	-2.300	
35.00	-81.246	14.182	
36.00	-82.870	20.940	
37.00	-81.656	42.521	
38.00	-81.375	76.497	
39.00	-84.151	103.543	
40.00	-86.265	151.021	
41.00	-83.964	-165.828	
42.00	-85.675	-155.720	
43.00	-81.584	-132.781	
44.00	-81.679	-64.071	
45.00	-83.948	-51.970	
46.00	-79.923	-20.259	
47.00	-77.816	11.612	
48.00	-77.167	31.517	
49.00	-79.398	72.623	
50.00	-76.942	83.601	
51.00	-78.094	120.852	
52.00	-76.346	149.885	
53.00	-78.703	175.900	
54.00	-77.852	-156.491	
55.00	-77.217	-117.311	
56.00	-78.336	-86.809	
57.00	-77.121	-66.830	
58.00	-77.840	-12.571	
59.00	-77.207	-13.394	
60.00	-77.638	32.107	
61.00	-78.439	50.747	
62.00	-77.168	90.604	
63.00	-76.945	128.251	
64.00	-77.258	152.994	
65.00	-78.177	-174.037	
66.00	-76.844	-152.086	
67.00	-75.747	-131.568	
68.00	-77.529	-79.949	
69.00	-78.406	-44.357	
70.00	-75.547	9.254	
71.00	-73.531	19.786	
72.00	-71.466	70.398	
73.00	-70.804	104.954	
74.00	-70.916	127.462	
75.00	-68.657	162.064	
76.00	-68.681	-163.116	
77.00	-68.110	-133.793	
78.00	-68.607	-91.919	
79.00	-67.141	-62.511	
80.00	-66.982	-27.241	
81.00	-66.057	6.726	
82.00	-65.487	46.499	
83.00	-63.874	77.515	
84.00	-63.567	116.605	
85.00	-62.536	142.724	
86.00	-62.194	-177.876	
87.00	-61.642	-145.982	
88.00	-60.931	-115.361	
89.00	-60.745	-83.501	
90.00	-60.301	-51.454	
91.00	-59.984	-18.503	
92.00	-59.396	7.842	
93.00	-58.579	36.743	
94.00	-58.060	62.996	
95.00	-57.470	105.295	
96.00	-57.023	125.522	
97.00	-56.813	167.865	
98.00	-56.192	-170.591	
99.00	-55.889	-130.517	
100.00	-55.513	-103.723	
101.00	-55.048	-74.116	
102.00	-54.634	-46.563	
103.00	-54.148	-17.361	
104.00	-53.784	5.297	
105.00	-53.385	42.681	
106.00	-53.154	64.443	
107.00	-52.707	101.087	
108.00	-52.288	122.607	
109.00	-52.187	163.333	
110.00	-51.711	-166.472	
111.00	-51.421	-142.278	
112.00	-51.044	-117.233	
113.00	-50.680	-100.818	
114.00	-50.506	-69.745	
115.00	-50.052	-38.445	
116.00	-49.782	-23.600	
117.00	-49.367	10.211	
118.00	-49.075	21.545	
119.00	-48.721	53.208	
120.00	-48.290	74.028	
121.00	-47.997	95.204	
122.00	-47.576	122.487	
123.00	-47.210	141.262	
124.00	-46.816	164.410	
125.00	-46.481	-176.752	
126.00	-46.116	-147.527	
127.00	-45.727	-124.941	
128.00	-45.334	-102.117	
129.00	-44.989	-78.838	
130.00	-44.645	-55.392	
131.00	-44.249	-29.723	
132.00	-43.922	-14.381	
133.00	-43.556	9.832	
134.00	-43.234	27.620	
135.00	-42.900	45.763	
136.00	-42.620	65.851	
137.00	-42.314	81.658	
138.00	-42.022	107.006	
139.00	-41.739	119.812	
140.00	-41.538	141.106	
141.00	-41.283	155.505	
142.00	-41.143	169.917	
143.00	-40.903	-165.926	
144.00	-40.796	-156.238	
145.00	-40.623	-130.716	
146.00	-40.492	-122.903	
147.00	-40.376	-100.329	
148.00	-40.262	-92.890	
149.00	-40.172	-79.432	
150.00	-40.102	-77.716	
151.00	-40.064	-62.401	
152.00	-39.996	-56.315	
153.00	-39.976	-45.919	
154.00	-39.905	-35.632	
155.00	-39.904	-28.403	
156.00	-39.860	-12.934	
157.00	-39.829	-9.867	
158.00	-39.777	-4.906	
159.00	-39.764	7.155	
160.00	-39.705	12.733	
161.00	-39.680	19.936	
162.00	-39.593	30.626	
163.00	-39.551	24.884	
164.00	-39.492	34.335	
165.00	-39.434	24.437	
166.00	-39.354	34.695	
167.00	-39.307	30.523	
168.00	-39.238	35.081	
169.00	-39.198	33.255	
170.00	-39.140	30.517	
171.00	-39.130	29.126	
172.00	-39.097	24.226	
173.00	-39.063	24.173	
174.00	-39.070	23.956	
175.00	-39.082	16.387	
176.00	-39.079	11.307	
177.00	-39.110	5.398	
178.00	-39.144	10.758	
179.00	-39.180	7.620	
180.00	-39.239	9.058	
181.00	-39.308	2.211	
182.00	-39.412	-4.457	
183.00	-39.495	-26.577	
184.00	-39.574	-23.721	
185.00	-39.659	-36.928	
186.00	-39.736	-40.832	
187.00	-39.806	-54.798	
188.00	-39.823	-61.999	
189.00	-39.845	-69.657	
190.00	-39.872	-82.918	
191.00	-39.848	-85.404	
192.00	-39.870	-95.851	
193.00	-39.802	-112.330	
194.00	-39.805	-116.254	
195.00	-39.799	-135.160	
196.00	-39.762	-139.405	
197.00	-39.792	-160.653	
198.00	-39.820	-170.847	
199.00	-39.877	170.963	
200.00	-39.949	167.346	
201.00	-40.055	142.524	
202.00	-40.172	136.594	
203.00	-40.371	116.205	
204.00	-40.570	98.707	
205.00	-40.772	84.818	
206.00	-41.046	59.620	
207.00	-41.278	44.181	
208.00	-41.564	24.250	
209.00	-41.787	5.024	
210.00	-42.106	-11.418	
211.00	-42.290	-40.166	
212.00	-42.525	-66.000	
213.00	-42.737	-79.540	
214.00	-42.929	-111.032	
215.00	-43.025	-135.955	
216.00	-43.079	-164.495	
217.00	-43.154	-179.434	
218.00	-43.202	145.781	
219.00	-43.177	119.386	
220.00	-43.132	102.407	
221.00	-43.137	62.381	
222.00	-43.030	42.499	
223.00	-43.105	3.600	
224.00	-42.985	-9.540	
225.00	-43.104	-46.641	
226.00	-42.971	-68.088	
227.00	-43.047	-81.534	
228.00	-43.034	-112.042	
229.00	-43.155	-127.489	
230.00	-43.201	-160.490	
231.00	-43.300	-172.073	
232.00	-43.538	157.564	
233.00	-43.652	129.449	
234.00	-43.907	107.098	
235.00	-44.068	72.157	
236.00	-44.396	53.541	
237.00	-44.641	14.976	
238.00	-45.009	-1.182	
239.00	-45.378	-51.959	
240.00	-45.661	-70.123	
241.00	-46.152	-112.684	
242.00	-46.429	-131.093	
243.00	-46.895	-164.647	
244.00	-47.297	168.680	
245.00	-47.879	134.873	
246.00	-48.298	99.083	
247.00	-48.826	68.696	
248.00	-49.333	39.700	
249.00	-49.800	8.384	
250.00	-50.378	-18.927	
251.00	-50.865	-55.857	
252.00	-51.528	-70.872	
253.00	-52.025	-115.730	
254.00	-52.706	-134.547	
255.00	-53.300	179.236	
256.00	-54.038	152.411	
257.00	-54.557	107.510	
258.00	-55.248	82.409	
259.00	-56.065	50.813	
260.00	-56.687	13.597	
261.00	-57.354	-10.059	
262.00	-58.017	-51.719	
263.00	-58.527	-76.579	
264.00	-59.168	-118.174	
265.00	-59.888	-145.057	
266.00	-60.888	173.944	
267.00	-61.591	144.651	
268.00	-62.679	105.493	
269.00	-63.523	70.598	
270.00	-64.622	35.306	
271.00	-65.812	-12.140	
272.00	-66.305	-54.667	
273.00	-67.229	-94.810	
274.00	-67.180	-142.542	
275.00	-67.752	-172.030	
276.00	-68.201	150.723	
277.00	-69.539	115.225	
278.00	-70.738	76.821	
279.00	-72.823	40.188	
280.00	-74.032	-1.104	
281.00	-75.300	-58.948	
282.00	-75.943	-105.447	
283.00	-73.482	-151.388	
284.00	-73.696	169.757	
285.00	-73.209	128.386	
286.00	-74.267	98.312	
287.00	-74.726	53.480	
288.00	-77.336	35.453	
289.00	-77.942	-27.077	
290.00	-78.306	-72.504	
291.00	-78.020	-120.285	
292.00	-76.664	-155.067	
293.00	-76.459	163.304	
294.00	-75.826	143.183	
295.00	-75.564	101.225	
296.00	-77.105	79.992	
297.00	-77.731	24.748	
298.00	-78.043	7.635	
299.00	-77.057	-51.458	
300.00	-76.164	-93.378	
301.00	-75.754	-126.594	
302.00	-75.731	-166.189	
303.00	-76.042	165.211	
304.00	-79.976	113.512	
305.00	-77.986	92.011	
306.00	-78.848	46.388	
307.00	-77.487	7.666	
308.00	-78.105	-39.197	
309.00	-76.704	-64.008	
310.00	-75.095	-109.982	
311.00	-74.403	-143.954	
312.00	-74.456	-158.900	
313.00	-74.789	155.065	
314.00	-74.065	132.992	
315.00	-76.197	99.332	
316.00	-76.484	71.646	
317.00	-78.970	38.419	
318.00	-78.017	4.213	
319.00	-80.048	-41.728	
320.00	-80.677	-86.375	
321.00	-80.326	-127.124	
322.00	-77.681	-151.697	
323.00	-79.131	177.377	
324.00	-80.775	157.858	
325.00	-78.737	116.007	
326.00	-77.126	88.798	
327.00	-79.289	71.155	
328.00	-78.327	39.612	
329.00	-78.435	4.042	
330.00	-77.962	-30.557	
331.00	-78.766	-62.380	
332.00	-76.937	-83.276	
333.00	-76.618	-99.556	
334.00	-77.484	-124.167	
335.00	-77.220	-163.216	
336.00	-78.849	-168.037	
337.00	-80.337	151.082	
338.00	-79.750	135.463	
339.00	-81.935	108.726	
340.00	-80.470	63.451	
341.00	-82.312	63.866	
342.00	-85.911	27.560	
343.00	-87.470	-29.000	
344.00	-84.963	-46.352	
345.00	-84.085	-65.756	
346.00	-83.466	-113.774	
347.00	-80.634	-142.013	
348.00	-80.912	-165.106	
349.00	-81.039	169.883	
350.00	-80.686	166.958	
351.00	-80.749	152.192	
352.00	-80.986	155.533	
353.00	-81.317	115.804	
354.00	-83.394	131.062	
355.00	-87.762	62.571	
356.00	-88.792	108.544	
357.00	-89.094	62.300	
358.00	-91.965	-15.283	
359.00	-87.203	-34.846	
Frequency	4200.00	MHz	
Channel	test		
Scan Axis name	Azimuth  [deg]		
Scan Axis	Amplitude	Phase	
			
0.00	-81.960	2.847	
1.00	-86.311	-23.603	
2.00	-82.391	-41.135	
3.00	-85.371	-28.759	
4.00	-82.350	-36.280	
5.00	-84.969	-75.105	
6.00	-83.000	-70.847	
7.00	-81.033	-80.621	
8.00	-81.137	-118.020	
9.00	-82.159	-111.341	
10.00	-81.139	-114.453	
11.00	-82.517	-113.018	
12.00	-81.059	-113.140	
13.00	-83.314	-111.051	
14.00	-86.063	-98.295	
15.00	-86.498	-47.750	
16.00	-90.945	-58.377	
17.00	-84.332	12.183	
18.00	-84.262	17.354	
19.00	-86.345	3.565	
20.00	-81.979	47.947	
21.00	-79.945	83.457	
22.00	-80.661	118.017	
23.00	-80.302	110.142	
24.00	-82.212	173.986	
25.00	-82.735	176.556	
26.00	-79.945	-138.309	
27.00	-81.582	-117.989	
28.00	-79.415	-71.161	
29.00	-78.839	-61.472	
30.00	-79.040	-28.683	
31.00	-78.364	-20.981	
32.00	-77.340	13.747	
33.00	-77.045	39.984	
34.00	-77.176	65.020	
35.00	-77.144	84.776	
36.00	-78.096	96.259	
37.00	-79.456	132.717	
38.00	-78.505	173.449	
39.00	-78.908	-141.099	
40.00	-79.830	-98.314	
41.00	-77.345	-62.145	
42.00	-75.590	-34.303	
43.00	-75.985	-24.570	
44.00	-73.109	4.097	
45.00	-73.893	9.421	
46.00	-73.516	40.491	
47.00	-75.104	84.349	
48.00	-75.555	92.125	
49.00	-75.423	131.935	
50.00	-74.601	161.904	
51.00	-77.009	-131.556	
52.00	-74.245	-111.202	
53.00	-74.111	-80.122	
54.00	-74.549	-61.639	
55.00	-74.262	-28.705	
56.00	-75.223	10.191	
57.00	-73.732	34.133	
58.00	-77.500	72.940	
59.00	-77.118	86.993	
60.00	-76.359	109.173	
61.00	-75.412	159.326	
62.00	-75.762	-158.915	
63.00	-75.548	-141.021	
64.00	-76.637	-82.881	
65.00	-74.085	-53.007	
66.00	-74.672	-20.435	
67.00	-73.978	-9.407	
68.00	-75.504	39.872	
69.00	-73.239	59.742	
70.00	-73.523	127.004	
71.00	-71.850	132.216	
72.00	-74.411	158.198	
73.00	-72.349	-143.260	
74.00	-68.910	-134.751	
75.00	-68.945	-107.270	
76.00	-68.911	-77.590	
77.00	-67.911	-22.074	
78.00	-68.343	15.891	
79.00	-67.776	40.583	
80.00	-66.971	70.390	
81.00	-66.462	108.569	
82.00	-64.429	142.326	
83.00	-63.984	168.464	
84.00	-64.589	-150.119	
85.00	-62.129	-116.708	
86.00	-63.151	-79.071	
87.00	-61.593	-50.086	
88.00	-61.568	-18.546	
89.00	-60.755	15.754	
90.00	-60.291	50.502	
91.00	-59.198	80.639	
92.00	-59.166	106.882	
93.00	-58.510	136.855	
94.00	-57.904	161.505	
95.00	-57.156	-156.014	
96.00	-56.783	-134.443	
97.00	-56.068	-90.969	
98.00	-55.902	-69.067	
99.00	-55.189	-27.236	
100.00	-54.786	-0.686	
101.00	-54.249	28.562	
102.00	-53.832	57.140	
103.00	-53.521	85.122	
104.00	-53.165	109.746	
105.00	-52.780	147.805	
106.00	-52.520	170.010	
107.00	-52.235	-151.761	
108.00	-51.805	-129.781	
109.00	-51.640	-86.936	
110.00	-51.190	-56.536	
111.00	-50.795	-31.930	
112.00	-50.523	-6.118	
113.00	-50.256	10.102	
114.00	-50.180	42.211	
115.00	-49.710	72.588	
116.00	-49.581	89.074	
117.00	-49.144	123.084	
118.00	-48.996	134.214	
119.00	-48.739	166.416	
120.00	-48.428	-173.156	
121.00	-48.202	-151.103	
122.00	-47.942	-123.349	
123.00	-47.674	-104.686	
124.00	-47.338	-81.473	
125.00	-46.955	-62.795	
126.00	-46.698	-33.490	
127.00	-46.305	-11.366	
128.00	-45.955	11.864	
129.00	-45.577	34.528	
130.00	-45.268	57.863	
131.00	-44.838	83.025	
132.00	-44.603	97.611	
133.00	-44.243	121.568	
134.00	-43.892	139.075	
135.00	-43.547	157.022	
136.00	-43.309	176.835	
137.00	-42.988	-167.578	
138.00	-42.716	-142.057	
139.00	-42.389	-129.145	
140.00	-42.217	-107.556	
141.00	-41.865	-93.575	
142.00	-41.688	-78.309	
143.00	-41.410	-54.630	
144.00	-41.230	-44.225	
145.00	-41.011	-19.034	
146.00	-40.838	-11.010	
147.00	-40.652	11.594	
148.00	-40.490	19.091	
149.00	-40.356	32.851	
150.00	-40.310	34.303	
151.00	-40.215	49.826	
152.00	-40.128	56.073	
153.00	-40.078	66.777	
154.00	-40.007	76.522	
155.00	-39.991	84.607	
156.00	-39.905	99.869	
157.00	-39.870	103.272	
158.00	-39.839	108.170	
159.00	-39.817	120.853	
160.00	-39.735	125.950	
161.00	-39.711	133.727	
162.00	-39.641	144.060	
163.00	-39.595	138.339	
164.00	-39.527	147.578	
165.00	-39.492	137.519	
166.00	-39.439	148.086	
167.00	-39.382	143.669	
168.00	-39.321	148.566	
169.00	-39.279	146.571	
170.00	-39.242	143.789	
171.00	-39.215	142.418	
172.00	-39.198	137.231	
173.00	-39.176	137.258	
174.00	-39.171	137.050	
175.00	-39.156	129.184	
176.00	-39.169	124.249	
177.00	-39.195	117.915	
178.00	-39.222	123.965	
179.00	-39.231	120.518	
180.00	-39.293	122.073	
181.00	-39.369	115.469	
182.00	-39.441	108.292	
183.00	-39.559	86.096	
184.00	-39.635	89.728	
185.00	-39.729	76.077	
186.00	-39.813	72.760	
187.00	-39.898	58.415	
188.00	-39.975	51.290	
189.00	-40.023	43.694	
190.00	-40.111	29.848	
191.00	-40.109	27.981	
192.00	-40.185	16.475	
193.00	-40.130	0.097	
194.00	-40.128	-4.499	
195.00	-40.120	-23.786	
196.00	-40.082	-28.193	
197.00	-40.095	-50.336	
198.00	-40.076	-60.646	
199.00	-40.085	-79.092	
200.00	-40.133	-82.868	
201.00	-40.199	-108.138	
202.00	-40.291	-113.896	
203.00	-40.429	-134.691	
204.00	-40.586	-152.415	
205.00	-40.762	-166.243	
206.00	-41.019	168.614	
207.00	-41.191	153.547	
208.00	-41.494	133.274	
209.00	-41.759	114.629	
210.00	-42.081	97.801	
211.00	-42.400	69.059	
212.00	-42.632	43.195	
213.00	-42.860	29.525	
214.00	-43.119	-2.916	
215.00	-43.274	-27.741	
216.00	-43.376	-57.078	
217.00	-43.499	-72.682	
218.00	-43.564	-107.971	
219.00	-43.556	-135.217	
220.00	-43.568	-152.189	
221.00	-43.553	166.454	
222.00	-43.474	146.418	
223.00	-43.513	106.249	
224.00	-43.338	93.091	
225.00	-43.488	54.708	
226.00	-43.308	33.843	
227.00	-43.375	18.838	
228.00	-43.284	-11.132	
229.00	-43.372	-27.433	
230.00	-43.377	-61.042	
231.00	-43.451	-72.387	
232.00	-43.699	-103.634	
233.00	-43.767	-131.673	
234.00	-44.013	-154.936	
235.00	-44.140	169.978	
236.00	-44.426	151.026	
237.00	-44.614	112.257	
238.00	-44.947	95.508	
239.00	-45.284	44.015	
240.00	-45.540	26.458	
241.00	-45.921	-16.656	
242.00	-46.257	-35.042	
243.00	-46.717	-68.871	
244.00	-47.082	-96.481	
245.00	-47.663	-130.235	
246.00	-48.132	-166.475	
247.00	-48.590	163.290	
248.00	-49.056	133.526	
249.00	-49.621	102.484	
250.00	-50.134	74.930	
251.00	-50.603	37.761	
252.00	-51.224	22.480	
253.00	-51.733	-23.198	
254.00	-52.442	-42.357	
255.00	-53.043	-88.866	
256.00	-53.707	-116.168	
257.00	-54.345	-162.089	
258.00	-54.976	173.543	
259.00	-55.652	141.040	
260.00	-56.221	103.670	
261.00	-56.879	80.016	
262.00	-57.261	38.880	
263.00	-58.183	13.846	
264.00	-58.781	-27.547	
265.00	-59.586	-54.061	
266.00	-60.694	-95.651	
267.00	-61.413	-123.808	
268.00	-62.212	-163.057	
269.00	-62.977	159.759	
270.00	-63.924	124.899	
271.00	-64.740	81.082	
272.00	-65.649	39.571	
273.00	-66.450	-0.689	
274.00	-67.643	-45.250	
275.00	-68.592	-77.542	
276.00	-69.640	-122.199	
277.00	-69.887	-156.597	
278.00	-70.762	160.055	
279.00	-72.064	124.127	
280.00	-72.893	91.967	
281.00	-75.114	40.684	
282.00	-76.514	-0.134	
283.00	-77.213	-50.743	
284.00	-75.567	-87.180	
285.00	-76.540	-158.500	
286.00	-76.311	168.801	
287.00	-75.530	142.640	
288.00	-77.039	110.640	
289.00	-76.842	62.007	
290.00	-79.823	25.671	
291.00	-79.860	-16.168	
292.00	-80.367	-67.846	
293.00	-81.805	-115.577	
294.00	-81.978	-163.925	
295.00	-78.919	157.793	
296.00	-80.887	114.871	
297.00	-77.682	68.658	
298.00	-76.014	53.924	
299.00	-76.370	6.812	
300.00	-76.496	-31.111	
301.00	-77.454	-63.130	
302.00	-77.652	-95.690	
303.00	-78.675	-121.903	
304.00	-79.015	-165.134	
305.00	-81.892	134.893	
306.00	-82.595	67.955	
307.00	-77.488	55.564	
308.00	-78.427	26.692	
309.00	-76.776	-16.579	
310.00	-76.599	-42.375	
311.00	-76.917	-86.636	
312.00	-77.201	-113.252	
313.00	-75.891	-154.428	
314.00	-75.885	174.809	
315.00	-75.398	142.508	
316.00	-76.468	109.271	
317.00	-75.707	80.657	
318.00	-76.343	53.471	
319.00	-77.611	18.558	
320.00	-79.681	-9.854	
321.00	-77.380	-51.461	
322.00	-79.694	-70.473	
323.00	-80.387	-110.239	
324.00	-81.259	-158.396	
325.00	-82.350	147.922	
326.00	-82.519	125.713	
327.00	-79.060	87.781	
328.00	-77.326	54.740	
329.00	-76.164	39.784	
330.00	-75.326	20.710	
331.00	-75.481	-8.008	
332.00	-75.652	-33.202	
333.00	-76.300	-48.962	
334.00	-76.523	-82.423	
335.00	-76.593	-119.907	
336.00	-77.853	-114.861	
337.00	-78.052	177.096	
338.00	-79.995	176.363	
339.00	-78.711	127.830	
340.00	-79.515	103.465	
341.00	-81.129	86.118	
342.00	-82.777	61.279	
343.00	-85.152	32.006	
344.00	-84.090	-5.608	
345.00	-83.030	-34.131	
346.00	-85.198	-69.247	
347.00	-79.526	-86.963	
348.00	-81.210	-114.256	
349.00	-80.984	-131.453	
350.00	-81.316	-119.347	
351.00	-81.736	-157.993	
352.00	-81.789	-151.351	
353.00	-83.136	-175.282	
354.00	-85.650	144.141	
355.00	-84.252	112.286	
356.00	-84.884	75.574	
357.00	-83.397	81.906	
358.00	-82.760	73.839	
359.00	-83.433	50.186	
