Test Title:	Alpha Wireless Indoor Range						
Date:	21/03/2018						
Time:	13:14						
Operator Name:	FL						
Comment:	Radome height is 74mm 

No wings						
Caib. File Name:	C:\Program Files\Midas 2.01d\Calibration Files\test sigma 180900.cal						
							
[Scan Axis] Name: 	Azimuth  [deg]Start: 	0.000000	Stop	359.000000	Increment	1.000000[Step Axis] Name: 	Start: 	0.000000	Stop	0.000000	Increment	0.000000[Tert] Name: 	None [Forth] Name: 	None  [ Freq.]  (List) 	MHz.	3400.000000	3450.000000	3500.000000	3550.000000	3600.000000	3650.000000	3700.000000	3750.000000	3800.000000	3850.000000	3900.000000	3950.000000	4000.000000	4050.000000	4100.000000	4150.000000	4200.000000
 [Switch]  	None [Channel]  	test			 [ Beam] 	None			
Database:			
First Question			
2nd			
3rd			
4th			
			
Frequency	3400.00	MHz	
Channel	test		
Scan Axis name	Azimuth  [deg]		
Scan Axis	Amplitude	Phase	
			
0.00	-84.073	-102.080	
1.00	-81.201	-125.394	
2.00	-78.182	-129.672	
3.00	-76.496	-115.292	
4.00	-75.974	-109.701	
5.00	-73.524	-118.986	
6.00	-73.075	-105.574	
7.00	-71.966	-101.988	
8.00	-71.813	-92.199	
9.00	-71.372	-85.727	
10.00	-71.306	-79.661	
11.00	-71.635	-71.361	
12.00	-71.982	-62.667	
13.00	-72.297	-57.072	
14.00	-73.003	-46.527	
15.00	-74.340	-38.355	
16.00	-75.449	-28.775	
17.00	-77.112	-16.684	
18.00	-81.245	-13.973	
19.00	-91.003	31.975	
20.00	-95.189	136.655	
21.00	-82.719	-161.966	
22.00	-77.592	-159.739	
23.00	-75.744	-152.257	
24.00	-73.296	-137.272	
25.00	-73.392	-129.527	
26.00	-72.466	-119.925	
27.00	-71.110	-103.098	
28.00	-70.934	-95.927	
29.00	-70.931	-85.828	
30.00	-71.512	-67.341	
31.00	-72.570	-55.901	
32.00	-72.150	-45.604	
33.00	-73.274	-28.642	
34.00	-74.161	-23.985	
35.00	-76.419	-8.791	
36.00	-79.592	6.236	
37.00	-87.450	30.313	
38.00	-89.799	114.314	
39.00	-83.925	162.095	
40.00	-78.419	-146.516	
41.00	-75.114	-136.816	
42.00	-72.992	-119.746	
43.00	-72.134	-100.647	
44.00	-71.821	-88.695	
45.00	-71.792	-73.006	
46.00	-71.315	-61.214	
47.00	-72.834	-53.024	
48.00	-73.581	-43.832	
49.00	-75.904	-32.543	
50.00	-78.198	-16.176	
51.00	-85.475	3.112	
52.00	-86.528	120.294	
53.00	-81.601	-157.445	
54.00	-77.950	-141.762	
55.00	-75.276	-140.962	
56.00	-72.931	-120.334	
57.00	-71.957	-117.114	
58.00	-71.345	-96.383	
59.00	-71.352	-93.017	
60.00	-71.648	-68.293	
61.00	-72.291	-63.473	
62.00	-73.159	-37.453	
63.00	-75.545	-20.301	
64.00	-78.711	7.221	
65.00	-81.714	45.075	
66.00	-81.095	105.701	
67.00	-77.302	161.807	
68.00	-73.953	-165.973	
69.00	-72.057	-153.958	
70.00	-69.841	-123.913	
71.00	-69.256	-116.607	
72.00	-68.093	-89.445	
73.00	-67.509	-76.725	
74.00	-67.557	-44.432	
75.00	-67.313	-35.170	
76.00	-67.929	-2.745	
77.00	-68.122	18.952	
78.00	-68.456	40.012	
79.00	-69.734	83.171	
80.00	-69.211	107.955	
81.00	-68.251	140.983	
82.00	-67.259	176.358	
83.00	-67.296	-164.148	
84.00	-65.740	-129.999	
85.00	-65.426	-109.377	
86.00	-65.114	-78.675	
87.00	-65.026	-59.088	
88.00	-64.931	-31.579	
89.00	-65.180	-1.690	
90.00	-65.207	20.780	
91.00	-65.148	51.217	
92.00	-65.201	81.695	
93.00	-64.525	110.167	
94.00	-63.453	150.591	
95.00	-62.904	164.289	
96.00	-62.253	-159.902	
97.00	-61.600	-142.494	
98.00	-60.966	-108.826	
99.00	-60.482	-94.256	
100.00	-60.231	-64.131	
101.00	-59.681	-41.851	
102.00	-60.291	-16.810	
103.00	-60.311	13.271	
104.00	-60.303	29.891	
105.00	-60.331	61.170	
106.00	-60.013	81.756	
107.00	-59.909	106.947	
108.00	-59.354	136.161	
109.00	-59.000	159.672	
110.00	-58.366	-175.005	
111.00	-57.871	-154.983	
112.00	-57.502	-135.726	
113.00	-57.384	-107.362	
114.00	-57.056	-98.543	
115.00	-57.076	-72.796	
116.00	-57.086	-55.643	
117.00	-57.177	-33.071	
118.00	-57.310	-6.009	
119.00	-57.650	8.378	
120.00	-57.777	36.263	
121.00	-57.943	51.173	
122.00	-58.178	79.331	
123.00	-58.226	93.114	
124.00	-58.135	123.512	
125.00	-58.097	138.700	
126.00	-57.964	155.996	
127.00	-57.647	178.077	
128.00	-57.526	-168.361	
129.00	-57.325	-144.350	
130.00	-57.162	-137.394	
131.00	-57.219	-117.469	
132.00	-57.028	-108.967	
133.00	-56.966	-93.673	
134.00	-56.900	-79.029	
135.00	-56.664	-67.397	
136.00	-56.686	-52.176	
137.00	-56.542	-42.278	
138.00	-56.423	-24.946	
139.00	-56.420	-18.289	
140.00	-56.215	-2.895	
141.00	-56.304	5.386	
142.00	-56.165	16.601	
143.00	-56.215	28.508	
144.00	-56.217	41.519	
145.00	-56.120	53.539	
146.00	-56.326	65.084	
147.00	-56.326	77.085	
148.00	-56.449	86.781	
149.00	-56.420	97.762	
150.00	-56.603	106.607	
151.00	-56.657	111.908	
152.00	-56.789	121.264	
153.00	-57.067	131.347	
154.00	-57.287	137.101	
155.00	-57.519	149.879	
156.00	-58.051	153.217	
157.00	-58.437	164.575	
158.00	-58.755	170.272	
159.00	-59.256	174.465	
160.00	-59.413	-179.540	
161.00	-60.024	-175.664	
162.00	-60.082	-169.113	
163.00	-60.364	-166.953	
164.00	-60.380	-163.116	
165.00	-60.375	-156.853	
166.00	-60.560	-154.639	
167.00	-60.713	-150.658	
168.00	-60.643	-148.495	
169.00	-60.814	-149.625	
170.00	-60.896	-144.492	
171.00	-61.125	-147.130	
172.00	-60.990	-144.058	
173.00	-61.181	-143.558	
174.00	-61.109	-142.111	
175.00	-61.097	-144.172	
176.00	-61.016	-143.226	
177.00	-60.749	-145.233	
178.00	-60.652	-146.024	
179.00	-60.434	-158.488	
180.00	-60.318	-156.524	
181.00	-59.903	-158.732	
182.00	-59.667	-167.002	
183.00	-58.944	-165.444	
184.00	-58.863	-176.775	
185.00	-58.103	-174.670	
186.00	-57.774	178.002	
187.00	-57.232	167.668	
188.00	-56.832	164.473	
189.00	-56.374	155.746	
190.00	-56.157	151.749	
191.00	-55.924	130.805	
192.00	-55.470	133.533	
193.00	-55.439	111.017	
194.00	-55.116	105.715	
195.00	-55.010	87.623	
196.00	-54.912	73.364	
197.00	-54.886	63.081	
198.00	-54.759	45.129	
199.00	-54.998	35.516	
200.00	-54.869	14.036	
201.00	-55.126	9.051	
202.00	-55.212	-6.168	
203.00	-55.352	-13.825	
204.00	-55.817	-23.079	
205.00	-56.206	-40.012	
206.00	-56.542	-52.495	
207.00	-56.995	-72.546	
208.00	-57.453	-89.429	
209.00	-57.888	-107.526	
210.00	-58.352	-126.014	
211.00	-58.657	-146.373	
212.00	-58.812	-168.029	
213.00	-59.218	169.844	
214.00	-59.075	145.141	
215.00	-58.984	133.245	
216.00	-58.524	104.226	
217.00	-58.208	100.888	
218.00	-57.999	61.838	
219.00	-57.665	52.197	
220.00	-57.126	32.345	
221.00	-57.065	26.941	
222.00	-56.790	2.243	
223.00	-56.699	-12.576	
224.00	-56.623	-33.587	
225.00	-56.514	-47.558	
226.00	-56.624	-68.141	
227.00	-56.579	-76.792	
228.00	-56.743	-101.628	
229.00	-56.869	-119.034	
230.00	-56.901	-136.565	
231.00	-57.172	-160.887	
232.00	-57.203	-168.969	
233.00	-57.585	160.031	
234.00	-57.697	144.051	
235.00	-57.976	114.221	
236.00	-57.983	100.058	
237.00	-58.048	72.435	
238.00	-57.975	55.842	
239.00	-58.064	23.595	
240.00	-57.863	0.908	
241.00	-57.821	-21.852	
242.00	-57.878	-44.066	
243.00	-57.876	-67.747	
244.00	-58.086	-90.153	
245.00	-58.605	-118.229	
246.00	-58.760	-138.922	
247.00	-59.574	-167.529	
248.00	-59.964	166.087	
249.00	-60.470	146.352	
250.00	-60.771	104.174	
251.00	-61.023	93.633	
252.00	-60.967	45.197	
253.00	-60.760	33.290	
254.00	-60.421	-8.118	
255.00	-60.436	-25.687	
256.00	-60.306	-62.701	
257.00	-60.385	-80.757	
258.00	-60.805	-118.863	
259.00	-61.430	-146.689	
260.00	-62.279	-174.571	
261.00	-62.942	131.866	
262.00	-63.040	108.263	
263.00	-63.056	66.578	
264.00	-62.503	37.503	
265.00	-61.834	-1.093	
266.00	-61.489	-30.437	
267.00	-61.612	-37.088	
268.00	-61.660	-76.130	
269.00	-62.038	-88.298	
270.00	-62.616	-116.648	
271.00	-63.504	-143.005	
272.00	-64.454	-173.094	
273.00	-65.052	166.305	
274.00	-65.841	126.592	
275.00	-66.417	101.031	
276.00	-66.054	55.116	
277.00	-65.698	24.928	
278.00	-65.406	-4.453	
279.00	-65.349	-35.440	
280.00	-65.154	-61.540	
281.00	-65.963	-101.402	
282.00	-66.606	-116.374	
283.00	-68.232	-163.641	
284.00	-68.865	173.456	
285.00	-70.833	117.381	
286.00	-70.539	84.213	
287.00	-70.221	49.917	
288.00	-69.349	14.379	
289.00	-68.001	-14.211	
290.00	-67.809	-31.832	
291.00	-67.180	-66.384	
292.00	-67.516	-78.570	
293.00	-68.303	-122.100	
294.00	-68.136	-127.183	
295.00	-69.652	-164.724	
296.00	-70.158	170.802	
297.00	-71.295	144.064	
298.00	-72.503	97.041	
299.00	-72.954	78.361	
300.00	-72.291	33.750	
301.00	-72.583	12.375	
302.00	-71.747	-17.261	
303.00	-71.227	-40.675	
304.00	-71.019	-62.294	
305.00	-71.190	-89.728	
306.00	-71.077	-104.696	
307.00	-72.106	-119.867	
308.00	-73.385	-142.600	
309.00	-76.514	-162.387	
310.00	-82.026	172.905	
311.00	-84.684	102.136	
312.00	-80.036	26.208	
313.00	-77.096	-8.867	
314.00	-73.248	-43.241	
315.00	-71.632	-45.786	
316.00	-69.877	-53.541	
317.00	-69.544	-73.923	
318.00	-69.494	-79.006	
319.00	-69.997	-92.684	
320.00	-69.969	-99.380	
321.00	-72.245	-116.087	
322.00	-73.352	-116.039	
323.00	-75.138	-125.231	
324.00	-77.784	-133.931	
325.00	-79.255	-121.986	
326.00	-82.448	-100.850	
327.00	-82.648	-66.989	
328.00	-78.063	-52.852	
329.00	-76.036	-55.485	
330.00	-73.672	-57.005	
331.00	-73.628	-70.750	
332.00	-72.412	-87.847	
333.00	-72.201	-94.590	
334.00	-72.301	-99.466	
335.00	-72.314	-105.112	
336.00	-72.999	-106.574	
337.00	-74.165	-116.339	
338.00	-73.920	-107.901	
339.00	-74.491	-106.179	
340.00	-75.359	-101.429	
341.00	-76.603	-112.039	
342.00	-77.502	-84.876	
343.00	-78.046	-87.838	
344.00	-77.332	-67.396	
345.00	-76.966	-60.844	
346.00	-76.235	-50.607	
347.00	-75.961	-49.643	
348.00	-75.686	-50.246	
349.00	-76.049	-45.642	
350.00	-75.527	-44.062	
351.00	-76.076	-36.632	
352.00	-75.394	-43.778	
353.00	-75.340	-35.996	
354.00	-76.256	-44.221	
355.00	-77.895	-40.449	
356.00	-80.223	-39.029	
357.00	-80.986	-43.003	
358.00	-82.360	-45.099	
359.00	-85.531	-84.095	
Frequency	3450.00	MHz	
Channel	test		
Scan Axis name	Azimuth  [deg]		
Scan Axis	Amplitude	Phase	
			
0.00	-80.909	-75.396	
1.00	-79.495	-92.284	
2.00	-77.211	-79.579	
3.00	-76.450	-70.244	
4.00	-75.889	-72.812	
5.00	-74.525	-59.297	
6.00	-73.041	-58.356	
7.00	-73.074	-49.222	
8.00	-72.519	-39.524	
9.00	-73.190	-30.232	
10.00	-73.931	-25.703	
11.00	-74.253	-10.602	
12.00	-73.707	5.274	
13.00	-74.839	15.516	
14.00	-74.744	28.721	
15.00	-76.069	36.800	
16.00	-80.217	52.869	
17.00	-79.577	83.824	
18.00	-85.577	121.330	
19.00	-83.111	169.724	
20.00	-78.562	-148.433	
21.00	-77.036	-130.485	
22.00	-74.841	-106.024	
23.00	-74.169	-106.629	
24.00	-72.929	-86.813	
25.00	-71.655	-75.789	
26.00	-72.303	-67.051	
27.00	-70.914	-47.977	
28.00	-70.685	-35.977	
29.00	-71.835	-22.159	
30.00	-72.112	-12.999	
31.00	-72.790	8.684	
32.00	-74.265	13.746	
33.00	-75.548	33.643	
34.00	-79.089	46.226	
35.00	-80.320	70.648	
36.00	-81.635	103.768	
37.00	-86.558	157.187	
38.00	-85.711	-143.708	
39.00	-81.312	-93.497	
40.00	-77.608	-84.153	
41.00	-75.095	-65.089	
42.00	-73.383	-37.280	
43.00	-73.235	-34.614	
44.00	-72.564	-12.652	
45.00	-72.607	0.787	
46.00	-73.234	11.837	
47.00	-73.830	21.051	
48.00	-75.399	32.292	
49.00	-76.586	59.282	
50.00	-78.840	74.931	
51.00	-82.179	102.976	
52.00	-84.176	151.117	
53.00	-81.613	-111.896	
54.00	-76.617	-114.066	
55.00	-76.135	-92.893	
56.00	-72.875	-72.596	
57.00	-73.320	-68.389	
58.00	-71.967	-41.370	
59.00	-72.478	-38.516	
60.00	-71.638	-8.883	
61.00	-72.208	-7.109	
62.00	-73.322	26.128	
63.00	-75.920	49.841	
64.00	-77.155	69.604	
65.00	-80.013	120.133	
66.00	-78.465	165.649	
67.00	-75.065	-153.939	
68.00	-73.118	-119.957	
69.00	-71.056	-101.772	
70.00	-69.447	-66.268	
71.00	-69.012	-54.902	
72.00	-67.919	-26.947	
73.00	-67.511	-9.144	
74.00	-67.489	26.133	
75.00	-67.614	42.520	
76.00	-67.711	76.063	
77.00	-68.077	102.359	
78.00	-67.467	125.018	
79.00	-67.305	172.930	
80.00	-66.713	-164.104	
81.00	-66.242	-128.166	
82.00	-65.241	-99.788	
83.00	-65.374	-74.417	
84.00	-64.100	-42.839	
85.00	-63.737	-19.960	
86.00	-63.573	11.375	
87.00	-62.907	32.462	
88.00	-62.685	61.402	
89.00	-62.798	88.883	
90.00	-62.024	113.513	
91.00	-62.129	142.587	
92.00	-61.679	171.981	
93.00	-61.555	-159.423	
94.00	-60.490	-122.506	
95.00	-60.256	-106.186	
96.00	-59.455	-69.855	
97.00	-58.936	-52.949	
98.00	-59.039	-18.215	
99.00	-58.648	-2.146	
100.00	-58.612	30.498	
101.00	-58.657	56.738	
102.00	-58.567	85.129	
103.00	-58.248	113.767	
104.00	-58.373	133.410	
105.00	-57.885	165.760	
106.00	-57.537	-174.829	
107.00	-57.529	-148.088	
108.00	-56.885	-122.672	
109.00	-56.270	-98.082	
110.00	-55.942	-73.265	
111.00	-55.840	-51.226	
112.00	-55.642	-32.061	
113.00	-55.674	-1.295	
114.00	-55.626	9.116	
115.00	-55.735	37.700	
116.00	-55.641	56.632	
117.00	-55.750	82.492	
118.00	-56.127	112.245	
119.00	-56.135	129.269	
120.00	-56.188	157.414	
121.00	-56.301	174.468	
122.00	-56.138	-156.981	
123.00	-56.129	-142.641	
124.00	-55.809	-112.879	
125.00	-55.944	-97.904	
126.00	-55.880	-81.098	
127.00	-55.698	-58.816	
128.00	-55.945	-45.819	
129.00	-55.931	-22.244	
130.00	-56.115	-14.175	
131.00	-56.400	5.396	
132.00	-56.720	14.994	
133.00	-57.237	31.893	
134.00	-57.696	45.863	
135.00	-57.952	57.832	
136.00	-58.200	69.818	
137.00	-58.618	82.831	
138.00	-58.645	100.116	
139.00	-58.975	105.566	
140.00	-58.831	119.852	
141.00	-58.659	127.922	
142.00	-58.629	140.140	
143.00	-58.446	151.059	
144.00	-58.095	165.553	
145.00	-57.736	176.482	
146.00	-57.575	-170.571	
147.00	-57.496	-160.518	
148.00	-57.394	-150.747	
149.00	-57.207	-140.703	
150.00	-57.177	-132.335	
151.00	-57.142	-127.205	
152.00	-57.386	-117.883	
153.00	-57.523	-108.489	
154.00	-57.896	-101.302	
155.00	-58.093	-87.757	
156.00	-58.363	-84.817	
157.00	-58.762	-71.428	
158.00	-59.204	-66.244	
159.00	-59.428	-61.005	
160.00	-59.907	-54.238	
161.00	-60.163	-51.027	
162.00	-60.821	-41.037	
163.00	-61.140	-39.000	
164.00	-61.153	-34.709	
165.00	-61.420	-27.069	
166.00	-61.493	-23.113	
167.00	-61.444	-17.223	
168.00	-61.577	-12.884	
169.00	-61.483	-9.946	
170.00	-61.734	-3.288	
171.00	-61.656	-0.492	
172.00	-61.371	3.453	
173.00	-61.457	7.131	
174.00	-61.444	11.547	
175.00	-61.433	11.462	
176.00	-61.311	15.330	
177.00	-61.459	16.538	
178.00	-61.567	16.951	
179.00	-61.803	8.925	
180.00	-62.221	10.919	
181.00	-62.529	7.663	
182.00	-62.967	-1.538	
183.00	-63.350	-4.772	
184.00	-63.404	-21.385	
185.00	-63.479	-22.764	
186.00	-63.096	-38.828	
187.00	-62.618	-52.080	
188.00	-61.980	-64.195	
189.00	-60.929	-76.097	
190.00	-60.292	-84.418	
191.00	-59.614	-105.858	
192.00	-58.560	-105.590	
193.00	-58.317	-127.378	
194.00	-57.444	-132.561	
195.00	-57.198	-152.143	
196.00	-56.762	-164.395	
197.00	-56.470	-175.428	
198.00	-56.325	167.651	
199.00	-56.345	157.911	
200.00	-56.324	138.271	
201.00	-56.412	133.616	
202.00	-56.608	118.211	
203.00	-56.965	112.714	
204.00	-57.382	104.160	
205.00	-57.973	87.587	
206.00	-58.515	76.589	
207.00	-59.086	54.263	
208.00	-60.050	38.509	
209.00	-60.775	18.960	
210.00	-61.553	-1.519	
211.00	-62.148	-24.840	
212.00	-62.569	-47.850	
213.00	-63.001	-72.714	
214.00	-62.747	-98.602	
215.00	-62.227	-113.824	
216.00	-62.076	-143.539	
217.00	-61.282	-149.473	
218.00	-61.132	171.264	
219.00	-60.394	161.255	
220.00	-60.108	141.703	
221.00	-59.725	136.256	
222.00	-59.296	111.503	
223.00	-59.197	96.587	
224.00	-58.573	75.359	
225.00	-58.464	61.934	
226.00	-58.205	42.953	
227.00	-58.361	33.312	
228.00	-58.216	10.010	
229.00	-58.114	-6.378	
230.00	-58.125	-23.971	
231.00	-58.385	-45.307	
232.00	-58.388	-52.731	
233.00	-58.494	-82.449	
234.00	-58.823	-97.667	
235.00	-58.943	-127.931	
236.00	-59.107	-140.536	
237.00	-59.608	-168.411	
238.00	-59.626	173.424	
239.00	-59.807	140.395	
240.00	-59.858	116.245	
241.00	-59.770	90.163	
242.00	-59.589	67.250	
243.00	-59.686	41.012	
244.00	-59.684	20.025	
245.00	-59.758	-10.318	
246.00	-59.880	-29.792	
247.00	-60.524	-59.843	
248.00	-60.730	-81.026	
249.00	-61.730	-102.413	
250.00	-62.116	-139.664	
251.00	-62.643	-154.449	
252.00	-63.239	156.288	
253.00	-63.269	137.966	
254.00	-62.651	93.227	
255.00	-62.658	72.520	
256.00	-62.169	32.467	
257.00	-61.633	14.803	
258.00	-61.836	-22.802	
259.00	-62.051	-50.464	
260.00	-62.919	-77.264	
261.00	-64.015	-125.893	
262.00	-64.269	-149.042	
263.00	-64.719	163.176	
264.00	-64.616	129.754	
265.00	-63.733	88.903	
266.00	-62.723	56.616	
267.00	-62.823	49.708	
268.00	-62.475	7.807	
269.00	-62.644	-5.002	
270.00	-62.750	-33.049	
271.00	-63.515	-58.563	
272.00	-64.250	-87.096	
273.00	-65.248	-107.659	
274.00	-66.117	-148.464	
275.00	-66.764	-177.395	
276.00	-66.502	136.728	
277.00	-65.891	107.505	
278.00	-65.474	76.704	
279.00	-64.898	43.449	
280.00	-64.659	19.286	
281.00	-64.450	-19.950	
282.00	-65.367	-36.695	
283.00	-66.579	-78.394	
284.00	-67.572	-103.077	
285.00	-69.630	-156.074	
286.00	-69.054	176.186	
287.00	-69.094	138.165	
288.00	-68.054	100.078	
289.00	-67.247	65.565	
290.00	-66.942	49.103	
291.00	-66.604	13.942	
292.00	-66.612	-1.002	
293.00	-67.152	-42.259	
294.00	-67.531	-49.934	
295.00	-68.539	-88.562	
296.00	-68.766	-115.794	
297.00	-69.379	-139.057	
298.00	-70.471	-177.043	
299.00	-71.301	158.907	
300.00	-70.893	123.670	
301.00	-71.468	94.801	
302.00	-71.717	69.265	
303.00	-71.517	42.617	
304.00	-71.747	12.725	
305.00	-70.672	-17.893	
306.00	-70.312	-32.851	
307.00	-71.242	-66.078	
308.00	-70.785	-79.020	
309.00	-71.703	-103.537	
310.00	-74.009	-129.721	
311.00	-76.258	-146.895	
312.00	-79.681	163.128	
313.00	-83.064	100.636	
314.00	-75.143	41.413	
315.00	-74.185	36.068	
316.00	-72.273	18.396	
317.00	-71.099	0.392	
318.00	-70.228	-6.687	
319.00	-69.860	-27.104	
320.00	-70.378	-33.353	
321.00	-71.846	-48.215	
322.00	-72.961	-47.188	
323.00	-74.352	-64.005	
324.00	-76.829	-51.797	
325.00	-83.186	-52.476	
326.00	-84.461	-23.211	
327.00	-83.854	8.114	
328.00	-80.416	17.809	
329.00	-77.250	11.454	
330.00	-76.747	-3.975	
331.00	-75.316	-7.972	
332.00	-75.006	-27.242	
333.00	-75.598	-41.164	
334.00	-74.650	-41.154	
335.00	-76.938	-52.182	
336.00	-75.898	-57.753	
337.00	-78.644	-77.043	
338.00	-79.518	-81.071	
339.00	-80.404	-84.181	
340.00	-82.392	-96.188	
341.00	-83.972	-83.885	
342.00	-87.589	-76.388	
343.00	-94.495	-87.374	
344.00	-85.308	11.767	
345.00	-80.718	26.389	
346.00	-80.433	31.586	
347.00	-79.127	34.186	
348.00	-75.964	23.370	
349.00	-76.908	30.035	
350.00	-76.141	30.762	
351.00	-75.334	29.701	
352.00	-75.903	18.656	
353.00	-77.243	23.094	
354.00	-78.329	14.841	
355.00	-77.831	19.902	
356.00	-82.298	0.083	
357.00	-84.127	-35.256	
358.00	-90.859	-60.922	
359.00	-85.065	-52.100	
Frequency	3500.00	MHz	
Channel	test		
Scan Axis name	Azimuth  [deg]		
Scan Axis	Amplitude	Phase	
			
0.00	-84.772	-78.668	
1.00	-80.591	-71.243	
2.00	-79.049	-70.747	
3.00	-76.570	-58.081	
4.00	-77.110	-50.199	
5.00	-77.006	-39.042	
6.00	-77.621	-14.411	
7.00	-77.115	-12.605	
8.00	-78.778	14.389	
9.00	-75.773	38.060	
10.00	-74.994	48.084	
11.00	-74.220	71.609	
12.00	-72.735	85.401	
13.00	-72.625	96.210	
14.00	-72.797	108.305	
15.00	-72.236	115.731	
16.00	-73.521	131.309	
17.00	-73.772	136.467	
18.00	-75.351	162.545	
19.00	-76.539	179.241	
20.00	-77.822	-162.437	
21.00	-79.730	-118.692	
22.00	-79.697	-87.847	
23.00	-76.530	-60.568	
24.00	-75.960	-30.543	
25.00	-74.305	-2.660	
26.00	-71.825	4.475	
27.00	-71.558	21.689	
28.00	-71.468	34.263	
29.00	-71.915	54.586	
30.00	-71.290	71.987	
31.00	-71.079	86.990	
32.00	-70.714	97.845	
33.00	-71.609	118.206	
34.00	-72.587	136.504	
35.00	-73.264	139.779	
36.00	-73.462	165.017	
37.00	-75.272	-178.013	
38.00	-77.234	-147.197	
39.00	-79.093	-106.505	
40.00	-78.422	-60.831	
41.00	-76.072	-26.808	
42.00	-73.574	-2.539	
43.00	-71.862	23.890	
44.00	-70.710	43.127	
45.00	-70.215	65.308	
46.00	-69.661	79.509	
47.00	-69.697	88.180	
48.00	-69.836	101.831	
49.00	-70.941	110.958	
50.00	-71.832	133.359	
51.00	-74.124	155.305	
52.00	-76.168	-177.492	
53.00	-78.812	-133.863	
54.00	-79.606	-81.380	
55.00	-78.681	-42.554	
56.00	-73.006	-15.888	
57.00	-73.306	-0.083	
58.00	-70.627	33.532	
59.00	-70.921	38.209	
60.00	-69.571	71.918	
61.00	-69.644	78.907	
62.00	-69.465	114.462	
63.00	-69.809	131.822	
64.00	-70.719	159.845	
65.00	-72.749	-171.046	
66.00	-72.989	-141.004	
67.00	-74.064	-96.141	
68.00	-72.471	-58.858	
69.00	-71.573	-29.868	
70.00	-69.601	6.922	
71.00	-68.758	23.181	
72.00	-67.441	58.006	
73.00	-66.531	75.482	
74.00	-66.113	108.375	
75.00	-66.182	123.493	
76.00	-66.191	154.706	
77.00	-66.465	177.347	
78.00	-66.875	-161.670	
79.00	-68.000	-116.007	
80.00	-68.199	-93.962	
81.00	-67.688	-50.539	
82.00	-67.110	-16.302	
83.00	-65.899	11.514	
84.00	-64.996	43.929	
85.00	-64.052	66.989	
86.00	-63.702	95.615	
87.00	-63.574	114.364	
88.00	-63.595	141.857	
89.00	-63.783	170.438	
90.00	-63.701	-168.288	
91.00	-64.272	-135.527	
92.00	-64.383	-104.331	
93.00	-64.585	-72.091	
94.00	-63.665	-30.543	
95.00	-62.891	-12.636	
96.00	-62.000	28.248	
97.00	-61.480	46.363	
98.00	-60.651	77.767	
99.00	-60.537	96.265	
100.00	-60.519	126.934	
101.00	-60.508	150.699	
102.00	-60.762	179.631	
103.00	-60.794	-149.965	
104.00	-60.650	-128.933	
105.00	-60.624	-94.378	
106.00	-60.480	-73.423	
107.00	-60.048	-44.451	
108.00	-59.664	-14.658	
109.00	-59.049	10.600	
110.00	-58.579	36.716	
111.00	-58.474	59.040	
112.00	-58.147	80.412	
113.00	-57.832	110.598	
114.00	-57.762	124.094	
115.00	-57.935	152.259	
116.00	-57.932	172.455	
117.00	-58.211	-161.673	
118.00	-58.431	-129.492	
119.00	-58.616	-110.182	
120.00	-58.678	-79.097	
121.00	-58.679	-60.318	
122.00	-58.518	-28.035	
123.00	-58.365	-12.969	
124.00	-58.301	20.650	
125.00	-57.962	35.726	
126.00	-57.836	53.362	
127.00	-58.006	75.690	
128.00	-58.384	91.208	
129.00	-58.571	115.968	
130.00	-59.102	125.706	
131.00	-59.553	146.907	
132.00	-60.410	155.115	
133.00	-61.390	175.997	
134.00	-62.233	-169.600	
135.00	-63.021	-158.133	
136.00	-64.249	-144.695	
137.00	-64.207	-134.820	
138.00	-64.817	-121.213	
139.00	-64.923	-118.035	
140.00	-64.664	-105.135	
141.00	-64.390	-99.385	
142.00	-63.461	-92.936	
143.00	-62.403	-80.695	
144.00	-61.583	-68.529	
145.00	-60.579	-57.103	
146.00	-60.072	-42.774	
147.00	-59.554	-30.312	
148.00	-59.048	-18.981	
149.00	-58.525	-8.495	
150.00	-58.409	2.939	
151.00	-58.387	9.241	
152.00	-58.504	19.559	
153.00	-58.607	31.240	
154.00	-58.980	41.128	
155.00	-59.597	55.507	
156.00	-60.344	60.951	
157.00	-61.294	76.351	
158.00	-62.738	80.482	
159.00	-64.212	87.612	
160.00	-66.589	93.374	
161.00	-68.965	89.281	
162.00	-71.113	84.001	
163.00	-72.278	59.969	
164.00	-71.665	41.063	
165.00	-69.292	33.816	
166.00	-67.566	34.506	
167.00	-65.980	37.356	
168.00	-64.290	42.591	
169.00	-63.807	43.879	
170.00	-62.966	49.708	
171.00	-62.544	51.472	
172.00	-62.371	58.142	
173.00	-62.295	61.103	
174.00	-62.668	68.454	
175.00	-62.879	73.241	
176.00	-63.417	78.912	
177.00	-64.069	85.809	
178.00	-64.134	91.704	
179.00	-64.381	85.967	
180.00	-64.767	95.495	
181.00	-65.203	97.469	
182.00	-65.288	95.868	
183.00	-65.814	98.181	
184.00	-66.586	91.254	
185.00	-66.581	88.444	
186.00	-67.045	79.490	
187.00	-66.484	62.481	
188.00	-65.856	49.728	
189.00	-64.667	34.710	
190.00	-63.781	26.263	
191.00	-62.407	1.825	
192.00	-61.207	5.096	
193.00	-60.170	-19.024	
194.00	-59.179	-22.901	
195.00	-58.441	-42.638	
196.00	-57.761	-54.662	
197.00	-57.116	-63.970	
198.00	-56.411	-79.995	
199.00	-56.128	-90.232	
200.00	-55.759	-108.711	
201.00	-55.589	-112.455	
202.00	-55.382	-126.411	
203.00	-55.339	-132.415	
204.00	-55.419	-140.166	
205.00	-55.567	-155.841	
206.00	-55.708	-165.838	
207.00	-56.007	174.011	
208.00	-56.319	161.130	
209.00	-56.822	144.638	
210.00	-57.246	128.187	
211.00	-57.746	108.508	
212.00	-58.107	89.599	
213.00	-58.629	68.341	
214.00	-58.909	45.756	
215.00	-59.191	31.564	
216.00	-59.494	0.667	
217.00	-59.198	-6.820	
218.00	-59.298	-47.883	
219.00	-58.871	-60.511	
220.00	-58.315	-82.530	
221.00	-57.923	-90.790	
222.00	-57.481	-118.485	
223.00	-56.963	-135.913	
224.00	-56.572	-158.020	
225.00	-56.302	-173.660	
226.00	-55.974	165.769	
227.00	-55.894	155.677	
228.00	-55.784	128.710	
229.00	-55.689	113.948	
230.00	-55.668	95.967	
231.00	-55.882	73.920	
232.00	-56.093	64.378	
233.00	-56.467	34.439	
234.00	-56.761	19.482	
235.00	-57.377	-13.518	
236.00	-57.772	-25.821	
237.00	-58.358	-55.138	
238.00	-58.582	-74.526	
239.00	-59.054	-109.422	
240.00	-59.059	-132.906	
241.00	-59.062	-160.313	
242.00	-59.140	177.388	
243.00	-59.348	148.913	
244.00	-59.588	126.699	
245.00	-59.940	94.778	
246.00	-60.225	77.397	
247.00	-61.211	44.779	
248.00	-61.510	24.371	
249.00	-62.371	0.844	
250.00	-63.424	-39.747	
251.00	-64.377	-51.696	
252.00	-64.753	-104.873	
253.00	-65.182	-122.787	
254.00	-64.226	-171.404	
255.00	-63.751	165.947	
256.00	-63.257	126.169	
257.00	-62.985	106.268	
258.00	-63.411	69.204	
259.00	-63.620	40.745	
260.00	-65.249	15.438	
261.00	-66.364	-37.112	
262.00	-67.751	-64.874	
263.00	-67.337	-116.700	
264.00	-66.711	-151.334	
265.00	-65.855	166.361	
266.00	-64.939	134.092	
267.00	-64.858	123.849	
268.00	-64.532	85.617	
269.00	-63.946	76.581	
270.00	-64.551	44.927	
271.00	-65.348	18.928	
272.00	-66.289	-10.559	
273.00	-67.145	-27.328	
274.00	-67.620	-74.135	
275.00	-67.544	-104.753	
276.00	-67.131	-158.433	
277.00	-66.266	176.636	
278.00	-65.767	144.880	
279.00	-64.815	112.512	
280.00	-64.925	92.831	
281.00	-65.149	53.458	
282.00	-65.647	32.845	
283.00	-67.212	-15.781	
284.00	-68.128	-35.816	
285.00	-68.514	-95.601	
286.00	-68.481	-123.132	
287.00	-67.207	-155.465	
288.00	-65.779	168.622	
289.00	-65.385	140.201	
290.00	-65.417	125.125	
291.00	-65.373	91.474	
292.00	-66.008	80.970	
293.00	-67.209	35.102	
294.00	-67.453	30.193	
295.00	-69.294	-15.408	
296.00	-69.738	-47.774	
297.00	-70.350	-78.930	
298.00	-69.550	-121.318	
299.00	-68.874	-137.353	
300.00	-68.415	-169.851	
301.00	-68.678	170.271	
302.00	-69.140	145.949	
303.00	-69.643	125.071	
304.00	-70.485	99.824	
305.00	-71.608	71.430	
306.00	-71.281	52.263	
307.00	-72.990	18.329	
308.00	-74.423	-5.878	
309.00	-74.130	-39.469	
310.00	-77.143	-80.752	
311.00	-76.215	-113.853	
312.00	-75.826	-152.151	
313.00	-74.556	172.667	
314.00	-72.602	125.312	
315.00	-72.230	117.336	
316.00	-70.812	97.803	
317.00	-70.359	78.769	
318.00	-70.699	66.204	
319.00	-70.951	44.067	
320.00	-71.201	39.531	
321.00	-72.405	19.476	
322.00	-74.568	9.435	
323.00	-77.533	-12.792	
324.00	-82.251	-26.361	
325.00	-93.987	-33.190	
326.00	-84.557	160.658	
327.00	-80.893	151.643	
328.00	-78.087	128.871	
329.00	-76.359	117.704	
330.00	-75.689	117.635	
331.00	-74.835	97.269	
332.00	-75.887	75.256	
333.00	-77.353	62.568	
334.00	-77.159	47.613	
335.00	-79.795	32.196	
336.00	-82.409	1.234	
337.00	-84.340	-15.590	
338.00	-88.015	-48.135	
339.00	-86.490	-83.928	
340.00	-91.848	-72.748	
341.00	-84.129	-150.460	
342.00	-83.329	163.702	
343.00	-80.755	124.339	
344.00	-79.354	133.220	
345.00	-77.088	114.547	
346.00	-74.348	107.187	
347.00	-74.055	96.248	
348.00	-73.540	97.709	
349.00	-72.780	93.773	
350.00	-73.090	88.956	
351.00	-72.654	86.358	
352.00	-74.297	82.147	
353.00	-74.457	84.213	
354.00	-75.653	83.068	
355.00	-79.224	84.902	
356.00	-83.114	111.354	
357.00	-87.816	138.934	
358.00	-84.878	-178.697	
359.00	-88.342	-136.564	
Frequency	3550.00	MHz	
Channel	test		
Scan Axis name	Azimuth  [deg]		
Scan Axis	Amplitude	Phase	
			
0.00	-77.787	-61.622	
1.00	-77.488	-57.991	
2.00	-76.969	-54.191	
3.00	-78.813	-45.311	
4.00	-77.895	-38.278	
5.00	-80.054	-48.201	
6.00	-84.958	-22.702	
7.00	-88.661	-10.084	
8.00	-89.319	-177.115	
9.00	-87.500	163.938	
10.00	-80.399	-175.342	
11.00	-77.389	-177.309	
12.00	-76.661	-178.968	
13.00	-75.302	-173.659	
14.00	-74.487	-163.810	
15.00	-74.376	-150.294	
16.00	-74.283	-148.935	
17.00	-74.825	-134.235	
18.00	-75.638	-115.592	
19.00	-77.490	-103.707	
20.00	-79.568	-81.849	
21.00	-80.571	-55.503	
22.00	-81.299	-31.893	
23.00	-79.459	1.360	
24.00	-81.216	41.461	
25.00	-79.562	60.816	
26.00	-79.076	89.083	
27.00	-78.884	103.443	
28.00	-78.166	136.364	
29.00	-75.855	153.982	
30.00	-75.434	170.815	
31.00	-75.124	-175.280	
32.00	-74.938	-159.567	
33.00	-75.232	-143.572	
34.00	-75.258	-123.992	
35.00	-75.818	-113.000	
36.00	-78.160	-84.354	
37.00	-79.165	-66.681	
38.00	-78.461	-43.670	
39.00	-79.436	1.128	
40.00	-77.796	45.548	
41.00	-77.717	65.405	
42.00	-74.607	92.933	
43.00	-73.727	109.618	
44.00	-73.228	120.731	
45.00	-72.242	149.761	
46.00	-72.017	160.907	
47.00	-72.636	165.227	
48.00	-73.388	177.171	
49.00	-74.565	-176.381	
50.00	-76.362	-157.161	
51.00	-77.371	-143.512	
52.00	-79.365	-119.297	
53.00	-83.869	-85.119	
54.00	-82.608	-57.462	
55.00	-80.124	5.173	
56.00	-80.815	40.734	
57.00	-78.278	46.679	
58.00	-75.809	93.570	
59.00	-75.150	94.112	
60.00	-73.882	119.043	
61.00	-74.149	131.077	
62.00	-74.289	158.560	
63.00	-74.487	-179.670	
64.00	-74.864	-159.441	
65.00	-77.094	-134.518	
66.00	-78.322	-110.568	
67.00	-79.558	-79.961	
68.00	-82.484	-26.377	
69.00	-82.082	19.497	
70.00	-77.371	77.870	
71.00	-75.968	100.042	
72.00	-73.483	133.663	
73.00	-73.232	150.996	
74.00	-71.129	-172.944	
75.00	-70.501	-163.353	
76.00	-70.568	-123.927	
77.00	-70.751	-105.819	
78.00	-70.901	-87.687	
79.00	-72.312	-44.776	
80.00	-72.290	-17.321	
81.00	-71.926	31.524	
82.00	-70.808	64.918	
83.00	-70.283	95.066	
84.00	-68.926	124.901	
85.00	-69.087	150.967	
86.00	-68.213	175.080	
87.00	-67.960	-160.114	
88.00	-68.655	-133.904	
89.00	-69.475	-103.550	
90.00	-69.639	-76.985	
91.00	-70.309	-36.044	
92.00	-69.750	-1.123	
93.00	-68.362	37.192	
94.00	-67.289	76.636	
95.00	-66.158	93.169	
96.00	-64.993	130.122	
97.00	-64.318	147.596	
98.00	-63.783	-178.031	
99.00	-63.519	-160.329	
100.00	-63.268	-128.628	
101.00	-63.213	-103.705	
102.00	-63.443	-71.801	
103.00	-63.447	-41.153	
104.00	-63.297	-22.416	
105.00	-63.145	15.507	
106.00	-62.964	34.186	
107.00	-62.298	64.617	
108.00	-61.797	95.051	
109.00	-61.374	120.956	
110.00	-60.687	146.752	
111.00	-60.426	168.825	
112.00	-60.071	-171.881	
113.00	-59.908	-139.303	
114.00	-59.965	-127.179	
115.00	-60.033	-97.557	
116.00	-59.801	-78.126	
117.00	-59.988	-48.939	
118.00	-60.111	-17.758	
119.00	-60.043	3.967	
120.00	-59.851	33.982	
121.00	-59.817	51.688	
122.00	-59.377	83.699	
123.00	-59.176	96.343	
124.00	-58.958	128.177	
125.00	-58.801	143.140	
126.00	-58.797	161.121	
127.00	-58.949	-174.837	
128.00	-59.063	-160.971	
129.00	-59.242	-133.471	
130.00	-59.451	-123.784	
131.00	-60.185	-101.317	
132.00	-60.466	-93.050	
133.00	-61.148	-72.207	
134.00	-61.469	-58.209	
135.00	-62.432	-45.320	
136.00	-62.914	-30.053	
137.00	-63.995	-19.133	
138.00	-64.185	-7.204	
139.00	-64.242	-5.351	
140.00	-64.367	3.655	
141.00	-63.678	8.164	
142.00	-62.984	14.662	
143.00	-62.150	21.912	
144.00	-61.417	30.234	
145.00	-60.528	40.144	
146.00	-59.997	49.163	
147.00	-59.378	59.770	
148.00	-58.902	68.324	
149.00	-58.483	76.786	
150.00	-58.296	85.068	
151.00	-58.191	90.957	
152.00	-58.182	101.263	
153.00	-58.345	109.769	
154.00	-58.489	117.266	
155.00	-58.723	130.748	
156.00	-59.112	133.038	
157.00	-59.902	147.848	
158.00	-60.564	146.505	
159.00	-61.149	152.232	
160.00	-61.964	154.174	
161.00	-62.631	152.901	
162.00	-63.213	156.292	
163.00	-63.612	154.649	
164.00	-63.362	152.513	
165.00	-63.378	156.745	
166.00	-63.029	153.911	
167.00	-62.886	157.207	
168.00	-62.748	158.980	
169.00	-62.140	159.529	
170.00	-62.168	164.842	
171.00	-62.453	167.087	
172.00	-62.285	170.817	
173.00	-62.460	175.730	
174.00	-62.650	-177.780	
175.00	-62.997	-171.794	
176.00	-62.867	-163.982	
177.00	-62.886	-156.524	
178.00	-62.781	-150.944	
179.00	-62.466	-155.852	
180.00	-62.243	-147.604	
181.00	-61.807	-143.198	
182.00	-61.622	-146.772	
183.00	-61.290	-141.790	
184.00	-61.155	-152.950	
185.00	-60.933	-148.687	
186.00	-60.652	-157.738	
187.00	-60.116	-168.759	
188.00	-59.620	-175.933	
189.00	-59.000	171.633	
190.00	-58.477	164.496	
191.00	-58.028	142.933	
192.00	-57.138	143.829	
193.00	-56.692	119.171	
194.00	-55.929	114.156	
195.00	-55.709	94.389	
196.00	-55.197	81.669	
197.00	-54.861	70.083	
198.00	-54.708	53.833	
199.00	-54.700	41.939	
200.00	-54.656	23.000	
201.00	-54.816	17.147	
202.00	-54.893	1.556	
203.00	-55.242	-5.823	
204.00	-55.672	-13.987	
205.00	-56.144	-31.793	
206.00	-56.638	-43.665	
207.00	-57.311	-68.084	
208.00	-58.067	-83.722	
209.00	-58.784	-103.411	
210.00	-59.291	-124.808	
211.00	-59.764	-149.699	
212.00	-59.749	-170.908	
213.00	-60.125	163.178	
214.00	-59.802	141.263	
215.00	-59.558	126.273	
216.00	-59.737	97.439	
217.00	-59.056	90.922	
218.00	-59.434	51.903	
219.00	-58.819	39.225	
220.00	-58.494	18.076	
221.00	-58.249	9.903	
222.00	-57.987	-16.620	
223.00	-57.654	-34.986	
224.00	-57.327	-58.309	
225.00	-57.135	-73.819	
226.00	-56.626	-94.762	
227.00	-56.530	-104.775	
228.00	-56.339	-130.669	
229.00	-56.178	-146.458	
230.00	-56.322	-163.909	
231.00	-56.248	173.819	
232.00	-56.506	166.565	
233.00	-56.807	137.703	
234.00	-57.288	123.192	
235.00	-57.743	91.960	
236.00	-58.295	80.368	
237.00	-59.036	51.174	
238.00	-59.582	35.056	
239.00	-60.256	-1.463	
240.00	-60.587	-23.861	
241.00	-61.093	-52.766	
242.00	-61.647	-76.793	
243.00	-61.877	-105.600	
244.00	-62.481	-127.886	
245.00	-63.322	-164.113	
246.00	-63.475	176.906	
247.00	-64.550	140.615	
248.00	-65.527	116.317	
249.00	-66.482	91.023	
250.00	-67.776	49.792	
251.00	-68.776	29.896	
252.00	-68.600	-31.088	
253.00	-68.566	-53.089	
254.00	-67.403	-107.069	
255.00	-66.337	-131.567	
256.00	-65.093	-170.840	
257.00	-64.458	169.677	
258.00	-64.435	129.018	
259.00	-64.293	99.278	
260.00	-65.199	69.860	
261.00	-64.478	18.466	
262.00	-64.530	-5.341	
263.00	-64.213	-48.534	
264.00	-63.721	-78.347	
265.00	-63.120	-118.646	
266.00	-63.002	-147.989	
267.00	-62.882	-156.433	
268.00	-62.894	160.209	
269.00	-62.700	148.348	
270.00	-62.865	117.417	
271.00	-63.407	88.104	
272.00	-63.675	62.362	
273.00	-64.211	40.494	
274.00	-64.502	0.674	
275.00	-64.796	-25.500	
276.00	-64.851	-67.851	
277.00	-65.242	-98.209	
278.00	-64.474	-130.164	
279.00	-64.369	-165.536	
280.00	-64.646	168.498	
281.00	-64.894	124.026	
282.00	-65.574	103.379	
283.00	-66.451	53.376	
284.00	-66.620	26.879	
285.00	-67.090	-24.697	
286.00	-66.498	-49.943	
287.00	-65.752	-84.488	
288.00	-65.260	-118.764	
289.00	-64.772	-145.557	
290.00	-64.629	-163.930	
291.00	-64.707	161.771	
292.00	-65.290	149.191	
293.00	-66.522	102.043	
294.00	-66.954	93.470	
295.00	-68.136	40.828	
296.00	-68.285	13.678	
297.00	-67.563	-20.960	
298.00	-67.113	-56.754	
299.00	-66.566	-75.372	
300.00	-66.262	-108.758	
301.00	-66.062	-122.237	
302.00	-66.659	-145.126	
303.00	-67.197	-164.007	
304.00	-68.787	170.280	
305.00	-69.624	143.414	
306.00	-70.768	113.238	
307.00	-72.566	77.423	
308.00	-73.477	39.390	
309.00	-72.752	3.999	
310.00	-72.341	-30.521	
311.00	-71.219	-59.170	
312.00	-70.805	-90.533	
313.00	-70.768	-105.762	
314.00	-70.382	-150.950	
315.00	-70.471	-167.462	
316.00	-71.378	177.503	
317.00	-70.990	142.506	
318.00	-71.472	124.552	
319.00	-72.521	98.111	
320.00	-72.804	79.827	
321.00	-72.602	46.736	
322.00	-73.800	33.238	
323.00	-74.802	-0.253	
324.00	-74.353	-37.973	
325.00	-73.329	-63.996	
326.00	-73.207	-94.508	
327.00	-71.659	-115.096	
328.00	-71.821	-134.221	
329.00	-71.141	-154.334	
330.00	-72.239	-162.868	
331.00	-72.321	176.156	
332.00	-72.404	152.014	
333.00	-74.395	144.484	
334.00	-77.327	129.580	
335.00	-76.403	120.683	
336.00	-79.724	94.533	
337.00	-82.706	73.108	
338.00	-88.962	88.032	
339.00	-88.767	35.392	
340.00	-93.804	32.564	
341.00	-86.074	-119.986	
342.00	-87.423	-165.942	
343.00	-83.137	-173.468	
344.00	-78.869	176.606	
345.00	-77.868	177.545	
346.00	-76.115	165.565	
347.00	-75.849	162.620	
348.00	-74.870	154.469	
349.00	-75.316	157.520	
350.00	-74.918	149.783	
351.00	-76.013	146.870	
352.00	-77.768	135.819	
353.00	-80.025	144.028	
354.00	-83.073	134.286	
355.00	-88.252	-174.871	
356.00	-85.503	-128.230	
357.00	-83.609	-100.501	
358.00	-80.338	-93.228	
359.00	-81.573	-67.801	
Frequency	3600.00	MHz	
Channel	test		
Scan Axis name	Azimuth  [deg]		
Scan Axis	Amplitude	Phase	
			
0.00	-78.214	48.797	
1.00	-77.809	31.940	
2.00	-77.750	52.406	
3.00	-78.495	56.437	
4.00	-79.268	67.503	
5.00	-80.436	78.082	
6.00	-82.901	82.404	
7.00	-93.563	79.985	
8.00	-91.530	145.026	
9.00	-86.729	-120.230	
10.00	-81.226	-111.402	
11.00	-81.159	-96.954	
12.00	-77.511	-90.865	
13.00	-76.583	-70.952	
14.00	-75.813	-67.351	
15.00	-76.291	-53.303	
16.00	-75.386	-41.530	
17.00	-74.661	-27.149	
18.00	-76.072	-6.754	
19.00	-75.795	8.310	
20.00	-75.468	40.567	
21.00	-76.477	58.820	
22.00	-77.020	77.159	
23.00	-74.415	96.481	
24.00	-74.794	116.582	
25.00	-74.904	143.731	
26.00	-76.116	154.130	
27.00	-75.940	179.042	
28.00	-75.291	-157.550	
29.00	-75.527	-131.453	
30.00	-76.120	-117.068	
31.00	-77.185	-92.282	
32.00	-78.688	-68.474	
33.00	-75.742	-36.591	
34.00	-75.408	-15.072	
35.00	-76.173	15.239	
36.00	-75.636	31.232	
37.00	-74.776	46.307	
38.00	-74.362	69.409	
39.00	-74.527	90.546	
40.00	-74.324	113.154	
41.00	-74.255	130.677	
42.00	-75.374	167.110	
43.00	-75.437	-167.433	
44.00	-78.185	-147.552	
45.00	-77.844	-119.918	
46.00	-80.738	-97.462	
47.00	-84.163	-82.957	
48.00	-82.064	-27.561	
49.00	-83.277	6.231	
50.00	-82.746	54.611	
51.00	-82.446	59.288	
52.00	-82.879	79.865	
53.00	-81.983	93.387	
54.00	-82.918	96.745	
55.00	-83.756	112.387	
56.00	-88.066	102.913	
57.00	-88.004	87.489	
58.00	-88.000	107.495	
59.00	-83.447	100.947	
60.00	-83.809	120.457	
61.00	-84.932	106.472	
62.00	-83.430	153.043	
63.00	-84.216	-160.585	
64.00	-88.067	-149.713	
65.00	-90.234	-174.423	
66.00	-89.814	-136.565	
67.00	-92.559	-23.879	
68.00	-91.343	7.920	
69.00	-93.234	40.016	
70.00	-85.928	71.119	
71.00	-92.308	117.317	
72.00	-99.940	73.493	
73.00	-90.112	78.093	
74.00	-87.067	-69.526	
75.00	-87.888	-42.990	
76.00	-88.163	-10.506	
77.00	-83.279	14.690	
78.00	-80.329	26.242	
79.00	-83.755	68.843	
80.00	-81.515	102.187	
81.00	-82.517	115.746	
82.00	-79.549	-169.695	
83.00	-77.138	-142.801	
84.00	-75.669	-103.088	
85.00	-74.609	-86.652	
86.00	-74.254	-45.760	
87.00	-72.629	-19.733	
88.00	-72.462	14.689	
89.00	-70.756	34.875	
90.00	-70.997	61.818	
91.00	-69.250	94.303	
92.00	-68.544	117.590	
93.00	-67.857	149.625	
94.00	-66.883	-175.719	
95.00	-66.153	-159.235	
96.00	-65.520	-120.633	
97.00	-65.238	-104.378	
98.00	-64.667	-62.453	
99.00	-63.998	-47.601	
100.00	-63.408	-14.518	
101.00	-63.073	9.140	
102.00	-63.039	41.925	
103.00	-62.253	66.554	
104.00	-62.455	88.668	
105.00	-62.128	119.796	
106.00	-61.924	139.410	
107.00	-61.560	167.174	
108.00	-60.922	-164.736	
109.00	-60.270	-136.757	
110.00	-60.290	-111.223	
111.00	-59.587	-87.606	
112.00	-59.219	-64.972	
113.00	-58.656	-32.843	
114.00	-58.399	-18.607	
115.00	-58.093	12.624	
116.00	-58.028	31.020	
117.00	-57.597	59.194	
118.00	-57.405	86.984	
119.00	-57.231	107.585	
120.00	-57.083	135.794	
121.00	-56.921	152.443	
122.00	-56.683	-177.771	
123.00	-56.623	-165.259	
124.00	-56.429	-132.076	
125.00	-56.447	-118.166	
126.00	-56.354	-97.178	
127.00	-56.477	-73.582	
128.00	-56.503	-59.183	
129.00	-56.632	-29.232	
130.00	-56.638	-20.282	
131.00	-56.824	2.579	
132.00	-57.193	11.618	
133.00	-57.630	34.121	
134.00	-57.934	49.390	
135.00	-58.446	61.851	
136.00	-58.721	76.026	
137.00	-59.147	87.755	
138.00	-59.599	103.612	
139.00	-59.906	109.367	
140.00	-60.047	119.927	
141.00	-59.878	126.550	
142.00	-59.620	131.931	
143.00	-59.359	141.616	
144.00	-59.010	151.160	
145.00	-58.600	159.793	
146.00	-58.001	171.155	
147.00	-57.655	179.718	
148.00	-57.350	-170.201	
149.00	-57.127	-162.054	
150.00	-56.847	-152.823	
151.00	-56.809	-146.381	
152.00	-57.018	-137.135	
153.00	-57.079	-125.321	
154.00	-57.224	-117.096	
155.00	-57.547	-101.710	
156.00	-57.952	-98.238	
157.00	-58.383	-81.518	
158.00	-58.679	-78.252	
159.00	-59.397	-68.923	
160.00	-59.909	-63.636	
161.00	-60.680	-56.739	
162.00	-61.168	-48.782	
163.00	-61.560	-44.535	
164.00	-61.981	-39.930	
165.00	-61.936	-33.208	
166.00	-62.085	-31.045	
167.00	-61.925	-23.283	
168.00	-61.497	-20.152	
169.00	-61.011	-18.521	
170.00	-60.954	-10.801	
171.00	-60.295	-9.487	
172.00	-60.063	-4.645	
173.00	-59.347	-1.191	
174.00	-58.954	1.762	
175.00	-58.607	5.817	
176.00	-58.195	6.665	
177.00	-57.856	10.197	
178.00	-57.622	9.450	
179.00	-57.688	0.618	
180.00	-57.646	5.561	
181.00	-57.721	1.077	
182.00	-57.893	-4.974	
183.00	-58.014	-4.984	
184.00	-58.181	-17.994	
185.00	-58.349	-17.522	
186.00	-58.352	-33.365	
187.00	-58.206	-47.140	
188.00	-57.777	-57.528	
189.00	-57.020	-71.567	
190.00	-56.586	-82.040	
191.00	-55.734	-104.424	
192.00	-55.021	-104.047	
193.00	-54.382	-128.860	
194.00	-53.938	-133.844	
195.00	-53.550	-153.705	
196.00	-53.127	-165.697	
197.00	-52.985	-177.691	
198.00	-52.711	167.872	
199.00	-52.889	156.385	
200.00	-52.973	138.314	
201.00	-53.271	133.491	
202.00	-53.677	119.618	
203.00	-54.224	113.456	
204.00	-54.838	104.892	
205.00	-55.616	89.212	
206.00	-56.673	77.672	
207.00	-57.627	53.568	
208.00	-58.963	38.943	
209.00	-60.293	17.064	
210.00	-61.325	-6.930	
211.00	-62.582	-36.545	
212.00	-62.614	-65.383	
213.00	-62.109	-97.742	
214.00	-61.266	-123.770	
215.00	-60.402	-140.761	
216.00	-59.493	-166.792	
217.00	-58.576	-171.182	
218.00	-57.843	150.764	
219.00	-57.445	142.580	
220.00	-56.732	125.067	
221.00	-56.517	119.246	
222.00	-56.307	95.043	
223.00	-56.206	80.061	
224.00	-55.876	60.932	
225.00	-55.825	45.305	
226.00	-55.780	25.890	
227.00	-55.791	15.712	
228.00	-55.836	-10.884	
229.00	-55.672	-27.456	
230.00	-55.910	-45.428	
231.00	-55.983	-69.138	
232.00	-56.077	-77.586	
233.00	-56.135	-109.001	
234.00	-56.471	-122.556	
235.00	-56.920	-152.456	
236.00	-57.284	-162.339	
237.00	-58.025	167.938	
238.00	-58.440	153.303	
239.00	-59.428	117.279	
240.00	-60.094	95.623	
241.00	-61.097	65.823	
242.00	-61.583	42.220	
243.00	-62.381	9.103	
244.00	-63.253	-14.348	
245.00	-64.072	-52.797	
246.00	-64.747	-73.434	
247.00	-65.467	-115.355	
248.00	-66.094	-139.762	
249.00	-66.768	-170.786	
250.00	-67.261	148.954	
251.00	-68.538	123.863	
252.00	-68.057	72.992	
253.00	-68.274	46.614	
254.00	-67.166	-1.956	
255.00	-66.650	-25.041	
256.00	-65.502	-67.850	
257.00	-64.816	-91.133	
258.00	-64.343	-139.556	
259.00	-64.032	-165.342	
260.00	-64.048	163.324	
261.00	-63.584	115.738	
262.00	-63.617	92.725	
263.00	-63.732	51.344	
264.00	-63.599	21.869	
265.00	-63.983	-19.591	
266.00	-63.492	-51.513	
267.00	-63.299	-62.814	
268.00	-63.352	-111.980	
269.00	-62.788	-123.980	
270.00	-62.980	-159.114	
271.00	-62.591	171.608	
272.00	-62.779	143.164	
273.00	-62.869	122.253	
274.00	-63.168	88.249	
275.00	-63.149	63.729	
276.00	-63.358	23.633	
277.00	-63.419	-4.627	
278.00	-63.562	-38.041	
279.00	-63.457	-73.094	
280.00	-63.615	-101.373	
281.00	-63.400	-151.134	
282.00	-63.630	-167.494	
283.00	-63.669	142.903	
284.00	-64.071	121.553	
285.00	-64.460	74.908	
286.00	-64.813	52.045	
287.00	-65.079	21.945	
288.00	-64.976	-16.750	
289.00	-65.383	-47.217	
290.00	-65.379	-71.338	
291.00	-65.410	-108.919	
292.00	-65.634	-128.705	
293.00	-65.867	-175.934	
294.00	-66.347	175.154	
295.00	-66.721	130.629	
296.00	-67.155	106.474	
297.00	-67.453	73.553	
298.00	-66.883	38.647	
299.00	-66.500	16.891	
300.00	-66.459	-17.167	
301.00	-66.356	-34.556	
302.00	-66.830	-59.339	
303.00	-67.531	-83.709	
304.00	-68.287	-105.745	
305.00	-69.156	-139.083	
306.00	-71.493	-161.967	
307.00	-71.647	164.092	
308.00	-71.497	137.559	
309.00	-73.137	95.716	
310.00	-72.910	63.754	
311.00	-72.283	37.777	
312.00	-72.714	7.531	
313.00	-73.160	-16.950	
314.00	-73.971	-66.062	
315.00	-74.668	-83.916	
316.00	-73.102	-104.960	
317.00	-74.018	-147.979	
318.00	-74.474	-170.113	
319.00	-73.769	159.160	
320.00	-74.047	133.024	
321.00	-72.926	112.317	
322.00	-73.341	92.075	
323.00	-73.377	66.200	
324.00	-74.513	47.945	
325.00	-74.086	17.506	
326.00	-73.407	2.007	
327.00	-74.591	-19.224	
328.00	-74.666	-37.090	
329.00	-75.473	-64.087	
330.00	-77.166	-87.982	
331.00	-78.259	-133.439	
332.00	-77.724	-161.655	
333.00	-78.154	173.987	
334.00	-78.157	159.646	
335.00	-78.824	143.305	
336.00	-77.708	121.443	
337.00	-77.996	109.511	
338.00	-80.050	101.528	
339.00	-80.050	85.543	
340.00	-80.955	75.341	
341.00	-84.219	60.886	
342.00	-95.720	122.891	
343.00	-93.715	-134.649	
344.00	-84.966	-115.063	
345.00	-83.038	-148.356	
346.00	-80.664	-123.456	
347.00	-77.567	-148.897	
348.00	-77.462	-149.101	
349.00	-78.783	-139.612	
350.00	-76.834	-151.540	
351.00	-77.893	-146.860	
352.00	-77.906	-156.702	
353.00	-83.498	-154.276	
354.00	-84.245	-138.422	
355.00	-97.044	-172.782	
356.00	-93.535	33.353	
357.00	-84.641	20.428	
358.00	-79.910	13.774	
359.00	-79.119	35.757	
Frequency	3650.00	MHz	
Channel	test		
Scan Axis name	Azimuth  [deg]		
Scan Axis	Amplitude	Phase	
			
0.00	-75.959	119.509	
1.00	-75.207	124.239	
2.00	-75.779	126.102	
3.00	-76.298	138.679	
4.00	-78.824	146.282	
5.00	-83.683	176.740	
6.00	-84.625	-166.984	
7.00	-84.141	-139.263	
8.00	-81.592	-80.543	
9.00	-82.794	-69.894	
10.00	-76.962	-52.080	
11.00	-75.911	-23.859	
12.00	-75.596	-11.482	
13.00	-75.800	6.648	
14.00	-74.487	11.315	
15.00	-74.460	35.912	
16.00	-73.427	57.369	
17.00	-73.024	72.670	
18.00	-73.501	93.274	
19.00	-72.328	104.484	
20.00	-71.698	121.355	
21.00	-71.086	142.819	
22.00	-72.403	156.399	
23.00	-71.085	171.356	
24.00	-72.640	-171.861	
25.00	-72.855	-156.227	
26.00	-75.517	-137.283	
27.00	-75.855	-94.965	
28.00	-76.688	-67.152	
29.00	-76.870	-35.700	
30.00	-74.445	5.150	
31.00	-73.407	25.761	
32.00	-72.618	42.310	
33.00	-71.540	65.314	
34.00	-70.980	72.521	
35.00	-70.562	90.469	
36.00	-70.522	110.374	
37.00	-70.206	130.793	
38.00	-70.393	159.374	
39.00	-70.309	177.372	
40.00	-70.548	-153.390	
41.00	-71.400	-132.904	
42.00	-71.757	-100.843	
43.00	-72.396	-75.153	
44.00	-73.965	-44.613	
45.00	-74.378	-2.745	
46.00	-74.301	26.757	
47.00	-74.354	51.765	
48.00	-73.832	81.299	
49.00	-71.935	110.444	
50.00	-72.490	131.420	
51.00	-72.544	161.485	
52.00	-72.780	-178.457	
53.00	-74.226	-149.758	
54.00	-76.193	-118.756	
55.00	-77.474	-91.060	
56.00	-79.863	-25.528	
57.00	-81.097	1.250	
58.00	-77.331	61.099	
59.00	-75.197	79.455	
60.00	-73.168	125.546	
61.00	-72.453	129.952	
62.00	-71.878	169.068	
63.00	-72.466	-171.959	
64.00	-72.983	-143.148	
65.00	-73.251	-118.310	
66.00	-74.459	-97.096	
67.00	-75.033	-50.314	
68.00	-75.246	-25.248	
69.00	-75.269	-0.134	
70.00	-73.711	47.786	
71.00	-73.770	56.652	
72.00	-73.107	88.556	
73.00	-74.025	98.789	
74.00	-73.283	139.789	
75.00	-74.523	142.491	
76.00	-75.007	176.904	
77.00	-77.404	-167.149	
78.00	-77.916	-144.203	
79.00	-82.530	-91.883	
80.00	-81.287	-62.275	
81.00	-80.538	-26.212	
82.00	-77.964	15.128	
83.00	-77.112	31.783	
84.00	-75.300	60.293	
85.00	-73.971	81.736	
86.00	-73.091	106.719	
87.00	-71.775	131.030	
88.00	-71.323	145.691	
89.00	-71.257	165.683	
90.00	-70.087	-173.910	
91.00	-70.319	-150.174	
92.00	-70.448	-129.708	
93.00	-68.689	-98.797	
94.00	-68.520	-60.138	
95.00	-68.706	-47.918	
96.00	-66.550	-6.014	
97.00	-66.189	9.239	
98.00	-65.038	44.407	
99.00	-64.319	58.110	
100.00	-63.655	89.860	
101.00	-64.116	111.731	
102.00	-63.611	143.697	
103.00	-62.525	168.720	
104.00	-62.093	179.318	
105.00	-61.660	-148.580	
106.00	-62.192	-125.392	
107.00	-61.299	-97.157	
108.00	-61.373	-69.885	
109.00	-60.612	-41.497	
110.00	-59.744	-14.934	
111.00	-58.906	7.938	
112.00	-58.561	30.283	
113.00	-58.150	62.966	
114.00	-57.366	72.891	
115.00	-56.816	103.358	
116.00	-56.475	121.969	
117.00	-56.354	150.006	
118.00	-55.819	178.109	
119.00	-55.655	-162.708	
120.00	-55.517	-135.244	
121.00	-55.276	-117.654	
122.00	-55.011	-89.696	
123.00	-54.856	-73.982	
124.00	-54.728	-41.821	
125.00	-54.459	-27.963	
126.00	-54.588	-6.792	
127.00	-54.471	17.704	
128.00	-54.208	34.536	
129.00	-54.172	62.623	
130.00	-54.296	73.801	
131.00	-54.378	97.166	
132.00	-54.610	106.854	
133.00	-54.831	129.574	
134.00	-55.046	145.649	
135.00	-55.609	161.985	
136.00	-56.061	176.530	
137.00	-56.497	-168.362	
138.00	-56.980	-150.526	
139.00	-57.645	-141.598	
140.00	-58.252	-127.708	
141.00	-58.880	-119.393	
142.00	-59.057	-110.361	
143.00	-59.794	-103.529	
144.00	-59.881	-93.809	
145.00	-60.253	-87.728	
146.00	-60.189	-78.553	
147.00	-60.077	-71.294	
148.00	-59.974	-63.939	
149.00	-59.570	-56.373	
150.00	-59.538	-48.926	
151.00	-59.461	-43.434	
152.00	-59.159	-32.927	
153.00	-59.395	-22.113	
154.00	-59.380	-11.921	
155.00	-59.734	4.327	
156.00	-59.924	9.677	
157.00	-60.035	31.504	
158.00	-60.545	35.862	
159.00	-60.919	48.882	
160.00	-61.785	61.405	
161.00	-61.808	73.661	
162.00	-62.671	85.779	
163.00	-62.803	97.582	
164.00	-63.492	106.178	
165.00	-63.831	118.193	
166.00	-63.740	127.363	
167.00	-63.553	134.024	
168.00	-63.701	139.562	
169.00	-63.752	138.314	
170.00	-63.311	142.549	
171.00	-62.706	140.201	
172.00	-62.610	142.968	
173.00	-62.000	141.334	
174.00	-61.307	140.197	
175.00	-61.020	137.271	
176.00	-60.634	134.286	
177.00	-60.235	134.819	
178.00	-59.900	131.233	
179.00	-59.676	119.182	
180.00	-59.575	122.446	
181.00	-59.373	115.816	
182.00	-59.494	108.680	
183.00	-59.531	107.688	
184.00	-59.719	94.157	
185.00	-59.904	95.019	
186.00	-60.072	80.175	
187.00	-60.093	66.491	
188.00	-60.071	53.317	
189.00	-59.794	38.662	
190.00	-59.346	25.335	
191.00	-58.831	1.830	
192.00	-58.164	-0.243	
193.00	-57.670	-27.302	
194.00	-57.033	-33.070	
195.00	-56.736	-54.807	
196.00	-56.356	-68.431	
197.00	-56.096	-80.147	
198.00	-56.074	-95.677	
199.00	-56.116	-108.764	
200.00	-56.375	-126.889	
201.00	-56.544	-133.593	
202.00	-57.036	-148.457	
203.00	-57.481	-154.350	
204.00	-58.425	-163.343	
205.00	-59.032	179.979	
206.00	-60.204	168.383	
207.00	-61.391	144.573	
208.00	-62.477	129.376	
209.00	-63.814	109.586	
210.00	-65.385	82.673	
211.00	-66.282	54.195	
212.00	-66.938	29.037	
213.00	-67.138	-6.586	
214.00	-66.040	-31.349	
215.00	-65.087	-48.894	
216.00	-63.775	-74.845	
217.00	-63.111	-82.469	
218.00	-62.129	-117.529	
219.00	-61.334	-122.253	
220.00	-60.684	-139.307	
221.00	-60.226	-142.972	
222.00	-59.726	-165.440	
223.00	-59.261	-179.439	
224.00	-58.730	161.906	
225.00	-58.609	147.918	
226.00	-58.265	130.127	
227.00	-57.880	120.992	
228.00	-57.727	93.393	
229.00	-57.718	77.904	
230.00	-57.408	57.597	
231.00	-57.333	35.233	
232.00	-57.525	25.012	
233.00	-57.429	-6.767	
234.00	-57.573	-22.049	
235.00	-57.898	-54.555	
236.00	-57.810	-66.878	
237.00	-58.226	-98.540	
238.00	-58.285	-113.573	
239.00	-58.557	-151.567	
240.00	-58.676	-171.195	
241.00	-59.112	160.177	
242.00	-59.447	139.955	
243.00	-60.015	109.616	
244.00	-60.578	87.422	
245.00	-61.737	49.048	
246.00	-62.234	30.208	
247.00	-63.500	-11.878	
248.00	-63.714	-33.830	
249.00	-64.541	-66.579	
250.00	-64.548	-105.989	
251.00	-65.128	-124.023	
252.00	-64.832	-170.506	
253.00	-65.314	174.334	
254.00	-65.276	126.605	
255.00	-65.849	105.661	
256.00	-66.500	55.112	
257.00	-66.754	28.470	
258.00	-67.037	-20.064	
259.00	-66.902	-51.458	
260.00	-66.698	-90.923	
261.00	-65.651	-140.982	
262.00	-65.600	-165.268	
263.00	-65.621	152.994	
264.00	-65.624	123.164	
265.00	-65.732	82.762	
266.00	-65.222	50.511	
267.00	-65.813	40.343	
268.00	-65.767	-11.635	
269.00	-65.718	-25.969	
270.00	-65.866	-66.144	
271.00	-65.642	-99.380	
272.00	-65.541	-126.985	
273.00	-65.503	-150.697	
274.00	-64.754	175.174	
275.00	-65.251	151.345	
276.00	-65.841	112.875	
277.00	-66.080	80.975	
278.00	-66.485	46.101	
279.00	-66.324	7.351	
280.00	-66.416	-20.230	
281.00	-66.021	-77.168	
282.00	-66.024	-98.031	
283.00	-65.730	-144.753	
284.00	-65.524	-165.983	
285.00	-65.740	147.799	
286.00	-66.384	128.294	
287.00	-66.584	99.481	
288.00	-67.037	62.506	
289.00	-67.531	34.777	
290.00	-68.151	4.500	
291.00	-68.759	-38.958	
292.00	-68.697	-59.585	
293.00	-68.597	-113.521	
294.00	-68.178	-119.911	
295.00	-68.144	-166.487	
296.00	-67.565	166.440	
297.00	-67.616	139.372	
298.00	-67.170	109.182	
299.00	-66.947	88.822	
300.00	-67.789	53.405	
301.00	-68.080	35.411	
302.00	-68.835	9.583	
303.00	-69.301	-11.960	
304.00	-71.306	-44.330	
305.00	-71.752	-78.703	
306.00	-72.788	-101.906	
307.00	-72.023	-141.096	
308.00	-72.629	-165.786	
309.00	-71.408	159.419	
310.00	-72.142	128.827	
311.00	-72.620	109.852	
312.00	-73.157	78.545	
313.00	-73.058	55.895	
314.00	-75.416	4.967	
315.00	-75.764	-8.895	
316.00	-75.640	-35.371	
317.00	-76.717	-71.169	
318.00	-76.416	-99.696	
319.00	-76.870	-128.451	
320.00	-76.632	-144.781	
321.00	-77.436	-179.441	
322.00	-76.956	166.738	
323.00	-78.620	143.572	
324.00	-79.903	117.418	
325.00	-79.190	86.233	
326.00	-79.530	56.784	
327.00	-83.338	39.208	
328.00	-87.526	1.371	
329.00	-81.385	-75.672	
330.00	-81.126	-80.564	
331.00	-78.434	-133.427	
332.00	-77.809	-158.876	
333.00	-76.327	-174.395	
334.00	-76.110	176.968	
335.00	-75.355	159.819	
336.00	-75.541	141.319	
337.00	-76.210	138.723	
338.00	-78.219	128.655	
339.00	-78.812	106.179	
340.00	-82.049	103.379	
341.00	-85.879	57.482	
342.00	-83.383	51.302	
343.00	-85.005	28.099	
344.00	-84.335	-40.077	
345.00	-81.600	-57.764	
346.00	-79.603	-57.455	
347.00	-78.615	-85.471	
348.00	-79.832	-78.115	
349.00	-77.909	-75.940	
350.00	-81.351	-95.500	
351.00	-82.733	-120.844	
352.00	-89.965	-139.390	
353.00	-88.574	174.521	
354.00	-87.797	120.389	
355.00	-83.002	115.860	
356.00	-80.227	105.736	
357.00	-77.121	97.555	
358.00	-76.802	85.229	
359.00	-76.925	114.917	
Frequency	3700.00	MHz	
Channel	test		
Scan Axis name	Azimuth  [deg]		
Scan Axis	Amplitude	Phase	
			
0.00	-75.322	163.075	
1.00	-77.747	170.391	
2.00	-78.889	-172.219	
3.00	-84.075	-153.206	
4.00	-82.147	-108.459	
5.00	-79.766	-54.083	
6.00	-75.819	-25.874	
7.00	-73.774	-23.519	
8.00	-71.917	-17.480	
9.00	-70.614	-6.773	
10.00	-69.946	8.315	
11.00	-69.810	10.638	
12.00	-69.599	22.831	
13.00	-71.326	38.501	
14.00	-71.489	47.829	
15.00	-72.267	65.412	
16.00	-73.293	87.250	
17.00	-75.449	107.173	
18.00	-77.115	149.230	
19.00	-74.609	173.048	
20.00	-73.609	-152.299	
21.00	-72.418	-133.673	
22.00	-71.322	-115.492	
23.00	-71.409	-95.218	
24.00	-71.959	-76.603	
25.00	-70.937	-56.619	
26.00	-70.872	-37.305	
27.00	-69.938	-13.852	
28.00	-70.063	9.871	
29.00	-70.073	32.221	
30.00	-69.345	59.817	
31.00	-69.911	70.428	
32.00	-69.657	95.078	
33.00	-69.367	115.544	
34.00	-70.125	133.764	
35.00	-69.954	157.368	
36.00	-70.240	-175.838	
37.00	-70.387	-158.357	
38.00	-69.250	-126.774	
39.00	-69.196	-99.949	
40.00	-68.539	-71.806	
41.00	-67.915	-53.249	
42.00	-68.697	-24.519	
43.00	-69.413	-0.611	
44.00	-69.886	27.635	
45.00	-70.367	59.770	
46.00	-71.429	89.538	
47.00	-71.803	116.785	
48.00	-72.699	142.658	
49.00	-72.748	171.586	
50.00	-72.330	-152.682	
51.00	-71.609	-122.539	
52.00	-71.474	-95.939	
53.00	-71.545	-60.322	
54.00	-72.517	-29.210	
55.00	-73.002	-10.215	
56.00	-72.427	30.064	
57.00	-73.387	56.212	
58.00	-72.869	107.171	
59.00	-72.330	111.419	
60.00	-72.458	162.416	
61.00	-72.201	176.916	
62.00	-71.910	-137.415	
63.00	-71.991	-114.651	
64.00	-71.736	-83.182	
65.00	-70.680	-57.877	
66.00	-70.320	-32.729	
67.00	-70.585	1.687	
68.00	-70.881	26.568	
69.00	-70.598	46.559	
70.00	-70.220	77.838	
71.00	-70.743	92.389	
72.00	-71.973	130.798	
73.00	-72.664	154.285	
74.00	-72.646	-159.423	
75.00	-72.418	-134.405	
76.00	-71.268	-103.219	
77.00	-70.848	-72.418	
78.00	-71.169	-50.346	
79.00	-70.258	-12.637	
80.00	-69.714	5.227	
81.00	-70.176	37.144	
82.00	-69.343	63.014	
83.00	-70.542	88.859	
84.00	-69.890	119.753	
85.00	-70.044	149.911	
86.00	-68.941	-172.734	
87.00	-68.468	-149.490	
88.00	-67.263	-120.342	
89.00	-66.630	-91.619	
90.00	-65.890	-73.470	
91.00	-65.400	-50.431	
92.00	-65.371	-25.910	
93.00	-65.332	-2.417	
94.00	-65.460	31.123	
95.00	-65.595	47.714	
96.00	-65.403	86.897	
97.00	-65.269	102.390	
98.00	-65.502	142.178	
99.00	-65.051	161.385	
100.00	-65.014	-159.332	
101.00	-64.489	-138.592	
102.00	-64.337	-103.293	
103.00	-63.533	-73.882	
104.00	-63.166	-57.376	
105.00	-62.623	-24.096	
106.00	-61.958	-7.143	
107.00	-61.758	18.399	
108.00	-61.253	43.346	
109.00	-61.170	70.904	
110.00	-60.691	94.646	
111.00	-60.504	119.006	
112.00	-60.293	139.593	
113.00	-59.909	170.983	
114.00	-59.424	-175.909	
115.00	-59.356	-145.174	
116.00	-58.883	-125.508	
117.00	-58.663	-97.872	
118.00	-58.156	-68.941	
119.00	-57.857	-49.747	
120.00	-57.483	-21.280	
121.00	-57.256	-3.823	
122.00	-57.046	25.304	
123.00	-56.703	38.654	
124.00	-56.692	71.891	
125.00	-56.413	86.677	
126.00	-56.290	107.343	
127.00	-56.243	133.281	
128.00	-56.595	150.368	
129.00	-56.295	-179.206	
130.00	-56.247	-166.926	
131.00	-56.497	-139.024	
132.00	-56.542	-126.672	
133.00	-56.688	-100.646	
134.00	-56.778	-83.557	
135.00	-57.103	-62.492	
136.00	-57.209	-43.350	
137.00	-57.857	-25.141	
138.00	-58.270	-2.996	
139.00	-58.913	9.649	
140.00	-59.429	28.847	
141.00	-60.609	43.438	
142.00	-61.295	57.138	
143.00	-62.520	69.089	
144.00	-63.966	83.158	
145.00	-65.352	96.232	
146.00	-67.145	104.297	
147.00	-68.992	104.085	
148.00	-69.827	103.217	
149.00	-70.003	95.144	
150.00	-69.261	91.498	
151.00	-68.220	83.811	
152.00	-66.987	92.990	
153.00	-65.872	101.488	
154.00	-65.346	109.524	
155.00	-64.482	127.568	
156.00	-63.816	134.217	
157.00	-63.181	157.401	
158.00	-62.762	163.290	
159.00	-62.249	179.186	
160.00	-62.039	-170.572	
161.00	-62.022	-159.869	
162.00	-62.192	-145.372	
163.00	-62.002	-136.037	
164.00	-62.173	-125.979	
165.00	-62.667	-116.285	
166.00	-62.791	-109.708	
167.00	-63.339	-99.966	
168.00	-63.758	-97.660	
169.00	-64.369	-95.909	
170.00	-64.993	-91.712	
171.00	-65.622	-94.650	
172.00	-66.555	-94.341	
173.00	-66.706	-100.089	
174.00	-67.588	-108.933	
175.00	-67.298	-115.245	
176.00	-67.023	-124.856	
177.00	-66.675	-128.093	
178.00	-66.181	-136.638	
179.00	-65.919	-149.696	
180.00	-64.701	-148.548	
181.00	-64.546	-153.457	
182.00	-64.035	-157.161	
183.00	-63.744	-157.329	
184.00	-63.996	-166.374	
185.00	-63.657	-164.413	
186.00	-63.607	-176.744	
187.00	-63.436	173.560	
188.00	-63.481	166.895	
189.00	-63.396	154.659	
190.00	-63.177	144.230	
191.00	-62.879	121.415	
192.00	-62.752	121.139	
193.00	-62.174	93.617	
194.00	-61.919	86.770	
195.00	-61.341	64.909	
196.00	-61.282	52.339	
197.00	-60.785	38.353	
198.00	-60.561	23.346	
199.00	-60.526	11.558	
200.00	-60.807	-9.343	
201.00	-60.687	-15.897	
202.00	-60.997	-30.730	
203.00	-60.979	-36.435	
204.00	-61.451	-46.100	
205.00	-61.790	-62.425	
206.00	-62.166	-71.414	
207.00	-63.358	-94.731	
208.00	-63.859	-106.876	
209.00	-64.444	-128.300	
210.00	-65.107	-148.444	
211.00	-65.556	-175.979	
212.00	-65.252	164.427	
213.00	-65.253	136.822	
214.00	-64.905	112.161	
215.00	-64.040	98.244	
216.00	-63.752	69.067	
217.00	-62.752	65.083	
218.00	-61.892	25.002	
219.00	-61.072	15.500	
220.00	-60.298	-4.521	
221.00	-59.778	-13.816	
222.00	-59.112	-37.442	
223.00	-58.438	-54.586	
224.00	-57.992	-77.560	
225.00	-57.714	-93.888	
226.00	-57.215	-114.809	
227.00	-56.633	-127.040	
228.00	-56.861	-157.281	
229.00	-56.531	-173.679	
230.00	-56.408	165.136	
231.00	-56.217	140.528	
232.00	-56.030	129.308	
233.00	-56.112	96.532	
234.00	-56.136	79.697	
235.00	-56.221	47.368	
236.00	-56.376	36.581	
237.00	-56.831	4.267	
238.00	-56.949	-10.657	
239.00	-57.765	-49.422	
240.00	-57.843	-70.976	
241.00	-58.340	-102.503	
242.00	-59.012	-125.727	
243.00	-59.415	-159.346	
244.00	-59.579	175.802	
245.00	-60.246	135.584	
246.00	-60.669	118.514	
247.00	-61.021	76.126	
248.00	-61.015	57.795	
249.00	-61.737	27.606	
250.00	-61.592	-8.440	
251.00	-62.231	-26.814	
252.00	-62.834	-73.611	
253.00	-63.240	-89.182	
254.00	-63.516	-135.096	
255.00	-63.782	-160.594	
256.00	-64.412	150.877	
257.00	-64.298	127.441	
258.00	-64.108	77.811	
259.00	-63.987	50.827	
260.00	-64.565	13.671	
261.00	-64.290	-34.251	
262.00	-64.373	-57.865	
263.00	-64.988	-103.166	
264.00	-64.734	-135.650	
265.00	-65.325	-177.051	
266.00	-65.186	144.996	
267.00	-64.907	133.606	
268.00	-64.842	84.352	
269.00	-64.517	67.688	
270.00	-64.194	29.832	
271.00	-64.343	-0.496	
272.00	-63.821	-26.883	
273.00	-64.203	-49.017	
274.00	-64.796	-86.949	
275.00	-64.989	-110.396	
276.00	-65.294	-153.459	
277.00	-66.021	176.477	
278.00	-66.059	137.203	
279.00	-65.866	99.361	
280.00	-65.442	67.687	
281.00	-64.908	17.392	
282.00	-64.947	-3.029	
283.00	-64.449	-51.864	
284.00	-64.794	-70.934	
285.00	-65.559	-119.380	
286.00	-65.940	-137.075	
287.00	-66.538	-169.336	
288.00	-67.116	150.558	
289.00	-67.010	117.984	
290.00	-67.151	88.919	
291.00	-66.913	52.911	
292.00	-67.155	35.102	
293.00	-67.495	-16.074	
294.00	-67.967	-22.739	
295.00	-68.630	-64.501	
296.00	-69.038	-93.390	
297.00	-70.340	-128.090	
298.00	-70.741	-172.395	
299.00	-70.179	164.739	
300.00	-70.071	120.593	
301.00	-69.174	101.617	
302.00	-69.452	73.059	
303.00	-69.643	43.778	
304.00	-69.819	21.671	
305.00	-69.794	-8.852	
306.00	-70.470	-31.114	
307.00	-70.667	-62.743	
308.00	-71.040	-94.088	
309.00	-72.423	-120.639	
310.00	-72.692	-153.572	
311.00	-72.400	174.314	
312.00	-73.895	133.973	
313.00	-73.568	102.476	
314.00	-72.985	57.294	
315.00	-71.947	36.566	
316.00	-72.392	17.274	
317.00	-71.757	-7.584	
318.00	-72.095	-29.280	
319.00	-72.162	-52.166	
320.00	-72.367	-72.277	
321.00	-73.803	-92.883	
322.00	-74.574	-119.177	
323.00	-76.187	-133.178	
324.00	-78.999	-165.503	
325.00	-80.132	142.260	
326.00	-80.575	107.741	
327.00	-77.266	75.984	
328.00	-77.157	48.941	
329.00	-75.649	14.928	
330.00	-76.085	4.389	
331.00	-76.947	-32.375	
332.00	-76.383	-64.022	
333.00	-76.169	-81.063	
334.00	-76.087	-88.427	
335.00	-75.937	-113.441	
336.00	-78.238	-132.301	
337.00	-79.476	-143.916	
338.00	-81.757	-166.798	
339.00	-83.487	-163.221	
340.00	-88.404	130.826	
341.00	-84.115	70.709	
342.00	-84.488	46.982	
343.00	-80.312	34.684	
344.00	-77.929	29.120	
345.00	-76.879	20.646	
346.00	-76.380	22.714	
347.00	-76.516	12.634	
348.00	-76.968	0.918	
349.00	-76.996	12.624	
350.00	-81.075	18.143	
351.00	-80.817	37.452	
352.00	-81.876	67.028	
353.00	-80.456	88.182	
354.00	-80.059	110.345	
355.00	-76.720	122.422	
356.00	-74.857	125.733	
357.00	-74.025	135.481	
358.00	-74.416	119.278	
359.00	-74.735	156.525	
Frequency	3750.00	MHz	
Channel	test		
Scan Axis name	Azimuth  [deg]		
Scan Axis	Amplitude	Phase	
			
0.00	-74.826	-125.146	
1.00	-76.842	-118.032	
2.00	-78.825	-89.929	
3.00	-78.655	-70.150	
4.00	-79.905	-38.802	
5.00	-77.211	-7.168	
6.00	-75.284	6.508	
7.00	-75.206	20.162	
8.00	-72.713	37.467	
9.00	-72.130	40.788	
10.00	-72.618	53.686	
11.00	-72.418	63.719	
12.00	-74.053	72.347	
13.00	-75.612	95.785	
14.00	-76.179	114.159	
15.00	-78.409	148.374	
16.00	-78.952	166.501	
17.00	-77.517	-157.518	
18.00	-76.440	-126.257	
19.00	-75.388	-105.783	
20.00	-73.484	-86.962	
21.00	-73.921	-66.896	
22.00	-73.018	-55.091	
23.00	-73.010	-38.398	
24.00	-72.997	-11.908	
25.00	-73.418	10.292	
26.00	-74.014	32.248	
27.00	-75.130	65.892	
28.00	-74.372	87.851	
29.00	-73.929	118.574	
30.00	-72.353	143.645	
31.00	-71.946	164.009	
32.00	-71.790	-177.235	
33.00	-71.486	-150.687	
34.00	-71.081	-138.340	
35.00	-71.161	-118.459	
36.00	-71.586	-97.253	
37.00	-71.878	-78.022	
38.00	-71.363	-52.900	
39.00	-71.895	-25.527	
40.00	-72.082	7.041	
41.00	-72.898	30.328	
42.00	-73.394	64.541	
43.00	-72.569	97.215	
44.00	-72.771	132.010	
45.00	-73.633	175.989	
46.00	-74.058	-164.743	
47.00	-74.159	-140.276	
48.00	-73.163	-115.126	
49.00	-74.736	-96.122	
50.00	-75.121	-66.308	
51.00	-74.582	-34.969	
52.00	-74.357	4.808	
53.00	-75.742	48.328	
54.00	-75.930	87.124	
55.00	-75.670	118.693	
56.00	-75.069	165.461	
57.00	-73.217	177.411	
58.00	-73.162	-133.720	
59.00	-72.853	-126.955	
60.00	-74.256	-73.529	
61.00	-72.336	-69.928	
62.00	-72.035	-17.111	
63.00	-71.132	1.723	
64.00	-71.172	33.058	
65.00	-71.125	67.949	
66.00	-71.618	92.427	
67.00	-72.108	123.609	
68.00	-71.368	149.128	
69.00	-71.887	171.643	
70.00	-72.528	-144.441	
71.00	-73.083	-124.783	
72.00	-72.983	-82.323	
73.00	-73.624	-55.758	
74.00	-72.270	-19.385	
75.00	-72.877	-0.718	
76.00	-71.978	35.992	
77.00	-73.072	62.776	
78.00	-74.282	75.895	
79.00	-74.049	116.544	
80.00	-75.603	157.616	
81.00	-76.495	-170.692	
82.00	-74.310	-151.181	
83.00	-73.654	-110.361	
84.00	-72.596	-85.573	
85.00	-72.399	-62.876	
86.00	-73.026	-28.957	
87.00	-75.921	-2.809	
88.00	-74.492	4.815	
89.00	-75.965	48.230	
90.00	-75.616	67.438	
91.00	-74.702	100.658	
92.00	-76.458	142.476	
93.00	-76.820	171.985	
94.00	-75.850	-140.465	
95.00	-74.290	-145.059	
96.00	-73.049	-97.919	
97.00	-72.618	-97.006	
98.00	-73.462	-57.664	
99.00	-73.400	-35.265	
100.00	-72.761	7.808	
101.00	-74.672	22.022	
102.00	-72.261	53.865	
103.00	-74.730	74.466	
104.00	-72.352	102.306	
105.00	-73.403	123.244	
106.00	-72.438	135.056	
107.00	-72.443	164.812	
108.00	-72.182	-177.663	
109.00	-71.807	-151.825	
110.00	-72.748	-131.390	
111.00	-71.110	-110.469	
112.00	-72.162	-88.490	
113.00	-70.328	-72.139	
114.00	-71.605	-66.890	
115.00	-69.776	-33.528	
116.00	-70.558	-16.893	
117.00	-70.661	6.218	
118.00	-68.688	24.139	
119.00	-68.915	51.557	
120.00	-68.551	72.111	
121.00	-68.627	88.179	
122.00	-66.692	112.469	
123.00	-66.445	125.434	
124.00	-64.865	161.935	
125.00	-64.721	175.886	
126.00	-63.664	-163.637	
127.00	-63.453	-141.278	
128.00	-63.008	-124.193	
129.00	-62.725	-93.386	
130.00	-61.990	-83.631	
131.00	-61.944	-59.858	
132.00	-61.457	-49.119	
133.00	-61.390	-20.449	
134.00	-61.329	-5.713	
135.00	-61.428	15.450	
136.00	-61.321	32.517	
137.00	-61.651	50.426	
138.00	-62.480	70.862	
139.00	-63.006	81.477	
140.00	-63.214	99.667	
141.00	-64.078	111.730	
142.00	-65.451	124.881	
143.00	-66.209	134.721	
144.00	-68.025	144.244	
145.00	-68.953	148.391	
146.00	-70.720	149.994	
147.00	-70.658	147.943	
148.00	-69.936	148.415	
149.00	-68.374	144.513	
150.00	-67.345	150.048	
151.00	-65.908	150.032	
152.00	-64.798	162.807	
153.00	-63.816	174.949	
154.00	-63.422	-174.975	
155.00	-62.800	-156.234	
156.00	-62.692	-152.379	
157.00	-62.344	-127.745	
158.00	-62.417	-124.341	
159.00	-62.148	-107.951	
160.00	-62.327	-97.238	
161.00	-62.818	-83.167	
162.00	-63.689	-68.705	
163.00	-64.177	-57.205	
164.00	-64.788	-42.155	
165.00	-66.144	-28.986	
166.00	-66.470	-15.621	
167.00	-67.481	1.709	
168.00	-68.809	13.447	
169.00	-70.007	22.178	
170.00	-70.948	40.249	
171.00	-70.728	47.648	
172.00	-71.988	57.715	
173.00	-74.179	64.920	
174.00	-73.563	62.319	
175.00	-76.811	57.548	
176.00	-78.128	32.578	
177.00	-79.175	7.318	
178.00	-74.775	-13.765	
179.00	-72.294	-40.732	
180.00	-69.453	-44.159	
181.00	-67.658	-46.684	
182.00	-65.958	-52.052	
183.00	-64.279	-48.428	
184.00	-62.854	-55.954	
185.00	-61.666	-53.084	
186.00	-61.188	-60.523	
187.00	-60.538	-66.846	
188.00	-60.040	-71.833	
189.00	-59.553	-80.241	
190.00	-59.313	-88.040	
191.00	-58.888	-105.578	
192.00	-58.858	-105.779	
193.00	-58.612	-130.308	
194.00	-58.691	-135.503	
195.00	-58.570	-157.117	
196.00	-58.568	-169.221	
197.00	-58.612	175.630	
198.00	-58.706	159.540	
199.00	-58.855	144.316	
200.00	-59.074	127.842	
201.00	-59.315	118.602	
202.00	-59.757	104.755	
203.00	-60.179	96.264	
204.00	-60.789	87.778	
205.00	-61.699	71.267	
206.00	-62.419	61.734	
207.00	-63.599	36.830	
208.00	-65.083	22.955	
209.00	-66.099	0.100	
210.00	-66.848	-17.742	
211.00	-68.228	-48.235	
212.00	-68.590	-73.624	
213.00	-69.216	-107.619	
214.00	-68.553	-135.869	
215.00	-68.021	-160.525	
216.00	-66.346	170.917	
217.00	-65.535	158.975	
218.00	-64.434	116.660	
219.00	-63.084	107.173	
220.00	-61.913	88.710	
221.00	-60.971	79.749	
222.00	-60.157	55.262	
223.00	-59.331	37.829	
224.00	-58.696	16.583	
225.00	-58.045	0.578	
226.00	-57.771	-17.839	
227.00	-57.430	-29.720	
228.00	-57.116	-59.320	
229.00	-56.916	-74.287	
230.00	-56.867	-96.002	
231.00	-56.777	-117.815	
232.00	-56.896	-128.700	
233.00	-56.951	-162.417	
234.00	-57.155	-179.222	
235.00	-57.493	148.065	
236.00	-57.451	136.956	
237.00	-57.861	103.535	
238.00	-58.042	88.970	
239.00	-58.413	48.121	
240.00	-58.738	29.193	
241.00	-59.438	0.547	
242.00	-59.955	-22.634	
243.00	-60.667	-52.168	
244.00	-61.421	-74.270	
245.00	-62.524	-116.332	
246.00	-63.660	-133.623	
247.00	-64.653	-177.341	
248.00	-65.049	160.092	
249.00	-66.479	123.270	
250.00	-66.958	84.693	
251.00	-67.374	63.585	
252.00	-67.292	9.476	
253.00	-67.259	-8.937	
254.00	-67.933	-55.793	
255.00	-68.193	-82.001	
256.00	-68.090	-135.447	
257.00	-68.401	-162.729	
258.00	-67.351	145.189	
259.00	-67.632	111.886	
260.00	-66.923	72.806	
261.00	-66.163	26.568	
262.00	-65.883	0.733	
263.00	-65.587	-41.317	
264.00	-65.529	-72.059	
265.00	-65.420	-115.118	
266.00	-65.405	-146.338	
267.00	-65.839	-160.478	
268.00	-65.818	149.167	
269.00	-65.665	134.031	
270.00	-65.663	96.718	
271.00	-65.278	61.857	
272.00	-64.927	33.546	
273.00	-64.636	8.758	
274.00	-64.074	-25.330	
275.00	-64.655	-48.893	
276.00	-64.556	-92.023	
277.00	-64.627	-121.982	
278.00	-64.947	-156.191	
279.00	-65.315	167.112	
280.00	-65.283	130.543	
281.00	-64.972	80.200	
282.00	-64.509	61.147	
283.00	-64.541	7.931	
284.00	-64.764	-13.221	
285.00	-64.232	-62.024	
286.00	-64.120	-81.251	
287.00	-64.383	-113.612	
288.00	-64.473	-150.936	
289.00	-64.377	-176.578	
290.00	-64.894	156.064	
291.00	-65.075	119.835	
292.00	-65.655	99.762	
293.00	-65.663	45.820	
294.00	-65.988	37.584	
295.00	-66.279	-9.757	
296.00	-66.524	-35.036	
297.00	-66.683	-66.363	
298.00	-67.263	-100.084	
299.00	-67.366	-122.637	
300.00	-68.362	-164.974	
301.00	-68.527	176.219	
302.00	-68.686	139.681	
303.00	-69.228	113.864	
304.00	-69.170	78.207	
305.00	-69.142	46.277	
306.00	-68.955	19.592	
307.00	-68.895	-8.557	
308.00	-68.422	-32.075	
309.00	-69.244	-64.521	
310.00	-69.547	-95.199	
311.00	-70.554	-119.998	
312.00	-70.688	-151.050	
313.00	-71.880	175.325	
314.00	-71.795	122.048	
315.00	-71.399	109.500	
316.00	-71.281	78.186	
317.00	-70.812	54.754	
318.00	-70.464	31.343	
319.00	-70.515	4.890	
320.00	-70.955	-14.509	
321.00	-71.783	-42.442	
322.00	-73.402	-60.881	
323.00	-74.406	-94.911	
324.00	-75.109	-122.196	
325.00	-76.525	-157.333	
326.00	-75.478	169.574	
327.00	-75.044	141.049	
328.00	-75.121	109.508	
329.00	-75.564	76.862	
330.00	-75.668	56.900	
331.00	-74.545	25.691	
332.00	-74.619	-17.227	
333.00	-74.520	-30.612	
334.00	-73.574	-43.727	
335.00	-74.447	-70.506	
336.00	-74.606	-90.670	
337.00	-74.711	-104.889	
338.00	-76.381	-122.335	
339.00	-77.712	-137.508	
340.00	-79.218	-153.636	
341.00	-79.307	157.797	
342.00	-80.704	154.100	
343.00	-78.077	117.462	
344.00	-77.981	101.714	
345.00	-77.400	79.527	
346.00	-75.400	73.640	
347.00	-76.710	74.477	
348.00	-77.752	54.597	
349.00	-78.930	66.098	
350.00	-81.780	63.400	
351.00	-88.204	102.124	
352.00	-85.491	143.267	
353.00	-86.783	174.323	
354.00	-80.081	-165.804	
355.00	-75.864	-167.322	
356.00	-75.565	-165.933	
357.00	-75.199	-150.671	
358.00	-73.885	-166.927	
359.00	-73.763	-132.125	
Frequency	3800.00	MHz	
Channel	test		
Scan Axis name	Azimuth  [deg]		
Scan Axis	Amplitude	Phase	
			
0.00	-83.091	-81.816	
1.00	-84.131	-93.660	
2.00	-93.680	-56.930	
3.00	-93.363	74.513	
4.00	-85.197	107.862	
5.00	-78.561	113.334	
6.00	-76.279	131.919	
7.00	-75.115	122.915	
8.00	-73.726	132.331	
9.00	-73.747	140.864	
10.00	-72.798	151.867	
11.00	-74.333	156.098	
12.00	-74.762	167.384	
13.00	-75.497	-176.072	
14.00	-77.397	-149.393	
15.00	-80.745	-125.162	
16.00	-80.504	-98.957	
17.00	-80.998	-61.308	
18.00	-77.638	-26.068	
19.00	-78.090	-6.145	
20.00	-76.790	6.528	
21.00	-75.493	34.524	
22.00	-75.125	67.752	
23.00	-74.047	86.478	
24.00	-73.165	102.414	
25.00	-72.302	124.127	
26.00	-71.598	152.391	
27.00	-71.325	173.175	
28.00	-70.206	-169.772	
29.00	-70.557	-148.081	
30.00	-70.019	-128.232	
31.00	-70.893	-111.654	
32.00	-70.569	-89.380	
33.00	-71.430	-61.564	
34.00	-70.239	-47.742	
35.00	-70.353	-20.060	
36.00	-70.841	1.865	
37.00	-70.323	21.005	
38.00	-69.827	49.646	
39.00	-69.358	78.734	
40.00	-69.581	104.670	
41.00	-69.640	132.833	
42.00	-70.350	165.772	
43.00	-71.607	-169.870	
44.00	-72.348	-137.280	
45.00	-73.827	-100.665	
46.00	-73.164	-67.579	
47.00	-72.502	-36.664	
48.00	-72.472	-3.253	
49.00	-71.225	23.460	
50.00	-70.257	55.202	
51.00	-70.182	82.376	
52.00	-70.069	118.280	
53.00	-70.446	151.514	
54.00	-69.737	178.067	
55.00	-69.968	-161.582	
56.00	-70.041	-116.094	
57.00	-70.157	-91.496	
58.00	-70.308	-39.536	
59.00	-69.338	-31.794	
60.00	-68.587	18.323	
61.00	-68.527	32.837	
62.00	-68.016	83.800	
63.00	-67.443	102.802	
64.00	-67.488	134.055	
65.00	-68.213	159.776	
66.00	-67.655	-176.131	
67.00	-68.649	-141.414	
68.00	-68.663	-114.544	
69.00	-69.844	-88.080	
70.00	-69.974	-45.567	
71.00	-70.858	-24.175	
72.00	-70.320	23.797	
73.00	-69.765	48.103	
74.00	-68.735	92.736	
75.00	-68.840	108.042	
76.00	-68.917	145.881	
77.00	-69.809	166.923	
78.00	-69.720	-170.514	
79.00	-70.333	-125.864	
80.00	-69.959	-107.273	
81.00	-70.887	-63.090	
82.00	-71.720	-40.994	
83.00	-71.453	1.159	
84.00	-70.879	30.334	
85.00	-69.411	59.708	
86.00	-69.113	89.693	
87.00	-69.087	112.830	
88.00	-68.869	136.264	
89.00	-68.885	165.705	
90.00	-69.173	-178.473	
91.00	-69.261	-147.721	
92.00	-69.475	-121.538	
93.00	-70.127	-91.208	
94.00	-70.262	-53.267	
95.00	-70.128	-33.504	
96.00	-69.270	11.809	
97.00	-68.567	25.123	
98.00	-68.251	63.715	
99.00	-68.391	78.656	
100.00	-67.636	111.491	
101.00	-67.081	134.105	
102.00	-66.989	168.146	
103.00	-66.883	-173.559	
104.00	-66.917	-156.941	
105.00	-67.760	-127.508	
106.00	-67.825	-110.291	
107.00	-67.609	-80.846	
108.00	-67.541	-55.688	
109.00	-67.549	-27.419	
110.00	-66.870	-0.151	
111.00	-66.534	20.623	
112.00	-66.185	42.748	
113.00	-65.878	69.113	
114.00	-65.582	80.893	
115.00	-65.500	107.468	
116.00	-65.114	121.473	
117.00	-65.334	144.077	
118.00	-65.159	167.956	
119.00	-65.185	-179.622	
120.00	-65.075	-156.148	
121.00	-65.058	-142.245	
122.00	-65.350	-117.712	
123.00	-65.078	-107.438	
124.00	-64.748	-76.517	
125.00	-64.468	-64.637	
126.00	-63.852	-43.438	
127.00	-63.419	-21.630	
128.00	-62.644	-3.484	
129.00	-61.926	26.882	
130.00	-61.042	35.065	
131.00	-60.174	60.130	
132.00	-59.686	69.826	
133.00	-59.150	94.321	
134.00	-58.843	110.600	
135.00	-58.407	129.724	
136.00	-58.308	145.881	
137.00	-58.378	163.054	
138.00	-58.501	-176.164	
139.00	-58.619	-162.193	
140.00	-59.056	-145.059	
141.00	-59.592	-130.519	
142.00	-60.239	-116.301	
143.00	-60.794	-99.705	
144.00	-61.595	-81.790	
145.00	-62.477	-67.839	
146.00	-63.175	-52.175	
147.00	-64.511	-38.450	
148.00	-65.554	-29.630	
149.00	-67.156	-22.489	
150.00	-68.579	-19.440	
151.00	-69.046	-22.301	
152.00	-69.524	-22.346	
153.00	-69.098	-18.159	
154.00	-68.612	-17.648	
155.00	-67.346	-7.380	
156.00	-65.871	-5.156	
157.00	-64.601	16.691	
158.00	-64.282	19.875	
159.00	-63.150	35.337	
160.00	-62.308	45.932	
161.00	-62.027	57.990	
162.00	-61.343	72.626	
163.00	-61.004	83.920	
164.00	-60.373	97.048	
165.00	-59.938	109.668	
166.00	-59.581	118.245	
167.00	-59.125	128.502	
168.00	-59.013	136.293	
169.00	-58.830	140.534	
170.00	-58.644	147.390	
171.00	-58.455	149.847	
172.00	-58.550	153.145	
173.00	-58.555	154.287	
174.00	-58.783	152.875	
175.00	-59.014	153.048	
176.00	-59.363	149.109	
177.00	-59.556	148.596	
178.00	-59.718	141.654	
179.00	-60.019	126.155	
180.00	-60.093	124.669	
181.00	-60.334	115.419	
182.00	-60.099	106.033	
183.00	-59.660	100.709	
184.00	-59.601	88.597	
185.00	-59.169	89.137	
186.00	-58.797	75.755	
187.00	-58.567	67.076	
188.00	-58.307	59.886	
189.00	-58.166	51.712	
190.00	-58.057	41.087	
191.00	-58.244	22.191	
192.00	-58.133	22.816	
193.00	-58.473	-4.605	
194.00	-58.621	-10.478	
195.00	-59.074	-35.050	
196.00	-59.141	-48.346	
197.00	-59.182	-66.071	
198.00	-59.246	-81.528	
199.00	-59.512	-99.153	
200.00	-59.693	-116.969	
201.00	-59.892	-126.570	
202.00	-60.249	-141.595	
203.00	-60.546	-149.561	
204.00	-60.973	-161.149	
205.00	-61.565	-179.194	
206.00	-61.987	168.464	
207.00	-62.272	144.454	
208.00	-62.955	132.649	
209.00	-63.798	114.306	
210.00	-64.124	98.714	
211.00	-65.238	72.926	
212.00	-65.876	54.853	
213.00	-66.055	25.850	
214.00	-66.837	-0.870	
215.00	-66.552	-21.597	
216.00	-66.303	-52.309	
217.00	-65.177	-63.956	
218.00	-63.836	-109.503	
219.00	-62.979	-125.016	
220.00	-61.646	-146.420	
221.00	-60.465	-157.244	
222.00	-59.466	177.600	
223.00	-58.577	158.174	
224.00	-57.813	137.118	
225.00	-57.023	118.843	
226.00	-56.605	99.319	
227.00	-56.122	86.199	
228.00	-56.130	55.498	
229.00	-55.811	38.939	
230.00	-55.709	15.413	
231.00	-55.700	-7.540	
232.00	-55.635	-21.519	
233.00	-55.591	-57.302	
234.00	-55.590	-75.330	
235.00	-55.622	-110.214	
236.00	-55.510	-120.760	
237.00	-55.719	-155.673	
238.00	-55.723	-169.794	
239.00	-56.022	149.889	
240.00	-56.162	132.904	
241.00	-56.838	102.617	
242.00	-57.312	82.080	
243.00	-58.075	49.930	
244.00	-58.970	26.933	
245.00	-59.722	-14.820	
246.00	-60.427	-31.469	
247.00	-61.062	-78.885	
248.00	-61.750	-96.073	
249.00	-62.232	-131.696	
250.00	-62.581	-164.332	
251.00	-63.218	174.759	
252.00	-63.800	130.455	
253.00	-64.861	113.223	
254.00	-65.953	67.706	
255.00	-67.045	41.501	
256.00	-68.252	-14.797	
257.00	-69.257	-43.731	
258.00	-68.526	-102.186	
259.00	-68.071	-137.237	
260.00	-67.263	178.116	
261.00	-66.335	131.570	
262.00	-66.281	107.049	
263.00	-66.256	65.474	
264.00	-66.629	31.640	
265.00	-66.783	-13.929	
266.00	-66.954	-46.804	
267.00	-67.396	-64.364	
268.00	-66.682	-120.360	
269.00	-66.003	-133.653	
270.00	-65.601	-171.919	
271.00	-64.953	154.582	
272.00	-65.337	128.095	
273.00	-65.525	103.780	
274.00	-65.410	70.792	
275.00	-65.995	46.276	
276.00	-66.022	-1.404	
277.00	-66.930	-33.908	
278.00	-66.550	-75.595	
279.00	-66.162	-112.829	
280.00	-65.687	-147.175	
281.00	-65.484	161.909	
282.00	-64.722	143.285	
283.00	-65.156	94.184	
284.00	-65.336	74.531	
285.00	-65.765	21.681	
286.00	-65.835	-1.428	
287.00	-66.185	-37.753	
288.00	-66.013	-82.524	
289.00	-65.715	-108.763	
290.00	-65.154	-139.489	
291.00	-64.741	-173.665	
292.00	-65.056	167.402	
293.00	-64.627	119.581	
294.00	-65.260	110.975	
295.00	-65.412	67.435	
296.00	-66.051	42.702	
297.00	-67.063	5.089	
298.00	-67.463	-30.741	
299.00	-67.522	-52.111	
300.00	-68.057	-99.346	
301.00	-67.184	-117.580	
302.00	-67.416	-153.799	
303.00	-67.948	-177.514	
304.00	-68.006	150.468	
305.00	-67.842	121.584	
306.00	-68.054	100.828	
307.00	-68.290	67.413	
308.00	-69.118	45.150	
309.00	-70.093	11.434	
310.00	-70.070	-20.930	
311.00	-70.823	-53.020	
312.00	-71.298	-89.621	
313.00	-71.195	-125.684	
314.00	-70.088	-176.971	
315.00	-69.829	164.395	
316.00	-69.049	143.896	
317.00	-68.648	117.491	
318.00	-69.058	98.789	
319.00	-69.438	79.721	
320.00	-70.637	58.948	
321.00	-72.072	27.612	
322.00	-74.022	7.014	
323.00	-74.325	-38.234	
324.00	-76.245	-65.107	
325.00	-75.240	-107.848	
326.00	-73.736	-140.140	
327.00	-73.100	-157.470	
328.00	-72.866	175.820	
329.00	-71.987	155.500	
330.00	-72.492	136.905	
331.00	-73.317	112.051	
332.00	-74.052	75.894	
333.00	-76.832	63.326	
334.00	-76.199	46.670	
335.00	-78.693	5.112	
336.00	-80.391	-17.944	
337.00	-79.943	-59.494	
338.00	-78.728	-90.870	
339.00	-80.788	-105.448	
340.00	-79.141	-112.285	
341.00	-77.556	-163.486	
342.00	-77.437	-173.148	
343.00	-73.829	162.490	
344.00	-74.395	159.172	
345.00	-73.312	137.657	
346.00	-73.531	139.413	
347.00	-74.754	127.006	
348.00	-74.847	123.915	
349.00	-76.295	126.107	
350.00	-77.146	120.779	
351.00	-81.579	146.361	
352.00	-85.319	-179.744	
353.00	-88.686	-132.915	
354.00	-81.060	-143.858	
355.00	-79.006	-124.378	
356.00	-77.885	-116.091	
357.00	-76.896	-111.195	
358.00	-77.230	-127.509	
359.00	-78.848	-95.065	
Frequency	3850.00	MHz	
Channel	test		
Scan Axis name	Azimuth  [deg]		
Scan Axis	Amplitude	Phase	
			
0.00	-82.260	5.315	
1.00	-84.017	16.340	
2.00	-91.551	48.074	
3.00	-86.123	141.135	
4.00	-82.686	-176.549	
5.00	-77.606	-175.657	
6.00	-76.145	-160.770	
7.00	-74.505	-163.146	
8.00	-73.558	-146.854	
9.00	-73.347	-144.673	
10.00	-72.634	-134.250	
11.00	-73.337	-118.505	
12.00	-73.466	-102.311	
13.00	-74.613	-83.789	
14.00	-75.173	-64.154	
15.00	-75.901	-39.433	
16.00	-74.397	-20.970	
17.00	-75.173	10.316	
18.00	-74.519	34.239	
19.00	-74.452	46.809	
20.00	-73.947	77.307	
21.00	-74.477	98.370	
22.00	-74.786	124.694	
23.00	-74.677	150.577	
24.00	-74.395	-175.971	
25.00	-73.292	-151.738	
26.00	-71.909	-129.342	
27.00	-70.101	-105.870	
28.00	-69.422	-85.210	
29.00	-69.158	-68.647	
30.00	-68.658	-46.605	
31.00	-68.559	-34.241	
32.00	-68.768	-13.941	
33.00	-69.077	11.963	
34.00	-69.433	25.455	
35.00	-69.784	47.090	
36.00	-69.598	70.883	
37.00	-70.619	92.381	
38.00	-70.419	121.316	
39.00	-70.010	153.558	
40.00	-69.683	-172.675	
41.00	-69.821	-145.867	
42.00	-69.433	-107.139	
43.00	-69.059	-80.164	
44.00	-69.419	-52.912	
45.00	-69.286	-19.481	
46.00	-69.815	10.955	
47.00	-69.663	31.132	
48.00	-70.309	60.575	
49.00	-71.590	89.737	
50.00	-71.279	127.966	
51.00	-70.419	165.615	
52.00	-70.128	-159.714	
53.00	-68.671	-117.954	
54.00	-68.042	-92.004	
55.00	-67.550	-68.519	
56.00	-66.939	-31.919	
57.00	-67.568	-22.980	
58.00	-67.731	28.219	
59.00	-67.748	37.145	
60.00	-67.820	90.269	
61.00	-68.298	101.594	
62.00	-68.011	158.115	
63.00	-67.737	-176.085	
64.00	-66.633	-146.180	
65.00	-66.776	-111.870	
66.00	-66.822	-90.142	
67.00	-66.469	-55.145	
68.00	-67.028	-29.645	
69.00	-67.617	-3.343	
70.00	-68.126	29.355	
71.00	-69.068	54.598	
72.00	-69.281	97.578	
73.00	-68.640	127.181	
74.00	-68.348	173.049	
75.00	-68.650	-172.364	
76.00	-67.848	-133.122	
77.00	-68.147	-107.657	
78.00	-68.455	-81.590	
79.00	-68.611	-36.346	
80.00	-68.802	-18.332	
81.00	-69.145	26.693	
82.00	-68.752	44.249	
83.00	-68.592	82.767	
84.00	-68.670	108.681	
85.00	-68.837	143.565	
86.00	-67.697	174.707	
87.00	-67.609	-158.427	
88.00	-67.114	-132.090	
89.00	-67.050	-103.256	
90.00	-66.561	-83.930	
91.00	-66.468	-52.981	
92.00	-66.667	-29.750	
93.00	-67.287	2.981	
94.00	-66.558	34.684	
95.00	-67.076	53.785	
96.00	-68.006	93.358	
97.00	-66.853	115.190	
98.00	-67.271	154.895	
99.00	-67.608	170.378	
100.00	-66.927	-148.148	
101.00	-66.809	-124.184	
102.00	-65.858	-89.279	
103.00	-65.301	-67.456	
104.00	-64.567	-47.738	
105.00	-65.086	-19.524	
106.00	-64.875	-5.456	
107.00	-65.208	21.320	
108.00	-65.209	45.759	
109.00	-65.810	67.282	
110.00	-65.848	94.508	
111.00	-66.148	115.230	
112.00	-66.259	138.241	
113.00	-66.299	168.753	
114.00	-66.569	179.112	
115.00	-66.109	-151.822	
116.00	-66.031	-140.014	
117.00	-65.923	-110.757	
118.00	-65.363	-90.937	
119.00	-65.208	-74.269	
120.00	-64.808	-52.407	
121.00	-64.278	-39.867	
122.00	-64.067	-16.322	
123.00	-63.177	-4.949	
124.00	-62.530	24.453	
125.00	-61.761	35.522	
126.00	-61.571	57.300	
127.00	-60.829	77.557	
128.00	-60.364	93.046	
129.00	-59.691	122.699	
130.00	-59.306	131.980	
131.00	-58.897	157.521	
132.00	-58.512	168.068	
133.00	-58.289	-166.111	
134.00	-58.103	-146.996	
135.00	-58.093	-126.412	
136.00	-58.361	-109.017	
137.00	-58.290	-86.121	
138.00	-58.461	-65.823	
139.00	-58.700	-49.123	
140.00	-59.055	-29.684	
141.00	-59.457	-13.667	
142.00	-60.320	4.725	
143.00	-61.160	23.074	
144.00	-62.114	41.537	
145.00	-63.296	58.235	
146.00	-64.696	78.634	
147.00	-66.334	98.143	
148.00	-68.946	115.684	
149.00	-71.511	137.095	
150.00	-74.607	158.729	
151.00	-79.920	-173.715	
152.00	-81.889	-100.933	
153.00	-80.166	-40.980	
154.00	-77.270	-6.671	
155.00	-76.145	28.417	
156.00	-74.595	48.398	
157.00	-74.003	89.615	
158.00	-73.443	106.019	
159.00	-71.413	143.168	
160.00	-70.540	168.529	
161.00	-68.380	-168.844	
162.00	-66.262	-150.293	
163.00	-64.618	-134.844	
164.00	-62.942	-121.805	
165.00	-61.991	-107.380	
166.00	-60.899	-100.262	
167.00	-60.170	-89.700	
168.00	-59.484	-82.669	
169.00	-58.978	-78.793	
170.00	-58.755	-72.378	
171.00	-58.670	-71.946	
172.00	-58.901	-68.924	
173.00	-59.077	-68.927	
174.00	-59.331	-68.379	
175.00	-60.020	-69.433	
176.00	-60.348	-74.656	
177.00	-61.227	-76.061	
178.00	-61.962	-88.343	
179.00	-62.534	-104.425	
180.00	-62.851	-107.693	
181.00	-63.207	-122.847	
182.00	-62.992	-135.624	
183.00	-62.831	-142.188	
184.00	-62.332	-157.724	
185.00	-61.849	-158.580	
186.00	-61.452	-173.605	
187.00	-61.097	177.946	
188.00	-61.083	168.258	
189.00	-61.063	159.631	
190.00	-61.144	148.355	
191.00	-61.217	127.304	
192.00	-61.403	125.534	
193.00	-61.607	99.549	
194.00	-62.179	92.098	
195.00	-62.421	65.575	
196.00	-62.533	51.254	
197.00	-62.824	33.756	
198.00	-63.037	16.015	
199.00	-63.335	-0.085	
200.00	-63.675	-18.464	
201.00	-63.833	-29.469	
202.00	-64.106	-42.942	
203.00	-64.585	-51.476	
204.00	-65.002	-60.286	
205.00	-65.585	-74.103	
206.00	-66.064	-85.175	
207.00	-66.565	-100.656	
208.00	-67.512	-111.530	
209.00	-68.908	-122.301	
210.00	-70.358	-132.707	
211.00	-72.124	-155.483	
212.00	-73.060	-167.458	
213.00	-75.618	158.006	
214.00	-76.666	129.464	
215.00	-78.075	82.077	
216.00	-75.591	40.482	
217.00	-73.533	20.148	
218.00	-70.357	-21.105	
219.00	-68.384	-31.109	
220.00	-65.827	-50.402	
221.00	-64.504	-64.222	
222.00	-62.922	-88.728	
223.00	-61.563	-107.799	
224.00	-60.000	-129.447	
225.00	-59.076	-146.648	
226.00	-58.288	-165.448	
227.00	-57.514	-178.035	
228.00	-56.980	151.014	
229.00	-56.396	136.080	
230.00	-56.058	111.859	
231.00	-55.846	89.666	
232.00	-55.601	78.337	
233.00	-55.457	43.176	
234.00	-55.589	26.843	
235.00	-55.497	-8.211	
236.00	-55.341	-18.247	
237.00	-55.669	-53.678	
238.00	-55.748	-67.465	
239.00	-55.991	-108.274	
240.00	-56.273	-125.967	
241.00	-56.819	-156.728	
242.00	-57.159	-177.261	
243.00	-57.873	149.773	
244.00	-58.439	127.591	
245.00	-59.472	85.606	
246.00	-60.098	69.394	
247.00	-60.826	22.642	
248.00	-61.447	7.855	
249.00	-62.354	-31.028	
250.00	-62.660	-62.178	
251.00	-63.312	-83.988	
252.00	-63.792	-128.089	
253.00	-64.842	-148.938	
254.00	-66.014	162.597	
255.00	-66.741	137.953	
256.00	-67.469	86.560	
257.00	-67.866	57.429	
258.00	-68.924	-3.595	
259.00	-68.252	-36.590	
260.00	-68.654	-80.021	
261.00	-67.985	-132.083	
262.00	-68.235	-164.822	
263.00	-67.493	148.311	
264.00	-67.314	115.650	
265.00	-67.072	68.337	
266.00	-66.660	36.666	
267.00	-66.779	24.239	
268.00	-66.094	-25.564	
269.00	-65.753	-41.129	
270.00	-65.479	-80.182	
271.00	-65.624	-112.987	
272.00	-65.003	-141.014	
273.00	-64.757	-169.272	
274.00	-64.725	155.801	
275.00	-65.252	127.109	
276.00	-64.527	86.663	
277.00	-64.725	57.046	
278.00	-64.674	20.716	
279.00	-64.693	-17.116	
280.00	-64.646	-46.410	
281.00	-65.043	-95.842	
282.00	-64.983	-117.605	
283.00	-65.509	-168.686	
284.00	-65.499	166.550	
285.00	-66.060	111.488	
286.00	-66.108	90.673	
287.00	-66.069	54.637	
288.00	-65.959	11.131	
289.00	-65.721	-16.906	
290.00	-65.535	-50.422	
291.00	-65.296	-79.898	
292.00	-65.323	-104.673	
293.00	-65.956	-148.354	
294.00	-66.495	-159.590	
295.00	-66.982	153.307	
296.00	-67.601	127.697	
297.00	-68.023	84.690	
298.00	-67.732	50.717	
299.00	-67.296	26.928	
300.00	-67.177	-17.131	
301.00	-67.352	-34.831	
302.00	-67.196	-68.112	
303.00	-67.311	-89.005	
304.00	-67.756	-122.818	
305.00	-68.155	-154.568	
306.00	-68.162	-179.541	
307.00	-68.721	146.332	
308.00	-68.502	115.535	
309.00	-69.287	83.114	
310.00	-69.006	55.509	
311.00	-69.296	25.290	
312.00	-69.515	-3.874	
313.00	-70.305	-32.309	
314.00	-70.770	-76.896	
315.00	-71.124	-89.656	
316.00	-71.018	-125.478	
317.00	-71.868	-153.749	
318.00	-72.043	178.251	
319.00	-71.785	143.960	
320.00	-72.594	125.410	
321.00	-72.206	92.479	
322.00	-73.198	73.596	
323.00	-72.643	35.576	
324.00	-73.382	9.880	
325.00	-73.351	-31.020	
326.00	-72.654	-53.518	
327.00	-72.343	-76.740	
328.00	-73.363	-103.035	
329.00	-72.167	-129.700	
330.00	-72.816	-135.618	
331.00	-74.449	-179.982	
332.00	-75.661	146.375	
333.00	-78.386	129.479	
334.00	-79.567	117.339	
335.00	-78.601	71.316	
336.00	-78.384	35.471	
337.00	-78.640	-1.438	
338.00	-78.018	-15.185	
339.00	-78.629	-23.337	
340.00	-77.014	-34.671	
341.00	-76.236	-76.192	
342.00	-76.204	-85.257	
343.00	-76.858	-104.752	
344.00	-75.352	-115.359	
345.00	-75.558	-133.132	
346.00	-77.622	-140.986	
347.00	-76.940	-157.538	
348.00	-80.648	-153.013	
349.00	-80.858	-150.530	
350.00	-84.717	-149.963	
351.00	-93.510	-110.051	
352.00	-87.328	-11.480	
353.00	-85.030	-5.723	
354.00	-79.458	-20.567	
355.00	-76.409	-20.084	
356.00	-76.815	-23.931	
357.00	-75.935	-19.377	
358.00	-76.695	-30.053	
359.00	-78.022	0.231	
Frequency	3900.00	MHz	
Channel	test		
Scan Axis name	Azimuth  [deg]		
Scan Axis	Amplitude	Phase	
			
0.00	-74.397	87.755	
1.00	-75.393	91.934	
2.00	-77.870	112.058	
3.00	-80.133	134.336	
4.00	-78.324	177.349	
5.00	-76.162	-159.269	
6.00	-76.020	-139.896	
7.00	-75.012	-125.855	
8.00	-73.133	-106.197	
9.00	-73.100	-101.181	
10.00	-74.478	-85.166	
11.00	-74.615	-76.217	
12.00	-75.552	-55.396	
13.00	-77.755	-28.854	
14.00	-76.540	-0.880	
15.00	-77.103	28.590	
16.00	-76.475	60.756	
17.00	-74.442	89.176	
18.00	-72.876	106.079	
19.00	-72.631	123.277	
20.00	-72.313	142.850	
21.00	-72.484	159.007	
22.00	-72.418	-178.466	
23.00	-72.537	-155.076	
24.00	-72.443	-123.792	
25.00	-72.737	-101.766	
26.00	-70.967	-75.770	
27.00	-70.949	-46.872	
28.00	-69.919	-22.611	
29.00	-69.283	-2.860	
30.00	-68.957	22.989	
31.00	-68.131	38.246	
32.00	-68.030	55.376	
33.00	-67.520	77.327	
34.00	-68.229	88.018	
35.00	-67.859	113.206	
36.00	-69.112	131.967	
37.00	-69.317	154.040	
38.00	-69.843	-174.785	
39.00	-70.192	-143.338	
40.00	-69.504	-105.461	
41.00	-69.924	-79.664	
42.00	-69.469	-37.377	
43.00	-69.498	-9.296	
44.00	-68.910	22.081	
45.00	-68.874	60.393	
46.00	-68.188	84.557	
47.00	-69.484	103.601	
48.00	-68.914	133.728	
49.00	-68.879	157.522	
50.00	-69.733	-170.081	
51.00	-69.762	-139.447	
52.00	-69.732	-99.584	
53.00	-69.203	-56.141	
54.00	-68.794	-23.318	
55.00	-68.871	2.718	
56.00	-68.061	45.498	
57.00	-67.847	59.466	
58.00	-67.331	108.932	
59.00	-67.226	115.618	
60.00	-67.087	167.942	
61.00	-67.383	177.354	
62.00	-66.753	-125.317	
63.00	-66.250	-103.588	
64.00	-66.874	-69.363	
65.00	-66.247	-36.735	
66.00	-66.490	-10.968	
67.00	-66.045	28.468	
68.00	-66.234	56.040	
69.00	-66.297	80.182	
70.00	-66.401	117.080	
71.00	-66.339	139.388	
72.00	-66.632	178.248	
73.00	-67.334	-156.713	
74.00	-66.846	-108.948	
75.00	-66.893	-90.702	
76.00	-66.666	-42.809	
77.00	-66.573	-14.369	
78.00	-66.293	12.042	
79.00	-65.451	56.392	
80.00	-65.368	72.443	
81.00	-65.125	117.659	
82.00	-65.118	140.135	
83.00	-65.133	174.516	
84.00	-64.798	-154.952	
85.00	-64.680	-122.954	
86.00	-64.350	-92.587	
87.00	-63.947	-63.358	
88.00	-64.634	-36.586	
89.00	-63.710	-1.550	
90.00	-63.881	20.433	
91.00	-63.370	52.812	
92.00	-62.918	80.398	
93.00	-62.752	118.620	
94.00	-62.748	151.490	
95.00	-63.187	168.528	
96.00	-62.827	-150.052	
97.00	-62.694	-130.474	
98.00	-63.411	-90.157	
99.00	-63.188	-71.266	
100.00	-62.976	-28.148	
101.00	-62.101	-8.126	
102.00	-62.685	28.211	
103.00	-62.672	54.658	
104.00	-62.248	74.762	
105.00	-62.107	105.221	
106.00	-62.811	123.500	
107.00	-62.976	157.412	
108.00	-63.226	-176.641	
109.00	-63.627	-142.392	
110.00	-63.746	-114.750	
111.00	-63.994	-92.581	
112.00	-64.131	-63.037	
113.00	-63.902	-31.929	
114.00	-64.425	-18.747	
115.00	-64.308	14.673	
116.00	-64.981	35.626	
117.00	-65.110	63.175	
118.00	-65.805	88.777	
119.00	-67.197	108.355	
120.00	-67.736	130.399	
121.00	-69.699	147.765	
122.00	-72.304	-171.197	
123.00	-75.106	-168.174	
124.00	-77.566	-147.584	
125.00	-81.336	-157.517	
126.00	-86.369	-146.685	
127.00	-86.298	172.281	
128.00	-79.487	-175.085	
129.00	-78.999	-145.066	
130.00	-75.787	-133.376	
131.00	-72.923	-97.769	
132.00	-71.883	-86.406	
133.00	-70.108	-50.271	
134.00	-68.947	-26.460	
135.00	-67.582	-2.200	
136.00	-66.855	20.006	
137.00	-65.936	44.957	
138.00	-64.944	70.662	
139.00	-64.834	92.014	
140.00	-64.413	111.843	
141.00	-64.564	135.076	
142.00	-63.935	158.757	
143.00	-63.844	-178.235	
144.00	-63.675	-152.920	
145.00	-62.892	-131.503	
146.00	-62.702	-105.732	
147.00	-62.500	-83.093	
148.00	-61.901	-63.581	
149.00	-61.270	-46.451	
150.00	-60.860	-29.009	
151.00	-60.893	-16.515	
152.00	-60.864	1.011	
153.00	-60.938	17.251	
154.00	-61.082	29.800	
155.00	-61.647	50.824	
156.00	-62.385	55.667	
157.00	-63.690	78.197	
158.00	-65.274	77.694	
159.00	-67.501	89.461	
160.00	-70.536	84.117	
161.00	-73.465	67.319	
162.00	-73.876	27.482	
163.00	-68.961	15.039	
164.00	-66.094	14.317	
165.00	-63.634	18.850	
166.00	-62.064	23.142	
167.00	-60.170	29.735	
168.00	-59.184	34.834	
169.00	-58.628	38.974	
170.00	-57.964	44.352	
171.00	-57.648	46.713	
172.00	-57.340	49.064	
173.00	-57.502	52.467	
174.00	-57.661	52.835	
175.00	-58.053	55.892	
176.00	-58.526	52.207	
177.00	-59.146	56.560	
178.00	-59.997	51.374	
179.00	-61.201	37.749	
180.00	-62.469	42.930	
181.00	-63.627	28.603	
182.00	-65.163	18.240	
183.00	-66.062	5.985	
184.00	-66.240	-18.243	
185.00	-66.160	-26.196	
186.00	-65.763	-48.486	
187.00	-64.587	-60.323	
188.00	-64.372	-70.573	
189.00	-63.708	-80.224	
190.00	-63.419	-92.775	
191.00	-63.625	-112.708	
192.00	-63.243	-110.709	
193.00	-63.521	-140.655	
194.00	-63.888	-141.997	
195.00	-64.452	-170.740	
196.00	-64.893	176.921	
197.00	-65.861	155.910	
198.00	-66.246	137.509	
199.00	-66.531	113.910	
200.00	-66.617	91.877	
201.00	-67.415	74.835	
202.00	-66.752	55.731	
203.00	-66.156	44.588	
204.00	-66.579	31.722	
205.00	-66.430	13.514	
206.00	-66.403	-1.735	
207.00	-66.431	-28.005	
208.00	-66.163	-40.153	
209.00	-65.936	-61.685	
210.00	-65.556	-79.387	
211.00	-65.490	-102.152	
212.00	-64.823	-116.693	
213.00	-64.631	-143.855	
214.00	-64.066	-160.623	
215.00	-63.660	178.522	
216.00	-62.709	156.925	
217.00	-62.103	147.345	
218.00	-61.081	107.591	
219.00	-60.593	94.645	
220.00	-59.752	76.534	
221.00	-58.934	62.566	
222.00	-58.116	38.493	
223.00	-57.878	15.826	
224.00	-57.390	-6.910	
225.00	-56.678	-28.706	
226.00	-56.315	-49.802	
227.00	-55.770	-65.091	
228.00	-55.568	-98.080	
229.00	-55.013	-114.392	
230.00	-54.940	-140.969	
231.00	-54.475	-164.207	
232.00	-54.516	-176.696	
233.00	-54.240	147.769	
234.00	-54.270	130.633	
235.00	-54.335	95.795	
236.00	-54.204	85.095	
237.00	-54.477	50.250	
238.00	-54.665	36.790	
239.00	-55.138	-6.567	
240.00	-55.398	-24.009	
241.00	-55.949	-55.976	
242.00	-56.276	-76.872	
243.00	-56.961	-110.966	
244.00	-57.581	-132.429	
245.00	-58.296	-173.875	
246.00	-58.649	171.592	
247.00	-59.613	125.400	
248.00	-60.115	114.612	
249.00	-61.073	74.907	
250.00	-61.770	50.126	
251.00	-63.320	24.845	
252.00	-64.424	-17.455	
253.00	-65.675	-37.398	
254.00	-66.907	-89.913	
255.00	-68.250	-116.656	
256.00	-68.415	-171.038	
257.00	-69.125	161.545	
258.00	-69.182	105.338	
259.00	-69.651	79.926	
260.00	-70.953	28.201	
261.00	-71.528	-23.780	
262.00	-71.975	-71.144	
263.00	-71.561	-124.453	
264.00	-69.648	-168.309	
265.00	-69.154	149.789	
266.00	-67.884	115.240	
267.00	-67.768	108.438	
268.00	-67.434	59.002	
269.00	-67.075	46.412	
270.00	-67.246	5.135	
271.00	-67.204	-28.862	
272.00	-67.465	-61.182	
273.00	-67.574	-92.999	
274.00	-66.672	-133.727	
275.00	-66.336	-161.664	
276.00	-65.841	154.400	
277.00	-64.895	126.301	
278.00	-64.757	90.511	
279.00	-64.318	55.946	
280.00	-64.281	23.045	
281.00	-64.504	-25.080	
282.00	-65.001	-43.041	
283.00	-65.226	-95.478	
284.00	-65.162	-119.318	
285.00	-65.713	-173.469	
286.00	-65.854	168.366	
287.00	-66.039	129.131	
288.00	-65.619	82.686	
289.00	-65.223	56.816	
290.00	-65.622	27.747	
291.00	-65.129	-6.399	
292.00	-65.362	-28.970	
293.00	-65.694	-78.272	
294.00	-65.701	-89.987	
295.00	-66.233	-144.058	
296.00	-66.562	-161.698	
297.00	-66.764	164.411	
298.00	-67.226	126.684	
299.00	-67.454	104.310	
300.00	-67.312	64.690	
301.00	-67.793	46.749	
302.00	-68.186	8.856	
303.00	-68.566	-17.453	
304.00	-69.706	-57.970	
305.00	-69.887	-90.464	
306.00	-69.836	-123.354	
307.00	-69.235	-155.963	
308.00	-68.502	175.688	
309.00	-68.240	141.375	
310.00	-68.206	111.641	
311.00	-68.630	88.312	
312.00	-68.856	61.678	
313.00	-69.972	31.700	
314.00	-69.630	-15.210	
315.00	-69.687	-33.615	
316.00	-69.943	-60.334	
317.00	-70.101	-96.559	
318.00	-70.287	-117.085	
319.00	-69.627	-147.279	
320.00	-71.512	-170.252	
321.00	-71.680	157.146	
322.00	-73.511	143.240	
323.00	-73.334	102.792	
324.00	-73.925	74.268	
325.00	-74.569	30.405	
326.00	-74.398	6.897	
327.00	-74.591	-21.639	
328.00	-73.182	-54.282	
329.00	-72.689	-79.376	
330.00	-72.360	-100.726	
331.00	-73.753	-137.474	
332.00	-72.670	-169.813	
333.00	-72.027	165.737	
334.00	-72.588	159.150	
335.00	-73.526	132.192	
336.00	-73.727	116.318	
337.00	-73.514	93.555	
338.00	-76.902	75.685	
339.00	-77.759	52.557	
340.00	-78.461	37.288	
341.00	-78.642	-18.698	
342.00	-77.246	-18.004	
343.00	-75.974	-55.572	
344.00	-74.339	-64.557	
345.00	-74.419	-77.810	
346.00	-75.786	-79.337	
347.00	-75.170	-91.092	
348.00	-77.367	-99.251	
349.00	-79.342	-105.663	
350.00	-84.596	-88.775	
351.00	-90.396	29.932	
352.00	-82.240	48.865	
353.00	-79.869	56.025	
354.00	-74.618	42.005	
355.00	-74.240	47.853	
356.00	-73.298	51.871	
357.00	-72.867	50.770	
358.00	-72.686	42.604	
359.00	-74.020	80.361	
Frequency	3950.00	MHz	
Channel	test		
Scan Axis name	Azimuth  [deg]		
Scan Axis	Amplitude	Phase	
			
0.00	-78.079	168.420	
1.00	-81.067	178.040	
2.00	-80.815	-132.499	
3.00	-82.274	-99.073	
4.00	-78.610	-72.909	
5.00	-77.196	-67.888	
6.00	-76.547	-40.649	
7.00	-75.551	-45.897	
8.00	-74.631	-24.614	
9.00	-73.953	-18.985	
10.00	-76.358	-3.482	
11.00	-75.266	7.457	
12.00	-77.635	32.257	
13.00	-76.911	48.939	
14.00	-79.806	77.579	
15.00	-79.003	113.031	
16.00	-77.766	148.002	
17.00	-75.532	170.896	
18.00	-75.436	-155.892	
19.00	-73.911	-140.176	
20.00	-73.160	-126.389	
21.00	-72.543	-102.403	
22.00	-73.225	-86.719	
23.00	-72.866	-66.222	
24.00	-71.817	-43.661	
25.00	-71.860	-24.030	
26.00	-71.964	1.066	
27.00	-70.948	33.027	
28.00	-71.488	51.937	
29.00	-70.892	81.949	
30.00	-70.501	101.448	
31.00	-70.843	123.528	
32.00	-70.110	139.800	
33.00	-70.193	170.359	
34.00	-70.796	176.957	
35.00	-70.675	-156.612	
36.00	-70.653	-129.250	
37.00	-71.468	-111.325	
38.00	-71.556	-73.862	
39.00	-72.063	-37.418	
40.00	-70.952	-5.071	
41.00	-70.780	25.379	
42.00	-70.310	58.244	
43.00	-70.143	83.785	
44.00	-69.760	119.976	
45.00	-69.790	156.627	
46.00	-69.457	-176.523	
47.00	-69.997	-154.444	
48.00	-70.622	-119.648	
49.00	-70.559	-95.893	
50.00	-69.725	-62.748	
51.00	-69.930	-32.952	
52.00	-69.310	-0.673	
53.00	-68.797	39.109	
54.00	-68.611	65.057	
55.00	-68.745	95.110	
56.00	-69.373	133.252	
57.00	-68.576	156.045	
58.00	-69.010	-153.784	
59.00	-68.678	-141.378	
60.00	-68.205	-95.511	
61.00	-67.873	-81.775	
62.00	-67.180	-26.200	
63.00	-67.485	-2.038	
64.00	-68.044	24.824	
65.00	-67.935	60.746	
66.00	-68.330	88.815	
67.00	-68.947	136.302	
68.00	-68.833	163.760	
69.00	-68.740	-165.112	
70.00	-68.617	-125.181	
71.00	-68.191	-106.442	
72.00	-67.956	-60.829	
73.00	-67.490	-38.592	
74.00	-67.252	4.933	
75.00	-66.721	27.193	
76.00	-66.809	71.766	
77.00	-66.364	93.907	
78.00	-66.693	125.000	
79.00	-66.265	170.967	
80.00	-65.908	-172.532	
81.00	-65.950	-125.810	
82.00	-65.742	-105.169	
83.00	-65.197	-68.755	
84.00	-65.085	-40.499	
85.00	-64.711	-5.698	
86.00	-64.672	28.001	
87.00	-64.787	54.171	
88.00	-64.459	81.648	
89.00	-64.157	116.613	
90.00	-63.830	138.741	
91.00	-64.014	171.945	
92.00	-63.594	-159.615	
93.00	-63.730	-125.464	
94.00	-63.051	-89.631	
95.00	-63.111	-69.925	
96.00	-62.842	-28.351	
97.00	-63.237	-11.433	
98.00	-62.593	30.087	
99.00	-62.632	46.615	
100.00	-62.718	89.206	
101.00	-62.846	112.035	
102.00	-62.941	151.500	
103.00	-62.721	176.045	
104.00	-62.924	-158.435	
105.00	-62.681	-125.290	
106.00	-62.572	-108.959	
107.00	-62.279	-75.882	
108.00	-62.334	-47.267	
109.00	-62.245	-18.136	
110.00	-62.034	8.394	
111.00	-61.999	30.903	
112.00	-62.459	56.657	
113.00	-62.294	87.282	
114.00	-62.492	102.026	
115.00	-62.685	136.099	
116.00	-62.879	155.567	
117.00	-63.167	-171.426	
118.00	-63.416	-143.009	
119.00	-63.891	-117.216	
120.00	-64.129	-89.313	
121.00	-64.274	-66.931	
122.00	-64.515	-31.457	
123.00	-65.009	-14.834	
124.00	-65.574	19.318	
125.00	-66.076	34.315	
126.00	-66.551	63.062	
127.00	-67.699	88.620	
128.00	-69.003	108.691	
129.00	-70.226	140.962	
130.00	-72.178	153.559	
131.00	-75.043	-171.482	
132.00	-77.271	-155.266	
133.00	-80.546	-115.313	
134.00	-87.993	-77.932	
135.00	-91.865	72.293	
136.00	-82.158	119.676	
137.00	-77.264	136.536	
138.00	-76.495	168.020	
139.00	-75.168	-169.779	
140.00	-73.387	-147.011	
141.00	-73.355	-116.961	
142.00	-72.256	-94.050	
143.00	-70.955	-74.377	
144.00	-70.432	-47.669	
145.00	-69.586	-22.797	
146.00	-68.922	3.097	
147.00	-68.379	25.150	
148.00	-67.629	47.673	
149.00	-67.242	63.829	
150.00	-67.326	80.797	
151.00	-66.495	96.967	
152.00	-66.820	119.143	
153.00	-66.758	138.504	
154.00	-67.017	151.369	
155.00	-68.506	173.677	
156.00	-69.720	-176.893	
157.00	-70.409	-148.053	
158.00	-73.107	-145.399	
159.00	-77.465	-111.408	
160.00	-89.248	-79.408	
161.00	-81.223	42.916	
162.00	-74.233	74.580	
163.00	-70.650	86.188	
164.00	-67.606	104.603	
165.00	-66.073	119.098	
166.00	-64.048	126.255	
167.00	-62.621	139.454	
168.00	-61.461	144.793	
169.00	-60.749	150.812	
170.00	-60.117	157.628	
171.00	-59.668	158.388	
172.00	-59.311	163.433	
173.00	-59.372	166.186	
174.00	-59.496	166.826	
175.00	-59.772	169.384	
176.00	-60.250	165.208	
177.00	-60.904	170.232	
178.00	-61.785	161.883	
179.00	-62.953	149.096	
180.00	-64.459	151.015	
181.00	-65.177	135.118	
182.00	-65.967	118.379	
183.00	-66.392	102.909	
184.00	-65.863	82.656	
185.00	-65.045	74.625	
186.00	-63.942	57.142	
187.00	-63.217	47.274	
188.00	-62.240	35.722	
189.00	-61.669	28.205	
190.00	-61.338	18.091	
191.00	-60.944	-0.008	
192.00	-60.786	0.654	
193.00	-61.042	-25.406	
194.00	-61.057	-26.772	
195.00	-61.823	-52.408	
196.00	-62.274	-63.544	
197.00	-63.081	-80.960	
198.00	-63.861	-97.893	
199.00	-64.517	-118.689	
200.00	-65.049	-135.602	
201.00	-65.959	-150.121	
202.00	-67.144	-169.174	
203.00	-67.385	172.909	
204.00	-68.826	159.690	
205.00	-68.911	137.696	
206.00	-69.283	117.151	
207.00	-69.488	87.984	
208.00	-69.673	66.790	
209.00	-70.199	37.223	
210.00	-70.762	22.951	
211.00	-70.503	-9.466	
212.00	-69.490	-30.541	
213.00	-68.814	-64.830	
214.00	-67.598	-81.748	
215.00	-66.644	-101.326	
216.00	-65.587	-123.510	
217.00	-64.224	-131.790	
218.00	-63.730	-169.964	
219.00	-62.360	177.723	
220.00	-61.632	161.168	
221.00	-60.928	148.261	
222.00	-59.969	123.203	
223.00	-59.121	102.185	
224.00	-58.437	80.842	
225.00	-57.857	60.684	
226.00	-57.238	40.765	
227.00	-56.781	26.987	
228.00	-56.200	-5.007	
229.00	-55.927	-19.880	
230.00	-55.707	-46.451	
231.00	-55.331	-67.466	
232.00	-55.292	-79.575	
233.00	-55.208	-115.117	
234.00	-55.331	-131.997	
235.00	-55.306	-166.900	
236.00	-55.377	-177.054	
237.00	-55.579	147.859	
238.00	-55.920	134.235	
239.00	-56.174	90.725	
240.00	-56.289	72.701	
241.00	-56.752	39.948	
242.00	-57.140	19.380	
243.00	-57.603	-14.495	
244.00	-58.003	-36.025	
245.00	-58.765	-78.025	
246.00	-59.272	-90.842	
247.00	-60.018	-137.421	
248.00	-60.667	-149.555	
249.00	-61.864	171.260	
250.00	-62.467	145.379	
251.00	-63.571	118.583	
252.00	-64.237	75.661	
253.00	-65.380	56.093	
254.00	-66.829	10.033	
255.00	-67.151	-21.234	
256.00	-68.810	-66.635	
257.00	-68.917	-93.768	
258.00	-70.322	-149.323	
259.00	-71.400	-179.321	
260.00	-72.141	132.806	
261.00	-72.703	74.246	
262.00	-73.193	40.872	
263.00	-73.852	-21.511	
264.00	-72.214	-63.128	
265.00	-71.413	-114.544	
266.00	-70.196	-147.228	
267.00	-69.802	-158.636	
268.00	-68.773	143.656	
269.00	-68.243	133.305	
270.00	-68.302	96.520	
271.00	-68.291	60.985	
272.00	-67.939	32.902	
273.00	-67.821	1.509	
274.00	-67.552	-35.655	
275.00	-67.425	-66.733	
276.00	-67.553	-114.528	
277.00	-67.313	-146.442	
278.00	-66.952	178.418	
279.00	-66.219	142.752	
280.00	-65.977	110.608	
281.00	-65.523	57.730	
282.00	-65.679	35.326	
283.00	-65.356	-14.030	
284.00	-65.924	-32.632	
285.00	-66.620	-86.269	
286.00	-66.373	-102.993	
287.00	-66.602	-141.305	
288.00	-67.263	171.421	
289.00	-66.993	143.766	
290.00	-67.180	104.577	
291.00	-66.703	75.195	
292.00	-66.688	43.213	
293.00	-66.176	-2.452	
294.00	-66.569	-16.202	
295.00	-66.082	-61.872	
296.00	-66.408	-85.095	
297.00	-66.707	-120.752	
298.00	-67.363	-155.587	
299.00	-67.344	-177.708	
300.00	-68.076	139.963	
301.00	-68.125	124.540	
302.00	-68.708	84.846	
303.00	-68.935	58.990	
304.00	-68.889	20.519	
305.00	-69.689	-11.832	
306.00	-69.098	-37.610	
307.00	-69.332	-75.320	
308.00	-69.489	-102.537	
309.00	-68.953	-138.351	
310.00	-69.754	-168.121	
311.00	-70.945	163.280	
312.00	-70.492	129.264	
313.00	-70.743	97.868	
314.00	-70.947	47.070	
315.00	-70.315	30.472	
316.00	-70.915	2.947	
317.00	-69.833	-28.442	
318.00	-70.347	-50.382	
319.00	-70.344	-78.590	
320.00	-70.572	-97.554	
321.00	-72.225	-126.057	
322.00	-74.078	-148.732	
323.00	-75.468	176.161	
324.00	-74.699	140.805	
325.00	-75.252	107.738	
326.00	-74.741	67.979	
327.00	-74.310	37.226	
328.00	-74.087	10.027	
329.00	-73.371	-11.618	
330.00	-72.495	-32.693	
331.00	-72.815	-62.545	
332.00	-72.357	-99.719	
333.00	-73.494	-118.859	
334.00	-73.553	-125.815	
335.00	-74.796	-152.151	
336.00	-75.483	-176.791	
337.00	-76.081	169.473	
338.00	-78.580	148.980	
339.00	-79.191	116.428	
340.00	-81.885	83.484	
341.00	-79.950	35.384	
342.00	-79.913	40.974	
343.00	-77.146	6.066	
344.00	-77.030	3.013	
345.00	-75.561	-16.818	
346.00	-76.168	-25.199	
347.00	-76.886	-35.495	
348.00	-79.621	-34.240	
349.00	-84.178	-39.616	
350.00	-94.317	-73.799	
351.00	-95.838	158.465	
352.00	-83.930	124.208	
353.00	-80.267	127.164	
354.00	-78.510	120.411	
355.00	-76.206	126.351	
356.00	-76.003	117.935	
357.00	-74.822	131.744	
358.00	-77.023	114.263	
359.00	-75.796	152.838	
Frequency	4000.00	MHz	
Channel	test		
Scan Axis name	Azimuth  [deg]		
Scan Axis	Amplitude	Phase	
			
0.00	-76.880	-108.600	
1.00	-79.630	-117.731	
2.00	-79.168	-82.688	
3.00	-82.270	-68.538	
4.00	-81.060	-44.340	
5.00	-81.734	-24.537	
6.00	-79.899	16.761	
7.00	-82.612	14.207	
8.00	-79.032	54.470	
9.00	-78.358	76.151	
10.00	-80.969	95.281	
11.00	-77.856	132.856	
12.00	-76.917	146.061	
13.00	-76.495	158.364	
14.00	-73.652	-178.240	
15.00	-74.998	-162.291	
16.00	-74.186	-147.662	
17.00	-73.791	-131.709	
18.00	-74.195	-107.982	
19.00	-73.928	-89.164	
20.00	-75.265	-59.982	
21.00	-75.051	-47.224	
22.00	-76.428	-12.130	
23.00	-75.317	5.846	
24.00	-75.230	38.697	
25.00	-74.479	73.434	
26.00	-74.677	82.629	
27.00	-74.547	119.548	
28.00	-73.962	136.440	
29.00	-72.885	164.181	
30.00	-72.678	-170.628	
31.00	-72.567	-151.374	
32.00	-71.184	-138.869	
33.00	-71.062	-107.234	
34.00	-71.681	-99.812	
35.00	-72.045	-69.108	
36.00	-73.401	-35.553	
37.00	-73.351	-16.392	
38.00	-72.451	15.609	
39.00	-72.858	44.262	
40.00	-72.354	90.687	
41.00	-71.559	119.589	
42.00	-70.708	145.923	
43.00	-70.097	178.217	
44.00	-70.171	-150.417	
45.00	-70.157	-110.133	
46.00	-69.943	-86.038	
47.00	-70.859	-60.264	
48.00	-71.002	-28.465	
49.00	-70.590	-1.430	
50.00	-70.240	44.121	
51.00	-69.817	64.085	
52.00	-68.890	104.108	
53.00	-68.695	139.193	
54.00	-67.794	168.218	
55.00	-67.853	-166.915	
56.00	-68.150	-128.833	
57.00	-67.679	-111.193	
58.00	-67.740	-58.906	
59.00	-67.699	-49.290	
60.00	-68.526	2.995	
61.00	-68.492	9.324	
62.00	-69.060	71.396	
63.00	-68.965	99.797	
64.00	-68.469	137.402	
65.00	-68.092	169.273	
66.00	-67.232	-160.372	
67.00	-68.318	-117.238	
68.00	-67.288	-93.495	
69.00	-67.480	-61.559	
70.00	-67.182	-24.421	
71.00	-68.069	-0.376	
72.00	-67.571	45.061	
73.00	-67.380	69.323	
74.00	-67.098	113.964	
75.00	-66.849	141.039	
76.00	-66.535	-177.738	
77.00	-65.722	-149.726	
78.00	-66.387	-125.123	
79.00	-65.845	-79.087	
80.00	-65.552	-65.977	
81.00	-66.261	-13.585	
82.00	-65.858	9.328	
83.00	-65.292	51.766	
84.00	-64.628	75.845	
85.00	-64.647	108.520	
86.00	-64.259	142.874	
87.00	-64.266	172.421	
88.00	-64.012	-161.225	
89.00	-64.071	-126.844	
90.00	-63.934	-104.547	
91.00	-64.029	-73.809	
92.00	-64.842	-39.054	
93.00	-64.202	-5.265	
94.00	-64.577	32.903	
95.00	-65.636	53.349	
96.00	-64.512	98.947	
97.00	-64.289	121.318	
98.00	-63.716	158.933	
99.00	-63.169	-179.793	
100.00	-63.423	-141.303	
101.00	-62.502	-117.129	
102.00	-63.592	-83.469	
103.00	-63.878	-59.595	
104.00	-63.377	-31.722	
105.00	-64.129	-3.614	
106.00	-64.217	23.548	
107.00	-64.727	51.473	
108.00	-64.637	80.919	
109.00	-65.345	112.288	
110.00	-64.787	137.079	
111.00	-65.178	159.989	
112.00	-64.568	178.908	
113.00	-64.521	-149.850	
114.00	-64.679	-137.380	
115.00	-64.426	-106.645	
116.00	-65.134	-90.975	
117.00	-65.071	-59.389	
118.00	-65.871	-32.759	
119.00	-65.750	-12.536	
120.00	-65.807	15.178	
121.00	-66.701	46.606	
122.00	-66.102	78.942	
123.00	-65.935	90.808	
124.00	-66.010	130.645	
125.00	-66.343	141.601	
126.00	-66.310	172.440	
127.00	-66.363	-165.229	
128.00	-67.300	-144.419	
129.00	-67.956	-111.108	
130.00	-69.439	-99.833	
131.00	-70.135	-68.952	
132.00	-72.409	-51.298	
133.00	-74.139	-11.322	
134.00	-75.732	18.711	
135.00	-79.443	61.300	
136.00	-77.886	112.046	
137.00	-75.981	163.587	
138.00	-76.975	-161.051	
139.00	-76.251	-133.228	
140.00	-73.102	-112.477	
141.00	-72.504	-84.314	
142.00	-72.512	-62.187	
143.00	-72.872	-37.065	
144.00	-71.838	-10.739	
145.00	-73.554	15.580	
146.00	-73.925	45.973	
147.00	-73.668	70.827	
148.00	-74.107	98.233	
149.00	-75.153	124.638	
150.00	-73.012	152.846	
151.00	-73.031	172.272	
152.00	-71.623	-154.860	
153.00	-71.522	-133.553	
154.00	-71.896	-113.740	
155.00	-70.605	-89.192	
156.00	-70.730	-85.573	
157.00	-71.265	-52.254	
158.00	-71.443	-52.596	
159.00	-73.913	-33.358	
160.00	-76.560	-30.063	
161.00	-84.016	-68.555	
162.00	-83.048	-125.854	
163.00	-74.463	-134.207	
164.00	-69.738	-133.722	
165.00	-66.689	-123.034	
166.00	-64.560	-118.752	
167.00	-62.623	-108.764	
168.00	-60.860	-104.290	
169.00	-59.718	-100.334	
170.00	-58.739	-95.538	
171.00	-58.036	-92.853	
172.00	-57.152	-90.881	
173.00	-56.904	-88.690	
174.00	-56.480	-88.488	
175.00	-56.485	-85.699	
176.00	-56.497	-88.731	
177.00	-56.615	-83.296	
178.00	-56.969	-91.214	
179.00	-57.660	-101.061	
180.00	-58.281	-96.910	
181.00	-59.145	-106.232	
182.00	-59.996	-113.961	
183.00	-60.825	-120.718	
184.00	-61.544	-135.811	
185.00	-61.947	-141.125	
186.00	-62.127	-162.798	
187.00	-61.756	-176.943	
188.00	-61.347	167.514	
189.00	-60.778	156.771	
190.00	-60.290	142.069	
191.00	-59.910	125.138	
192.00	-59.749	121.581	
193.00	-59.543	96.472	
194.00	-59.568	94.834	
195.00	-59.692	71.314	
196.00	-60.033	61.730	
197.00	-60.446	46.508	
198.00	-61.103	34.283	
199.00	-62.117	17.972	
200.00	-63.005	4.978	
201.00	-63.918	-4.810	
202.00	-65.019	-15.637	
203.00	-66.379	-24.935	
204.00	-67.579	-29.329	
205.00	-68.881	-48.229	
206.00	-70.765	-54.771	
207.00	-72.258	-79.743	
208.00	-75.109	-83.970	
209.00	-76.055	-98.192	
210.00	-78.170	-92.972	
211.00	-82.373	-85.387	
212.00	-85.508	-76.801	
213.00	-79.414	-43.080	
214.00	-76.593	-27.496	
215.00	-72.393	-35.037	
216.00	-70.788	-47.888	
217.00	-68.547	-52.050	
218.00	-66.561	-87.761	
219.00	-65.294	-93.448	
220.00	-64.006	-105.110	
221.00	-62.859	-116.605	
222.00	-61.877	-137.142	
223.00	-60.925	-157.276	
224.00	-60.270	-178.527	
225.00	-59.658	162.202	
226.00	-58.744	141.690	
227.00	-58.376	126.227	
228.00	-57.872	92.599	
229.00	-57.304	77.297	
230.00	-56.692	48.813	
231.00	-56.216	28.027	
232.00	-55.883	12.768	
233.00	-55.599	-21.475	
234.00	-55.320	-38.326	
235.00	-55.362	-73.277	
236.00	-55.396	-83.037	
237.00	-55.642	-119.263	
238.00	-55.652	-133.308	
239.00	-56.038	-178.121	
240.00	-56.245	164.159	
241.00	-56.631	129.542	
242.00	-56.936	109.440	
243.00	-57.327	72.270	
244.00	-57.716	50.718	
245.00	-57.936	9.023	
246.00	-58.469	-5.494	
247.00	-58.974	-52.035	
248.00	-59.252	-63.494	
249.00	-60.254	-101.817	
250.00	-60.685	-126.334	
251.00	-62.044	-154.050	
252.00	-62.548	163.774	
253.00	-63.693	141.691	
254.00	-64.457	93.728	
255.00	-65.488	62.822	
256.00	-65.397	15.588	
257.00	-65.570	-11.311	
258.00	-65.564	-63.761	
259.00	-66.053	-89.496	
260.00	-66.912	-135.685	
261.00	-67.006	-179.694	
262.00	-68.109	149.050	
263.00	-69.373	98.389	
264.00	-69.998	57.985	
265.00	-70.006	3.428	
266.00	-69.593	-35.338	
267.00	-69.477	-52.715	
268.00	-68.914	-107.636	
269.00	-68.297	-121.538	
270.00	-68.368	-161.187	
271.00	-68.164	169.086	
272.00	-68.389	138.571	
273.00	-68.843	106.062	
274.00	-68.867	68.442	
275.00	-69.078	31.655	
276.00	-69.261	-13.969	
277.00	-68.593	-48.667	
278.00	-68.539	-91.209	
279.00	-68.313	-128.715	
280.00	-68.175	-165.686	
281.00	-67.403	143.935	
282.00	-67.240	119.647	
283.00	-67.495	64.532	
284.00	-67.151	38.714	
285.00	-66.772	-11.494	
286.00	-66.901	-33.534	
287.00	-66.825	-65.600	
288.00	-67.463	-110.179	
289.00	-67.272	-137.335	
290.00	-67.849	-175.705	
291.00	-67.588	151.711	
292.00	-67.997	118.805	
293.00	-68.067	72.618	
294.00	-67.768	58.189	
295.00	-67.863	3.477	
296.00	-67.009	-19.402	
297.00	-66.807	-58.064	
298.00	-66.645	-88.297	
299.00	-66.436	-112.722	
300.00	-66.559	-153.749	
301.00	-67.130	-167.440	
302.00	-67.617	161.686	
303.00	-67.469	138.203	
304.00	-68.765	103.055	
305.00	-70.107	65.892	
306.00	-70.734	33.045	
307.00	-70.562	-2.876	
308.00	-70.061	-33.992	
309.00	-70.071	-75.473	
310.00	-69.977	-106.662	
311.00	-70.447	-134.891	
312.00	-70.325	-161.374	
313.00	-71.592	171.295	
314.00	-71.384	120.185	
315.00	-71.979	102.762	
316.00	-72.492	71.879	
317.00	-72.176	30.107	
318.00	-72.009	10.591	
319.00	-71.455	-33.976	
320.00	-72.483	-56.045	
321.00	-72.250	-86.054	
322.00	-72.707	-99.554	
323.00	-73.469	-138.919	
324.00	-72.982	-167.006	
325.00	-73.666	163.981	
326.00	-73.562	131.984	
327.00	-73.917	109.840	
328.00	-74.359	69.020	
329.00	-73.821	43.826	
330.00	-73.683	20.741	
331.00	-73.659	-15.681	
332.00	-73.650	-56.229	
333.00	-72.635	-82.073	
334.00	-72.997	-89.676	
335.00	-73.261	-116.349	
336.00	-73.599	-135.491	
337.00	-75.510	-157.674	
338.00	-76.578	-169.722	
339.00	-78.202	166.753	
340.00	-77.240	147.316	
341.00	-78.141	105.194	
342.00	-76.453	107.080	
343.00	-75.934	71.619	
344.00	-76.385	63.448	
345.00	-76.078	40.340	
346.00	-78.004	35.656	
347.00	-79.298	17.665	
348.00	-81.173	11.022	
349.00	-85.706	-17.146	
350.00	-94.280	-37.647	
351.00	-88.153	-105.384	
352.00	-85.524	-150.417	
353.00	-81.622	-147.156	
354.00	-78.664	-154.781	
355.00	-77.410	-160.243	
356.00	-76.085	-164.454	
357.00	-76.867	-153.386	
358.00	-76.463	-163.118	
359.00	-76.711	-126.945	
Frequency	4050.00	MHz	
Channel	test		
Scan Axis name	Azimuth  [deg]		
Scan Axis	Amplitude	Phase	
			
0.00	-77.515	-2.204	
1.00	-77.257	3.155	
2.00	-76.408	25.799	
3.00	-77.387	26.883	
4.00	-75.724	47.706	
5.00	-76.661	68.105	
6.00	-76.306	83.684	
7.00	-75.761	103.069	
8.00	-77.974	121.648	
9.00	-76.344	134.663	
10.00	-77.890	168.198	
11.00	-77.098	-163.673	
12.00	-76.346	-146.964	
13.00	-75.330	-132.388	
14.00	-75.421	-115.165	
15.00	-74.855	-94.433	
16.00	-76.980	-82.112	
17.00	-78.474	-47.333	
18.00	-77.394	-20.963	
19.00	-76.835	1.717	
20.00	-75.867	39.946	
21.00	-74.911	59.971	
22.00	-74.194	90.468	
23.00	-73.629	98.079	
24.00	-72.741	126.232	
25.00	-72.840	142.482	
26.00	-73.062	171.441	
27.00	-73.062	-165.690	
28.00	-73.971	-142.367	
29.00	-72.592	-102.629	
30.00	-72.562	-79.236	
31.00	-71.449	-55.665	
32.00	-70.965	-39.614	
33.00	-70.587	-9.217	
34.00	-70.944	2.053	
35.00	-70.235	25.042	
36.00	-70.479	50.822	
37.00	-69.835	72.683	
38.00	-70.087	101.994	
39.00	-70.479	138.042	
40.00	-70.355	169.346	
41.00	-70.299	-158.177	
42.00	-70.376	-119.199	
43.00	-69.783	-92.160	
44.00	-69.646	-52.969	
45.00	-69.221	-17.397	
46.00	-68.271	12.820	
47.00	-68.374	30.192	
48.00	-68.027	61.218	
49.00	-67.519	83.550	
50.00	-67.617	118.401	
51.00	-67.982	145.602	
52.00	-68.246	-178.071	
53.00	-68.435	-137.973	
54.00	-68.706	-106.476	
55.00	-67.983	-76.379	
56.00	-68.061	-33.821	
57.00	-66.776	-15.118	
58.00	-66.473	36.412	
59.00	-66.487	43.876	
60.00	-66.684	91.054	
61.00	-66.541	105.519	
62.00	-67.178	163.294	
63.00	-66.791	-176.976	
64.00	-67.774	-134.353	
65.00	-67.548	-100.987	
66.00	-67.184	-64.202	
67.00	-66.257	-22.986	
68.00	-66.311	2.501	
69.00	-66.471	34.849	
70.00	-65.592	71.858	
71.00	-65.188	93.111	
72.00	-65.039	132.469	
73.00	-65.308	158.995	
74.00	-65.172	-154.851	
75.00	-65.382	-135.514	
76.00	-65.564	-88.445	
77.00	-65.257	-59.712	
78.00	-65.001	-35.491	
79.00	-64.810	16.874	
80.00	-64.354	28.561	
81.00	-64.242	78.848	
82.00	-63.542	97.166	
83.00	-63.638	134.901	
84.00	-63.411	163.565	
85.00	-63.847	-162.262	
86.00	-63.972	-132.930	
87.00	-63.804	-98.706	
88.00	-64.042	-71.911	
89.00	-63.705	-29.393	
90.00	-63.923	-7.468	
91.00	-63.233	29.804	
92.00	-62.702	56.305	
93.00	-62.634	93.346	
94.00	-62.572	127.370	
95.00	-62.939	149.153	
96.00	-62.901	-167.657	
97.00	-62.800	-148.073	
98.00	-62.864	-106.641	
99.00	-63.003	-88.832	
100.00	-62.791	-42.788	
101.00	-62.875	-20.277	
102.00	-62.531	21.803	
103.00	-62.773	43.285	
104.00	-62.813	68.647	
105.00	-63.009	101.551	
106.00	-63.031	117.128	
107.00	-63.458	149.599	
108.00	-64.032	174.993	
109.00	-64.239	-157.886	
110.00	-64.891	-131.962	
111.00	-65.350	-107.832	
112.00	-66.420	-81.411	
113.00	-66.263	-51.233	
114.00	-66.678	-38.097	
115.00	-66.873	-7.154	
116.00	-66.917	10.625	
117.00	-66.584	41.124	
118.00	-66.697	64.449	
119.00	-66.477	86.351	
120.00	-66.437	106.868	
121.00	-65.992	125.798	
122.00	-66.666	149.973	
123.00	-66.282	163.764	
124.00	-66.707	-162.615	
125.00	-66.679	-153.450	
126.00	-67.375	-129.789	
127.00	-67.669	-106.667	
128.00	-68.273	-88.699	
129.00	-68.802	-56.233	
130.00	-69.641	-39.890	
131.00	-71.143	-14.786	
132.00	-71.658	-4.114	
133.00	-73.518	25.761	
134.00	-74.236	33.141	
135.00	-75.806	46.632	
136.00	-75.631	48.873	
137.00	-74.400	49.203	
138.00	-73.708	58.913	
139.00	-72.366	71.377	
140.00	-71.071	71.292	
141.00	-69.953	93.036	
142.00	-68.125	107.052	
143.00	-68.204	123.750	
144.00	-67.296	145.562	
145.00	-66.980	164.321	
146.00	-66.309	-175.133	
147.00	-65.464	-155.791	
148.00	-64.963	-136.033	
149.00	-64.413	-115.274	
150.00	-63.708	-97.532	
151.00	-63.058	-82.852	
152.00	-62.922	-61.833	
153.00	-62.240	-47.273	
154.00	-61.519	-33.610	
155.00	-61.430	-10.118	
156.00	-61.457	-6.561	
157.00	-61.299	19.334	
158.00	-61.221	18.258	
159.00	-61.475	33.887	
160.00	-62.168	37.248	
161.00	-62.636	45.913	
162.00	-62.993	47.148	
163.00	-63.494	48.530	
164.00	-63.744	44.732	
165.00	-63.225	42.118	
166.00	-62.685	35.936	
167.00	-61.814	35.482	
168.00	-60.593	32.390	
169.00	-59.563	30.827	
170.00	-58.675	31.345	
171.00	-57.833	29.272	
172.00	-57.395	28.773	
173.00	-56.882	28.973	
174.00	-56.558	28.571	
175.00	-56.435	30.688	
176.00	-56.434	26.334	
177.00	-56.560	30.946	
178.00	-57.137	23.875	
179.00	-57.556	14.480	
180.00	-58.331	22.045	
181.00	-59.157	12.794	
182.00	-60.293	8.541	
183.00	-61.785	3.437	
184.00	-63.310	-9.537	
185.00	-64.875	-12.649	
186.00	-66.231	-39.557	
187.00	-66.230	-62.078	
188.00	-66.123	-85.035	
189.00	-64.803	-103.318	
190.00	-63.921	-117.078	
191.00	-62.998	-137.459	
192.00	-62.186	-137.602	
193.00	-61.579	-164.298	
194.00	-61.073	-162.754	
195.00	-61.092	172.742	
196.00	-61.259	167.069	
197.00	-61.492	153.625	
198.00	-62.007	142.620	
199.00	-62.216	130.335	
200.00	-62.645	121.995	
201.00	-62.882	115.746	
202.00	-63.401	109.769	
203.00	-63.837	107.132	
204.00	-63.824	103.515	
205.00	-64.650	94.434	
206.00	-64.946	91.521	
207.00	-65.752	73.872	
208.00	-66.707	68.891	
209.00	-66.983	58.475	
210.00	-67.362	49.729	
211.00	-69.080	37.375	
212.00	-69.946	33.030	
213.00	-72.580	20.290	
214.00	-73.230	28.602	
215.00	-72.094	42.302	
216.00	-70.828	52.356	
217.00	-68.672	52.985	
218.00	-66.784	25.022	
219.00	-64.771	22.296	
220.00	-63.211	8.993	
221.00	-62.176	-1.672	
222.00	-60.731	-23.761	
223.00	-59.717	-43.780	
224.00	-58.820	-65.014	
225.00	-58.062	-87.259	
226.00	-57.450	-105.956	
227.00	-56.903	-123.207	
228.00	-56.509	-157.649	
229.00	-55.828	-173.501	
230.00	-55.434	157.812	
231.00	-55.004	135.636	
232.00	-54.642	121.251	
233.00	-54.467	85.639	
234.00	-54.336	67.316	
235.00	-54.328	33.000	
236.00	-54.291	21.819	
237.00	-54.480	-15.758	
238.00	-54.726	-30.044	
239.00	-54.958	-77.157	
240.00	-55.320	-94.464	
241.00	-55.526	-130.839	
242.00	-55.779	-152.791	
243.00	-56.020	170.947	
244.00	-56.213	149.401	
245.00	-56.608	105.688	
246.00	-57.044	93.594	
247.00	-57.450	45.000	
248.00	-57.972	34.889	
249.00	-58.918	-7.450	
250.00	-59.364	-32.419	
251.00	-60.345	-62.067	
252.00	-60.832	-103.756	
253.00	-61.386	-126.788	
254.00	-61.543	-174.042	
255.00	-61.914	160.644	
256.00	-62.267	115.115	
257.00	-62.818	89.684	
258.00	-63.390	39.128	
259.00	-63.898	13.762	
260.00	-65.306	-35.430	
261.00	-65.340	-77.834	
262.00	-65.951	-114.983	
263.00	-66.440	-159.857	
264.00	-66.868	164.808	
265.00	-67.148	112.491	
266.00	-67.225	82.707	
267.00	-67.776	67.053	
268.00	-68.264	11.855	
269.00	-69.109	-6.368	
270.00	-69.463	-50.044	
271.00	-69.681	-96.054	
272.00	-69.307	-122.927	
273.00	-69.170	-162.144	
274.00	-68.575	161.365	
275.00	-67.667	128.744	
276.00	-67.900	87.566	
277.00	-68.573	54.282	
278.00	-69.073	15.994	
279.00	-69.555	-24.450	
280.00	-70.533	-68.267	
281.00	-69.881	-127.962	
282.00	-69.357	-155.180	
283.00	-67.652	147.041	
284.00	-67.336	124.723	
285.00	-66.831	74.130	
286.00	-66.955	58.133	
287.00	-67.106	24.458	
288.00	-68.134	-17.247	
289.00	-68.584	-38.570	
290.00	-69.408	-86.138	
291.00	-69.374	-121.523	
292.00	-69.600	-157.626	
293.00	-69.487	150.392	
294.00	-68.545	132.395	
295.00	-68.592	85.961	
296.00	-68.582	62.188	
297.00	-68.229	30.045	
298.00	-68.612	-8.448	
299.00	-68.715	-30.901	
300.00	-68.969	-77.888	
301.00	-68.842	-96.408	
302.00	-69.287	-135.791	
303.00	-69.422	-159.115	
304.00	-69.637	163.912	
305.00	-69.631	128.161	
306.00	-69.984	105.487	
307.00	-69.509	69.420	
308.00	-70.601	44.754	
309.00	-71.302	5.141	
310.00	-71.477	-27.717	
311.00	-72.376	-64.894	
312.00	-72.421	-99.490	
313.00	-72.712	-136.388	
314.00	-71.546	172.202	
315.00	-71.617	156.092	
316.00	-71.053	131.664	
317.00	-70.796	105.747	
318.00	-71.313	82.976	
319.00	-72.066	53.343	
320.00	-73.595	30.215	
321.00	-75.789	-3.293	
322.00	-76.082	-29.866	
323.00	-77.645	-79.625	
324.00	-77.126	-121.227	
325.00	-76.360	-149.188	
326.00	-75.954	179.293	
327.00	-75.339	148.515	
328.00	-73.927	125.655	
329.00	-73.634	103.191	
330.00	-73.515	86.550	
331.00	-74.945	49.789	
332.00	-75.329	23.414	
333.00	-76.058	-6.075	
334.00	-77.553	-8.280	
335.00	-79.062	-44.109	
336.00	-80.304	-54.756	
337.00	-81.869	-115.980	
338.00	-83.032	-129.327	
339.00	-80.766	-177.561	
340.00	-78.308	171.680	
341.00	-77.350	135.412	
342.00	-75.606	148.233	
343.00	-73.728	124.592	
344.00	-75.492	115.228	
345.00	-75.321	98.389	
346.00	-77.240	101.470	
347.00	-78.588	100.324	
348.00	-82.176	108.996	
349.00	-84.127	92.445	
350.00	-90.744	174.391	
351.00	-87.779	-109.929	
352.00	-84.520	-109.143	
353.00	-82.420	-99.671	
354.00	-84.811	-123.041	
355.00	-82.857	-99.702	
356.00	-80.661	-81.409	
357.00	-79.833	-67.885	
358.00	-81.519	-71.978	
359.00	-79.036	-25.798	
Frequency	4100.00	MHz	
Channel	test		
Scan Axis name	Azimuth  [deg]		
Scan Axis	Amplitude	Phase	
			
0.00	-85.623	68.365	
1.00	-84.934	71.695	
2.00	-84.281	112.032	
3.00	-80.676	136.692	
4.00	-78.591	139.445	
5.00	-79.833	174.451	
6.00	-78.487	179.218	
7.00	-78.115	-158.354	
8.00	-77.015	-131.924	
9.00	-74.298	-119.559	
10.00	-75.044	-103.595	
11.00	-73.267	-84.189	
12.00	-72.876	-73.224	
13.00	-71.764	-55.912	
14.00	-72.930	-45.559	
15.00	-72.495	-32.932	
16.00	-74.504	-14.030	
17.00	-74.909	-9.652	
18.00	-77.161	15.678	
19.00	-77.647	46.639	
20.00	-81.115	99.621	
21.00	-77.647	137.766	
22.00	-76.789	165.939	
23.00	-76.031	-170.012	
24.00	-73.917	-153.427	
25.00	-72.503	-136.778	
26.00	-72.847	-111.442	
27.00	-73.355	-84.306	
28.00	-72.105	-68.329	
29.00	-72.974	-46.172	
30.00	-72.086	-10.072	
31.00	-72.369	1.681	
32.00	-72.270	24.321	
33.00	-72.280	57.017	
34.00	-72.427	78.509	
35.00	-72.113	103.942	
36.00	-72.717	130.150	
37.00	-71.576	158.539	
38.00	-70.959	-168.240	
39.00	-70.486	-137.131	
40.00	-71.315	-106.816	
41.00	-69.875	-78.419	
42.00	-69.419	-40.886	
43.00	-69.347	-19.895	
44.00	-69.902	19.514	
45.00	-69.750	57.612	
46.00	-70.061	83.104	
47.00	-69.709	103.004	
48.00	-69.224	136.379	
49.00	-68.586	159.028	
50.00	-68.197	-161.604	
51.00	-68.263	-135.147	
52.00	-69.239	-99.431	
53.00	-68.607	-62.353	
54.00	-68.971	-24.186	
55.00	-69.197	-0.768	
56.00	-69.373	40.112	
57.00	-69.545	61.974	
58.00	-68.466	117.721	
59.00	-68.883	128.486	
60.00	-67.396	-178.099	
61.00	-67.257	-159.619	
62.00	-67.175	-108.534	
63.00	-66.514	-87.024	
64.00	-66.906	-58.456	
65.00	-67.312	-22.486	
66.00	-67.323	3.669	
67.00	-67.708	50.501	
68.00	-67.826	78.903	
69.00	-67.679	116.364	
70.00	-67.502	160.269	
71.00	-66.855	-178.030	
72.00	-65.661	-136.942	
73.00	-65.227	-112.723	
74.00	-64.719	-72.687	
75.00	-64.754	-51.202	
76.00	-64.759	-10.520	
77.00	-64.371	13.042	
78.00	-64.905	40.013	
79.00	-65.090	92.296	
80.00	-64.588	107.364	
81.00	-64.235	162.551	
82.00	-64.321	177.132	
83.00	-63.343	-138.199	
84.00	-63.082	-107.864	
85.00	-62.776	-77.649	
86.00	-62.350	-47.606	
87.00	-62.697	-13.936	
88.00	-62.481	14.415	
89.00	-62.044	55.826	
90.00	-62.213	76.326	
91.00	-61.696	115.754	
92.00	-61.230	141.412	
93.00	-60.678	-176.175	
94.00	-60.240	-144.386	
95.00	-60.139	-118.530	
96.00	-59.683	-78.214	
97.00	-59.530	-55.459	
98.00	-59.407	-16.827	
99.00	-59.762	-0.013	
100.00	-59.460	48.604	
101.00	-59.026	71.431	
102.00	-59.403	114.002	
103.00	-59.222	141.861	
104.00	-59.081	167.722	
105.00	-59.072	-156.798	
106.00	-58.657	-140.406	
107.00	-58.621	-105.851	
108.00	-58.955	-77.182	
109.00	-58.792	-44.435	
110.00	-58.771	-16.641	
111.00	-59.096	8.336	
112.00	-59.380	38.026	
113.00	-59.534	68.739	
114.00	-59.902	84.613	
115.00	-60.081	121.314	
116.00	-59.973	142.101	
117.00	-60.383	-178.190	
118.00	-60.256	-153.762	
119.00	-61.135	-133.134	
120.00	-60.950	-104.140	
121.00	-61.275	-84.732	
122.00	-61.611	-52.106	
123.00	-61.820	-37.339	
124.00	-62.470	-0.899	
125.00	-62.753	8.793	
126.00	-63.134	35.960	
127.00	-63.495	58.851	
128.00	-63.570	82.249	
129.00	-63.779	115.195	
130.00	-64.158	127.291	
131.00	-63.835	153.582	
132.00	-64.461	167.211	
133.00	-64.361	-163.562	
134.00	-64.620	-143.222	
135.00	-65.000	-124.074	
136.00	-65.336	-108.251	
137.00	-65.618	-88.869	
138.00	-65.589	-72.762	
139.00	-65.897	-60.698	
140.00	-66.150	-44.892	
141.00	-65.990	-31.751	
142.00	-67.032	-19.176	
143.00	-66.910	-6.723	
144.00	-66.465	2.225	
145.00	-66.220	14.141	
146.00	-65.690	26.277	
147.00	-64.281	35.488	
148.00	-64.104	48.595	
149.00	-63.333	56.237	
150.00	-62.177	67.599	
151.00	-61.497	77.127	
152.00	-60.506	88.769	
153.00	-59.846	101.848	
154.00	-59.420	112.842	
155.00	-58.904	131.398	
156.00	-58.846	132.616	
157.00	-58.353	157.108	
158.00	-58.367	156.415	
159.00	-58.585	174.020	
160.00	-58.849	178.085	
161.00	-59.129	-170.619	
162.00	-59.791	-162.289	
163.00	-60.669	-156.178	
164.00	-61.657	-152.927	
165.00	-62.701	-147.320	
166.00	-64.073	-152.594	
167.00	-65.379	-153.407	
168.00	-66.137	-172.384	
169.00	-66.373	176.067	
170.00	-65.721	162.493	
171.00	-64.330	152.155	
172.00	-62.911	147.365	
173.00	-61.997	143.209	
174.00	-60.934	139.568	
175.00	-60.466	141.117	
176.00	-60.377	136.776	
177.00	-60.064	142.755	
178.00	-60.180	133.003	
179.00	-60.528	126.223	
180.00	-61.305	134.030	
181.00	-62.047	128.577	
182.00	-63.812	127.031	
183.00	-65.456	124.083	
184.00	-68.043	114.299	
185.00	-70.663	109.301	
186.00	-75.328	67.152	
187.00	-74.397	21.577	
188.00	-70.454	-15.119	
189.00	-67.691	-27.976	
190.00	-66.265	-41.657	
191.00	-64.717	-56.218	
192.00	-63.081	-55.418	
193.00	-62.323	-75.481	
194.00	-62.020	-75.237	
195.00	-61.733	-96.233	
196.00	-61.446	-98.351	
197.00	-61.392	-112.282	
198.00	-61.655	-117.221	
199.00	-61.939	-129.988	
200.00	-62.268	-136.428	
201.00	-62.375	-139.615	
202.00	-62.697	-142.572	
203.00	-62.975	-146.190	
204.00	-62.943	-148.997	
205.00	-63.549	-159.243	
206.00	-63.563	-165.096	
207.00	-64.068	175.446	
208.00	-64.416	172.781	
209.00	-65.009	156.673	
210.00	-65.701	148.989	
211.00	-66.523	129.452	
212.00	-67.853	121.955	
213.00	-68.887	103.351	
214.00	-71.543	93.249	
215.00	-74.008	94.583	
216.00	-76.104	100.479	
217.00	-76.012	126.355	
218.00	-73.092	119.786	
219.00	-69.441	122.246	
220.00	-67.046	112.254	
221.00	-64.771	99.571	
222.00	-63.249	78.966	
223.00	-61.445	57.709	
224.00	-60.245	37.640	
225.00	-59.274	15.457	
226.00	-57.944	-1.008	
227.00	-57.263	-18.282	
228.00	-56.769	-50.109	
229.00	-56.051	-64.437	
230.00	-56.002	-93.749	
231.00	-55.615	-115.724	
232.00	-55.584	-132.673	
233.00	-55.383	-167.941	
234.00	-55.356	171.340	
235.00	-55.367	134.588	
236.00	-55.199	122.645	
237.00	-55.309	83.050	
238.00	-55.301	68.356	
239.00	-55.409	19.943	
240.00	-55.220	4.507	
241.00	-55.408	-32.088	
242.00	-55.755	-52.176	
243.00	-55.913	-87.712	
244.00	-56.223	-109.300	
245.00	-56.883	-153.038	
246.00	-57.269	-165.471	
247.00	-58.109	143.903	
248.00	-58.332	133.988	
249.00	-59.393	88.978	
250.00	-59.326	66.495	
251.00	-60.274	33.511	
252.00	-60.324	-5.756	
253.00	-61.050	-28.296	
254.00	-61.424	-70.142	
255.00	-62.269	-96.484	
256.00	-63.116	-141.021	
257.00	-63.807	-168.272	
258.00	-64.657	137.732	
259.00	-65.317	108.160	
260.00	-66.197	50.836	
261.00	-65.771	9.443	
262.00	-65.793	-25.931	
263.00	-66.053	-67.044	
264.00	-66.390	-100.887	
265.00	-67.128	-147.520	
266.00	-68.185	-174.325	
267.00	-69.013	166.942	
268.00	-70.396	106.604	
269.00	-70.329	84.107	
270.00	-70.724	36.005	
271.00	-69.614	-4.680	
272.00	-69.020	-32.776	
273.00	-69.056	-63.554	
274.00	-68.861	-95.179	
275.00	-69.962	-130.218	
276.00	-70.703	179.262	
277.00	-71.703	151.568	
278.00	-71.522	103.716	
279.00	-70.559	55.160	
280.00	-70.906	18.476	
281.00	-70.274	-39.067	
282.00	-70.087	-61.671	
283.00	-69.793	-113.364	
284.00	-70.765	-141.420	
285.00	-71.141	157.666	
286.00	-70.312	140.584	
287.00	-71.575	97.831	
288.00	-71.477	44.982	
289.00	-69.952	24.406	
290.00	-70.462	-21.972	
291.00	-69.867	-47.187	
292.00	-69.124	-82.298	
293.00	-69.306	-125.597	
294.00	-70.110	-136.077	
295.00	-70.826	169.894	
296.00	-71.755	140.316	
297.00	-72.524	98.840	
298.00	-73.002	51.783	
299.00	-72.170	28.992	
300.00	-70.607	-19.950	
301.00	-70.084	-37.376	
302.00	-69.950	-74.912	
303.00	-70.037	-93.652	
304.00	-71.037	-128.176	
305.00	-71.575	-154.843	
306.00	-72.104	176.107	
307.00	-73.085	128.233	
308.00	-73.439	103.795	
309.00	-73.410	53.647	
310.00	-72.414	18.749	
311.00	-72.715	-8.650	
312.00	-72.372	-40.631	
313.00	-72.103	-71.449	
314.00	-72.627	-118.467	
315.00	-72.897	-130.436	
316.00	-74.141	-159.323	
317.00	-75.568	161.241	
318.00	-75.326	130.103	
319.00	-76.236	98.391	
320.00	-76.031	57.236	
321.00	-75.183	25.682	
322.00	-74.384	-11.750	
323.00	-73.652	-36.513	
324.00	-72.718	-59.003	
325.00	-72.590	-80.679	
326.00	-73.237	-103.006	
327.00	-73.603	-126.324	
328.00	-74.502	-156.804	
329.00	-75.299	178.385	
330.00	-76.397	160.598	
331.00	-76.649	110.942	
332.00	-79.446	61.240	
333.00	-77.440	36.898	
334.00	-78.338	23.537	
335.00	-77.203	-17.843	
336.00	-76.540	-39.977	
337.00	-76.406	-64.062	
338.00	-77.421	-84.386	
339.00	-76.409	-96.266	
340.00	-76.514	-113.692	
341.00	-77.053	-140.070	
342.00	-78.084	-141.617	
343.00	-77.645	-155.868	
344.00	-79.569	-155.963	
345.00	-82.675	178.609	
346.00	-84.689	-147.768	
347.00	-92.527	-106.837	
348.00	-83.926	-58.731	
349.00	-80.123	-56.262	
350.00	-79.310	-45.944	
351.00	-78.202	-47.968	
352.00	-76.141	-54.387	
353.00	-76.220	-49.002	
354.00	-75.740	-53.506	
355.00	-76.187	-45.189	
356.00	-76.093	-51.476	
357.00	-79.379	-29.245	
358.00	-81.017	-30.012	
359.00	-84.203	-2.012	
Frequency	4150.00	MHz	
Channel	test		
Scan Axis name	Azimuth  [deg]		
Scan Axis	Amplitude	Phase	
			
0.00	-79.564	143.877	
1.00	-77.245	162.217	
2.00	-74.832	-175.824	
3.00	-74.249	-170.114	
4.00	-74.874	-157.272	
5.00	-74.814	-147.832	
6.00	-76.570	-127.531	
7.00	-75.744	-117.253	
8.00	-77.372	-88.423	
9.00	-78.499	-57.437	
10.00	-77.074	-23.802	
11.00	-77.623	-10.005	
12.00	-75.383	8.684	
13.00	-75.166	29.051	
14.00	-74.446	50.063	
15.00	-73.983	60.705	
16.00	-74.280	81.685	
17.00	-73.794	102.129	
18.00	-74.167	120.356	
19.00	-74.437	152.884	
20.00	-73.711	175.741	
21.00	-73.239	-159.946	
22.00	-73.628	-136.758	
23.00	-74.252	-120.688	
24.00	-74.673	-90.139	
25.00	-73.715	-81.748	
26.00	-74.782	-43.338	
27.00	-75.102	-4.576	
28.00	-74.361	18.022	
29.00	-73.887	59.511	
30.00	-71.645	80.044	
31.00	-71.207	100.015	
32.00	-70.597	117.866	
33.00	-70.225	146.006	
34.00	-70.081	155.800	
35.00	-70.302	-179.488	
36.00	-71.549	-155.851	
37.00	-70.806	-131.756	
38.00	-72.131	-99.218	
39.00	-72.601	-59.567	
40.00	-71.429	-20.280	
41.00	-70.575	11.067	
42.00	-69.343	46.241	
43.00	-69.194	75.226	
44.00	-68.745	103.918	
45.00	-69.038	138.488	
46.00	-68.836	160.980	
47.00	-69.477	179.776	
48.00	-69.995	-139.410	
49.00	-69.204	-117.478	
50.00	-70.229	-77.254	
51.00	-71.206	-44.693	
52.00	-70.178	-3.483	
53.00	-69.745	35.332	
54.00	-69.073	68.828	
55.00	-68.629	99.834	
56.00	-68.661	135.131	
57.00	-68.757	155.834	
58.00	-67.884	-157.536	
59.00	-68.333	-145.156	
60.00	-68.659	-91.430	
61.00	-68.733	-78.074	
62.00	-68.303	-17.117	
63.00	-68.408	5.958	
64.00	-68.421	46.901	
65.00	-68.302	75.951	
66.00	-67.711	109.192	
67.00	-67.731	156.659	
68.00	-67.287	176.699	
69.00	-67.444	-148.308	
70.00	-67.504	-111.833	
71.00	-67.305	-83.237	
72.00	-67.394	-43.706	
73.00	-66.268	-20.954	
74.00	-66.138	25.827	
75.00	-65.687	49.900	
76.00	-65.605	89.440	
77.00	-65.372	115.354	
78.00	-65.280	141.458	
79.00	-65.434	-166.297	
80.00	-65.197	-152.856	
81.00	-65.112	-92.865	
82.00	-64.626	-75.608	
83.00	-64.720	-31.529	
84.00	-64.062	-1.990	
85.00	-63.876	35.274	
86.00	-63.233	65.373	
87.00	-62.647	99.521	
88.00	-61.909	125.718	
89.00	-61.880	161.914	
90.00	-61.399	-177.660	
91.00	-61.265	-137.395	
92.00	-61.220	-110.990	
93.00	-60.747	-70.492	
94.00	-60.477	-35.116	
95.00	-59.974	-11.046	
96.00	-59.642	32.560	
97.00	-59.321	54.780	
98.00	-58.869	96.219	
99.00	-58.773	112.771	
100.00	-58.648	159.930	
101.00	-58.478	-176.779	
102.00	-58.346	-133.367	
103.00	-58.250	-106.169	
104.00	-58.228	-78.756	
105.00	-57.794	-41.786	
106.00	-57.577	-22.778	
107.00	-57.243	12.531	
108.00	-56.929	42.647	
109.00	-56.809	74.067	
110.00	-56.727	101.764	
111.00	-56.579	125.126	
112.00	-56.798	156.686	
113.00	-56.780	-173.670	
114.00	-56.960	-155.403	
115.00	-57.108	-118.624	
116.00	-57.169	-97.287	
117.00	-57.193	-58.491	
118.00	-57.277	-31.553	
119.00	-57.207	-4.317	
120.00	-57.306	23.863	
121.00	-57.279	46.149	
122.00	-57.422	77.287	
123.00	-57.577	94.661	
124.00	-57.651	130.734	
125.00	-58.068	145.103	
126.00	-58.042	171.149	
127.00	-58.218	-163.843	
128.00	-58.709	-141.347	
129.00	-58.827	-108.675	
130.00	-59.141	-94.885	
131.00	-59.540	-65.861	
132.00	-59.265	-52.587	
133.00	-59.440	-21.866	
134.00	-59.602	-4.621	
135.00	-59.712	20.897	
136.00	-59.903	38.570	
137.00	-60.020	62.230	
138.00	-60.125	81.375	
139.00	-60.482	98.008	
140.00	-61.089	117.015	
141.00	-61.311	131.572	
142.00	-61.690	147.659	
143.00	-62.220	161.388	
144.00	-62.805	175.865	
145.00	-63.096	-173.597	
146.00	-63.649	-161.365	
147.00	-64.006	-153.477	
148.00	-64.208	-147.798	
149.00	-64.176	-138.995	
150.00	-63.583	-136.242	
151.00	-63.619	-133.778	
152.00	-62.808	-123.710	
153.00	-62.176	-114.883	
154.00	-61.820	-106.877	
155.00	-61.573	-88.047	
156.00	-61.303	-88.845	
157.00	-61.182	-61.832	
158.00	-61.050	-63.657	
159.00	-61.246	-47.113	
160.00	-61.550	-40.947	
161.00	-62.167	-29.377	
162.00	-63.094	-19.490	
163.00	-64.304	-13.151	
164.00	-66.101	-6.206	
165.00	-67.991	-1.594	
166.00	-71.811	-4.188	
167.00	-75.276	-23.452	
168.00	-75.349	-71.598	
169.00	-71.279	-91.129	
170.00	-68.830	-102.018	
171.00	-65.702	-106.047	
172.00	-64.083	-106.996	
173.00	-62.594	-105.796	
174.00	-61.930	-106.169	
175.00	-61.125	-101.466	
176.00	-61.027	-107.003	
177.00	-61.136	-100.067	
178.00	-61.250	-107.665	
179.00	-61.493	-114.471	
180.00	-62.314	-105.186	
181.00	-63.667	-116.881	
182.00	-65.282	-118.642	
183.00	-67.340	-123.745	
184.00	-70.338	-143.854	
185.00	-72.824	-158.625	
186.00	-72.210	147.986	
187.00	-69.575	120.791	
188.00	-67.200	99.229	
189.00	-65.432	92.036	
190.00	-63.828	76.186	
191.00	-62.424	64.218	
192.00	-61.309	62.034	
193.00	-60.883	40.762	
194.00	-60.153	40.066	
195.00	-59.765	17.319	
196.00	-59.635	12.691	
197.00	-59.525	-2.044	
198.00	-59.784	-11.324	
199.00	-59.917	-25.919	
200.00	-60.318	-34.786	
201.00	-60.688	-42.778	
202.00	-61.017	-49.220	
203.00	-61.653	-52.555	
204.00	-62.159	-58.673	
205.00	-62.652	-70.612	
206.00	-63.246	-77.983	
207.00	-63.344	-96.468	
208.00	-64.074	-101.074	
209.00	-64.562	-116.105	
210.00	-65.514	-127.564	
211.00	-66.201	-146.077	
212.00	-67.174	-155.390	
213.00	-68.155	-177.231	
214.00	-70.816	174.964	
215.00	-72.466	165.778	
216.00	-75.401	151.097	
217.00	-79.040	-169.557	
218.00	-75.799	-170.706	
219.00	-72.636	-161.527	
220.00	-69.127	-157.119	
221.00	-66.267	-165.896	
222.00	-64.333	172.678	
223.00	-62.127	153.094	
224.00	-60.632	135.673	
225.00	-59.483	114.772	
226.00	-58.462	98.612	
227.00	-57.631	82.182	
228.00	-57.061	48.369	
229.00	-56.251	34.550	
230.00	-56.044	4.236	
231.00	-55.537	-15.766	
232.00	-55.312	-33.157	
233.00	-55.201	-68.926	
234.00	-54.930	-89.394	
235.00	-54.776	-125.961	
236.00	-54.635	-137.079	
237.00	-54.628	-176.779	
238.00	-54.695	169.788	
239.00	-54.812	123.103	
240.00	-54.825	107.693	
241.00	-55.189	70.934	
242.00	-55.489	50.542	
243.00	-55.815	13.255	
244.00	-56.075	-7.731	
245.00	-56.551	-52.606	
246.00	-56.849	-65.169	
247.00	-57.341	-116.970	
248.00	-57.566	-126.286	
249.00	-58.330	-170.103	
250.00	-58.324	170.655	
251.00	-59.411	138.396	
252.00	-59.698	100.511	
253.00	-60.868	79.072	
254.00	-61.595	35.336	
255.00	-62.407	8.575	
256.00	-63.156	-36.520	
257.00	-64.483	-66.173	
258.00	-65.016	-118.813	
259.00	-65.367	-150.023	
260.00	-66.379	159.685	
261.00	-66.654	115.615	
262.00	-67.537	79.453	
263.00	-67.685	38.313	
264.00	-68.043	-3.628	
265.00	-69.071	-52.171	
266.00	-69.564	-79.715	
267.00	-69.982	-107.602	
268.00	-70.982	-157.924	
269.00	-71.598	-177.188	
270.00	-71.891	130.631	
271.00	-72.922	91.727	
272.00	-72.597	56.629	
273.00	-72.501	23.728	
274.00	-72.367	-21.877	
275.00	-71.776	-60.295	
276.00	-71.223	-111.348	
277.00	-69.595	-141.525	
278.00	-70.015	177.993	
279.00	-69.125	141.377	
280.00	-69.407	106.313	
281.00	-70.142	55.994	
282.00	-71.263	32.884	
283.00	-70.771	-29.131	
284.00	-71.429	-59.964	
285.00	-71.423	-126.947	
286.00	-70.742	-145.635	
287.00	-69.954	172.443	
288.00	-69.974	124.263	
289.00	-69.132	106.758	
290.00	-68.685	60.347	
291.00	-69.462	39.935	
292.00	-70.247	5.536	
293.00	-70.364	-41.548	
294.00	-71.028	-59.881	
295.00	-70.234	-113.480	
296.00	-70.684	-141.184	
297.00	-70.759	176.397	
298.00	-70.147	142.152	
299.00	-70.514	119.161	
300.00	-71.538	72.996	
301.00	-71.439	58.880	
302.00	-72.290	13.923	
303.00	-73.510	-14.425	
304.00	-72.470	-59.058	
305.00	-72.032	-92.539	
306.00	-72.043	-125.928	
307.00	-71.429	-160.166	
308.00	-71.673	168.846	
309.00	-70.871	141.134	
310.00	-71.919	110.353	
311.00	-72.417	75.973	
312.00	-73.736	52.287	
313.00	-75.175	10.398	
314.00	-75.265	-42.374	
315.00	-75.159	-74.365	
316.00	-74.889	-104.170	
317.00	-75.359	-141.971	
318.00	-73.730	-174.825	
319.00	-73.295	154.120	
320.00	-73.426	132.585	
321.00	-74.519	101.863	
322.00	-73.796	81.869	
323.00	-73.419	36.856	
324.00	-73.225	20.776	
325.00	-74.452	-17.717	
326.00	-73.965	-46.983	
327.00	-74.005	-71.600	
328.00	-73.869	-101.810	
329.00	-73.299	-131.970	
330.00	-74.666	-151.002	
331.00	-75.338	173.206	
332.00	-74.011	144.398	
333.00	-74.975	135.875	
334.00	-75.171	119.282	
335.00	-77.476	94.420	
336.00	-79.643	68.004	
337.00	-82.073	54.504	
338.00	-86.340	15.117	
339.00	-84.869	-23.018	
340.00	-83.402	-67.806	
341.00	-81.138	-114.059	
342.00	-80.953	-89.085	
343.00	-80.512	-131.684	
344.00	-80.677	-128.535	
345.00	-83.386	-149.153	
346.00	-84.609	-165.636	
347.00	-85.584	153.261	
348.00	-87.929	93.171	
349.00	-83.204	71.174	
350.00	-80.178	59.281	
351.00	-80.415	57.877	
352.00	-79.658	44.822	
353.00	-78.299	38.629	
354.00	-78.007	28.285	
355.00	-81.482	56.399	
356.00	-79.721	49.891	
357.00	-81.380	74.365	
358.00	-82.917	79.057	
359.00	-78.428	132.271	
Frequency	4200.00	MHz	
Channel	test		
Scan Axis name	Azimuth  [deg]		
Scan Axis	Amplitude	Phase	
			
0.00	-81.004	-157.068	
1.00	-80.534	-148.023	
2.00	-76.850	-113.200	
3.00	-79.128	-122.886	
4.00	-73.693	-98.002	
5.00	-75.550	-85.269	
6.00	-74.849	-78.124	
7.00	-76.142	-69.230	
8.00	-77.734	-41.167	
9.00	-78.266	-11.717	
10.00	-77.503	9.000	
11.00	-76.631	38.970	
12.00	-76.863	59.514	
13.00	-74.930	77.957	
14.00	-74.403	90.735	
15.00	-74.712	108.391	
16.00	-74.363	129.627	
17.00	-75.236	148.557	
18.00	-78.671	175.173	
19.00	-76.750	-155.347	
20.00	-77.727	-123.816	
21.00	-76.813	-105.472	
22.00	-77.838	-77.779	
23.00	-75.481	-41.357	
24.00	-75.840	-23.547	
25.00	-74.854	9.844	
26.00	-74.594	27.065	
27.00	-74.333	55.046	
28.00	-73.905	92.650	
29.00	-74.149	102.292	
30.00	-74.359	132.132	
31.00	-72.754	157.899	
32.00	-71.961	179.898	
33.00	-73.336	-157.225	
34.00	-72.490	-134.995	
35.00	-73.451	-111.406	
36.00	-73.035	-81.360	
37.00	-71.757	-55.721	
38.00	-72.311	-19.840	
39.00	-71.838	12.510	
40.00	-73.538	48.508	
41.00	-70.656	75.094	
42.00	-70.952	111.675	
43.00	-71.700	135.158	
44.00	-72.137	172.624	
45.00	-71.786	-147.872	
46.00	-71.881	-117.684	
47.00	-72.512	-92.048	
48.00	-72.942	-57.126	
49.00	-72.969	-36.228	
50.00	-73.205	12.477	
51.00	-72.061	42.085	
52.00	-72.060	76.223	
53.00	-71.811	120.274	
54.00	-72.025	157.325	
55.00	-71.296	-177.649	
56.00	-70.964	-133.204	
57.00	-71.656	-112.746	
58.00	-71.135	-57.741	
59.00	-70.951	-46.404	
60.00	-70.504	4.531	
61.00	-70.485	22.573	
62.00	-70.094	81.202	
63.00	-70.188	107.370	
64.00	-70.432	147.613	
65.00	-69.745	174.713	
66.00	-69.954	-147.600	
67.00	-69.443	-103.234	
68.00	-68.639	-75.664	
69.00	-69.431	-40.636	
70.00	-68.678	-8.302	
71.00	-67.851	15.319	
72.00	-68.028	52.531	
73.00	-68.321	81.036	
74.00	-68.362	121.194	
75.00	-68.289	147.696	
76.00	-68.321	-168.480	
77.00	-69.357	-134.560	
78.00	-68.552	-103.399	
79.00	-67.926	-52.088	
80.00	-67.595	-40.381	
81.00	-66.908	16.413	
82.00	-66.654	29.780	
83.00	-65.877	74.877	
84.00	-66.070	100.283	
85.00	-65.941	142.103	
86.00	-65.504	167.361	
87.00	-64.677	-158.307	
88.00	-64.354	-128.097	
89.00	-64.646	-90.813	
90.00	-64.133	-69.397	
91.00	-63.323	-28.627	
92.00	-62.996	-1.558	
93.00	-63.207	39.184	
94.00	-61.722	70.235	
95.00	-61.693	95.987	
96.00	-61.760	135.611	
97.00	-61.762	158.361	
98.00	-60.896	-156.189	
99.00	-60.810	-135.178	
100.00	-60.308	-87.877	
101.00	-59.695	-64.131	
102.00	-59.367	-21.538	
103.00	-58.504	4.270	
104.00	-58.641	29.271	
105.00	-58.281	66.169	
106.00	-58.028	83.722	
107.00	-57.833	119.797	
108.00	-57.846	149.289	
109.00	-57.645	-178.911	
110.00	-57.209	-148.827	
111.00	-57.013	-121.502	
112.00	-57.275	-90.913	
113.00	-56.676	-61.958	
114.00	-56.695	-42.708	
115.00	-56.512	-6.790	
116.00	-56.365	15.833	
117.00	-56.304	52.676	
118.00	-56.356	79.078	
119.00	-56.728	104.045	
120.00	-56.370	132.940	
121.00	-56.622	156.590	
122.00	-56.770	-171.987	
123.00	-56.688	-153.498	
124.00	-57.068	-115.055	
125.00	-56.958	-101.162	
126.00	-57.042	-72.525	
127.00	-56.953	-46.714	
128.00	-56.946	-26.451	
129.00	-57.022	5.287	
130.00	-56.993	16.156	
131.00	-56.747	44.927	
132.00	-57.028	57.826	
133.00	-57.303	86.954	
134.00	-57.387	104.810	
135.00	-57.563	129.774	
136.00	-58.039	146.116	
137.00	-58.444	172.130	
138.00	-58.701	-168.744	
139.00	-59.242	-148.773	
140.00	-59.430	-126.124	
141.00	-59.905	-110.437	
142.00	-60.297	-91.396	
143.00	-61.090	-75.492	
144.00	-61.244	-57.206	
145.00	-62.074	-41.249	
146.00	-62.641	-22.961	
147.00	-62.985	-13.799	
148.00	-63.828	-4.265	
149.00	-64.779	3.276	
150.00	-65.517	3.683	
151.00	-65.770	5.810	
152.00	-65.242	11.760	
153.00	-65.123	15.299	
154.00	-64.444	20.005	
155.00	-64.056	37.380	
156.00	-63.151	32.361	
157.00	-62.426	59.737	
158.00	-62.116	55.654	
159.00	-61.876	73.458	
160.00	-61.368	74.609	
161.00	-61.950	87.178	
162.00	-61.972	97.659	
163.00	-62.615	105.511	
164.00	-63.536	112.317	
165.00	-64.441	120.430	
166.00	-66.596	117.895	
167.00	-68.641	116.823	
168.00	-71.927	105.661	
169.00	-72.663	74.909	
170.00	-71.394	40.656	
171.00	-68.673	30.033	
172.00	-65.696	22.498	
173.00	-63.833	19.811	
174.00	-62.196	17.229	
175.00	-61.103	21.281	
176.00	-60.280	15.422	
177.00	-59.970	24.268	
178.00	-59.406	14.860	
179.00	-59.427	9.200	
180.00	-59.503	17.401	
181.00	-59.861	9.831	
182.00	-60.751	12.174	
183.00	-61.313	9.622	
184.00	-62.873	4.960	
185.00	-64.509	6.358	
186.00	-66.433	-7.160	
187.00	-68.713	-15.502	
188.00	-73.465	-34.822	
189.00	-74.596	-86.524	
190.00	-73.633	-133.898	
191.00	-70.414	-168.794	
192.00	-67.274	-168.659	
193.00	-65.620	164.926	
194.00	-63.986	161.096	
195.00	-63.182	135.409	
196.00	-62.195	129.157	
197.00	-61.630	112.345	
198.00	-61.524	103.018	
199.00	-61.100	84.534	
200.00	-60.798	79.211	
201.00	-60.645	70.630	
202.00	-60.588	61.289	
203.00	-60.594	58.450	
204.00	-60.539	51.184	
205.00	-60.575	36.871	
206.00	-60.841	31.321	
207.00	-60.945	10.089	
208.00	-61.377	5.676	
209.00	-61.819	-12.396	
210.00	-62.182	-22.777	
211.00	-62.661	-44.159	
212.00	-63.454	-53.189	
213.00	-64.377	-78.952	
214.00	-64.868	-87.742	
215.00	-66.411	-108.223	
216.00	-67.436	-118.356	
217.00	-69.052	-130.756	
218.00	-70.208	-167.991	
219.00	-72.544	-165.744	
220.00	-75.049	-158.303	
221.00	-75.040	-146.724	
222.00	-72.681	-139.184	
223.00	-69.635	-148.250	
224.00	-67.167	-159.891	
225.00	-65.185	-176.707	
226.00	-63.465	168.954	
227.00	-61.669	153.331	
228.00	-60.377	122.994	
229.00	-59.303	109.860	
230.00	-58.596	81.670	
231.00	-57.629	64.752	
232.00	-57.425	46.686	
233.00	-57.012	13.131	
234.00	-56.903	-7.331	
235.00	-56.573	-42.889	
236.00	-56.546	-54.586	
237.00	-56.496	-94.673	
238.00	-56.443	-108.593	
239.00	-56.413	-157.195	
240.00	-56.413	-172.157	
241.00	-56.558	150.416	
242.00	-56.557	131.284	
243.00	-56.928	94.594	
244.00	-57.232	73.192	
245.00	-57.664	29.304	
246.00	-57.799	17.308	
247.00	-58.700	-34.789	
248.00	-58.967	-41.909	
249.00	-59.828	-88.995	
250.00	-59.910	-108.986	
251.00	-60.919	-145.149	
252.00	-61.353	179.445	
253.00	-62.018	155.017	
254.00	-62.383	113.145	
255.00	-63.104	84.818	
256.00	-63.933	42.468	
257.00	-64.472	16.519	
258.00	-65.626	-33.804	
259.00	-67.013	-64.168	
260.00	-68.000	-118.100	
261.00	-68.409	-164.102	
262.00	-68.301	154.573	
263.00	-69.238	110.957	
264.00	-69.079	67.757	
265.00	-69.472	23.458	
266.00	-69.824	-4.555	
267.00	-71.522	-25.611	
268.00	-72.931	-75.843	
269.00	-72.809	-102.527	
270.00	-73.697	-159.584	
271.00	-73.394	163.375	
272.00	-72.887	127.188	
273.00	-73.458	91.829	
274.00	-72.499	58.619	
275.00	-73.498	15.956	
276.00	-72.844	-32.533	
277.00	-72.866	-66.476	
278.00	-72.049	-117.556	
279.00	-71.964	-157.811	
280.00	-70.725	163.275	
281.00	-69.633	112.290	
282.00	-70.614	86.678	
283.00	-69.586	34.708	
284.00	-71.061	8.012	
285.00	-71.083	-52.493	
286.00	-71.018	-68.831	
287.00	-71.103	-113.180	
288.00	-70.951	-162.119	
289.00	-70.762	173.816	
290.00	-70.241	124.545	
291.00	-69.795	103.379	
292.00	-69.651	61.147	
293.00	-68.968	24.146	
294.00	-69.474	5.656	
295.00	-70.150	-44.790	
296.00	-70.889	-65.950	
297.00	-70.867	-109.429	
298.00	-71.070	-148.451	
299.00	-71.449	-173.398	
300.00	-71.234	137.860	
301.00	-72.087	114.781	
302.00	-72.599	77.131	
303.00	-71.783	55.671	
304.00	-72.684	16.269	
305.00	-73.094	-22.010	
306.00	-73.606	-57.350	
307.00	-73.745	-91.218	
308.00	-73.594	-131.362	
309.00	-72.603	-174.212	
310.00	-72.653	166.851	
311.00	-71.788	132.569	
312.00	-72.179	103.554	
313.00	-73.449	74.915	
314.00	-74.448	28.224	
315.00	-75.723	7.546	
316.00	-76.581	-37.006	
317.00	-76.375	-82.089	
318.00	-75.671	-102.389	
319.00	-76.331	-151.490	
320.00	-76.318	-177.879	
321.00	-74.558	149.972	
322.00	-74.385	124.690	
323.00	-72.805	95.917	
324.00	-72.905	62.311	
325.00	-73.232	36.829	
326.00	-72.801	13.997	
327.00	-72.425	-5.046	
328.00	-73.487	-33.587	
329.00	-74.137	-57.962	
330.00	-74.084	-75.403	
331.00	-76.437	-116.274	
332.00	-76.075	-152.751	
333.00	-79.106	-170.634	
334.00	-77.970	168.198	
335.00	-80.457	139.100	
336.00	-82.525	102.903	
337.00	-85.737	71.348	
338.00	-83.008	58.156	
339.00	-82.933	24.125	
340.00	-82.372	2.132	
341.00	-82.464	-19.971	
342.00	-82.133	-19.998	
343.00	-85.072	-62.298	
344.00	-87.107	-65.805	
345.00	-87.953	-137.493	
346.00	-89.987	-154.502	
347.00	-90.348	151.561	
348.00	-83.410	109.444	
349.00	-77.904	107.657	
350.00	-77.326	91.280	
351.00	-75.715	89.990	
352.00	-74.426	78.902	
353.00	-76.033	82.541	
354.00	-74.250	73.583	
355.00	-75.807	72.937	
356.00	-79.203	78.083	
357.00	-81.799	92.059	
358.00	-81.594	96.161	
359.00	-84.438	167.655	
