Test Title:	Alpha Wireless Indoor Range						
Date:	21/03/2018						
Time:	12:39						
Operator Name:	FL						
Comment:	Radome height is 74mm 

No wings						
Caib. File Name:	C:\Program Files\Midas 2.01d\Calibration Files\test sigma 180900.cal						
							
[Scan Axis] Name: 	Azimuth  [deg]Start: 	0.000000	Stop	359.000000	Increment	1.000000[Step Axis] Name: 	Start: 	0.000000	Stop	0.000000	Increment	0.000000[Tert] Name: 	None [Forth] Name: 	None  [ Freq.]  (List) 	MHz.	3400.000000	3450.000000	3500.000000	3550.000000	3600.000000	3650.000000	3700.000000	3750.000000	3800.000000	3850.000000	3900.000000	3950.000000	4000.000000	4050.000000	4100.000000	4150.000000	4200.000000
 [Switch]  	None [Channel]  	test			 [ Beam] 	None			
Database:			
First Question			
2nd			
3rd			
4th			
			
Frequency	3400.00	MHz	
Channel	test		
Scan Axis name	Azimuth  [deg]		
Scan Axis	Amplitude	Phase	
			
0.00	-77.580	-65.402	
1.00	-75.476	-55.973	
2.00	-75.971	-40.582	
3.00	-73.434	-36.103	
4.00	-73.106	-28.079	
5.00	-73.489	-20.077	
6.00	-71.521	-16.294	
7.00	-71.423	-14.909	
8.00	-72.047	-6.838	
9.00	-71.794	-2.487	
10.00	-72.359	-1.523	
11.00	-74.278	3.457	
12.00	-74.534	26.213	
13.00	-77.768	17.350	
14.00	-82.332	35.595	
15.00	-88.165	28.330	
16.00	-92.023	173.781	
17.00	-86.886	-128.770	
18.00	-79.580	-136.084	
19.00	-77.270	-118.727	
20.00	-75.095	-112.779	
21.00	-74.023	-97.711	
22.00	-72.280	-89.568	
23.00	-72.226	-73.920	
24.00	-71.265	-66.020	
25.00	-71.377	-49.872	
26.00	-71.557	-40.178	
27.00	-72.081	-21.788	
28.00	-72.540	-8.740	
29.00	-74.123	13.179	
30.00	-74.742	41.221	
31.00	-76.065	72.178	
32.00	-78.365	98.090	
33.00	-76.675	147.952	
34.00	-76.357	171.365	
35.00	-73.013	-157.697	
36.00	-71.384	-139.808	
37.00	-70.046	-114.708	
38.00	-69.395	-99.543	
39.00	-67.878	-78.215	
40.00	-67.605	-63.961	
41.00	-67.601	-43.783	
42.00	-67.635	-31.082	
43.00	-68.247	-11.435	
44.00	-68.961	13.265	
45.00	-70.115	32.105	
46.00	-71.350	56.684	
47.00	-72.675	84.669	
48.00	-74.483	116.996	
49.00	-74.814	146.593	
50.00	-75.160	-176.134	
51.00	-73.876	-143.538	
52.00	-72.537	-113.794	
53.00	-71.281	-82.999	
54.00	-71.023	-65.223	
55.00	-70.908	-48.098	
56.00	-71.018	-23.380	
57.00	-70.931	-8.473	
58.00	-71.793	18.636	
59.00	-72.113	41.579	
60.00	-73.674	61.951	
61.00	-74.162	81.935	
62.00	-75.472	129.151	
63.00	-76.185	142.223	
64.00	-74.933	-160.846	
65.00	-73.445	-141.229	
66.00	-73.442	-116.188	
67.00	-73.234	-97.165	
68.00	-72.212	-70.402	
69.00	-72.157	-74.253	
70.00	-71.764	-69.055	
71.00	-71.563	-57.804	
72.00	-71.594	-37.328	
73.00	-71.931	-19.023	
74.00	-71.615	-13.688	
75.00	-71.992	14.063	
76.00	-71.699	34.926	
77.00	-71.015	71.849	
78.00	-70.804	87.434	
79.00	-69.540	131.844	
80.00	-68.614	148.159	
81.00	-66.871	159.875	
82.00	-65.738	-163.678	
83.00	-64.663	-154.860	
84.00	-63.454	-113.432	
85.00	-62.719	-103.683	
86.00	-62.820	-46.656	
87.00	-61.839	-33.627	
88.00	-62.058	11.888	
89.00	-61.226	41.338	
90.00	-61.180	71.443	
91.00	-59.821	113.890	
92.00	-58.923	120.646	
93.00	-57.728	172.295	
94.00	-56.950	177.740	
95.00	-55.982	-139.801	
96.00	-55.053	-132.332	
97.00	-54.443	-90.137	
98.00	-53.688	-82.765	
99.00	-53.279	-47.043	
100.00	-52.683	-19.626	
101.00	-52.277	2.825	
102.00	-51.876	37.088	
103.00	-51.441	50.377	
104.00	-50.885	79.466	
105.00	-50.435	96.020	
106.00	-49.815	126.271	
107.00	-49.309	146.620	
108.00	-48.741	171.070	
109.00	-48.229	-164.841	
110.00	-47.729	-140.814	
111.00	-47.243	-122.327	
112.00	-46.725	-95.936	
113.00	-46.366	-73.932	
114.00	-45.956	-45.944	
115.00	-45.551	-37.451	
116.00	-45.196	-18.712	
117.00	-44.860	-4.484	
118.00	-44.501	4.022	
119.00	-44.181	21.941	
120.00	-43.896	32.661	
121.00	-43.588	51.379	
122.00	-43.300	75.629	
123.00	-42.941	101.245	
124.00	-42.668	114.932	
125.00	-42.344	129.244	
126.00	-42.014	156.757	
127.00	-41.668	173.341	
128.00	-41.375	-159.589	
129.00	-41.028	-135.274	
130.00	-40.775	-111.009	
131.00	-40.447	-85.347	
132.00	-40.214	-78.498	
133.00	-39.972	-68.142	
134.00	-39.743	-74.646	
135.00	-39.573	-49.431	
136.00	-39.311	-43.058	
137.00	-39.114	-31.498	
138.00	-38.935	-17.356	
139.00	-38.705	4.345	
140.00	-38.535	9.137	
141.00	-38.347	38.650	
142.00	-38.108	33.265	
143.00	-37.984	55.929	
144.00	-37.742	64.454	
145.00	-37.589	61.329	
146.00	-37.326	84.780	
147.00	-37.163	80.096	
148.00	-36.938	98.174	
149.00	-36.763	88.968	
150.00	-36.596	97.100	
151.00	-36.427	101.958	
152.00	-36.277	102.215	
153.00	-36.129	109.723	
154.00	-35.993	114.320	
155.00	-35.851	127.228	
156.00	-35.745	130.915	
157.00	-35.669	131.071	
158.00	-35.581	135.314	
159.00	-35.517	136.571	
160.00	-35.453	149.334	
161.00	-35.387	169.277	
162.00	-35.363	164.397	
163.00	-35.384	-177.703	
164.00	-35.327	-170.581	
165.00	-35.355	-166.703	
166.00	-35.284	-155.943	
167.00	-35.281	-171.960	
168.00	-35.274	-160.984	
169.00	-35.274	-159.894	
170.00	-35.264	-152.452	
171.00	-35.278	-159.643	
172.00	-35.286	-163.594	
173.00	-35.255	-139.879	
174.00	-35.299	-161.608	
175.00	-35.264	-147.407	
176.00	-35.268	-164.863	
177.00	-35.177	-163.895	
178.00	-35.161	-174.630	
179.00	-35.146	-164.189	
180.00	-35.168	162.658	
181.00	-35.185	-175.941	
182.00	-35.167	-179.032	
183.00	-35.135	169.645	
184.00	-35.131	-174.523	
185.00	-35.262	156.687	
186.00	-35.271	159.238	
187.00	-35.277	165.785	
188.00	-35.309	157.294	
189.00	-35.371	160.421	
190.00	-35.458	145.174	
191.00	-35.541	127.277	
192.00	-35.622	128.781	
193.00	-35.751	112.037	
194.00	-35.816	102.065	
195.00	-35.987	89.153	
196.00	-36.107	41.753	
197.00	-36.192	49.411	
198.00	-36.277	36.629	
199.00	-36.419	15.474	
200.00	-36.431	6.433	
201.00	-36.548	-21.380	
202.00	-36.616	-14.503	
203.00	-36.779	-29.602	
204.00	-36.691	-64.916	
205.00	-36.744	-73.051	
206.00	-36.854	-79.929	
207.00	-36.932	-113.415	
208.00	-36.952	-122.034	
209.00	-37.011	-116.887	
210.00	-37.135	-153.514	
211.00	-37.188	-147.587	
212.00	-37.406	165.705	
213.00	-37.428	-178.822	
214.00	-37.938	136.984	
215.00	-37.671	116.582	
216.00	-37.932	101.894	
217.00	-37.861	78.393	
218.00	-38.105	63.846	
219.00	-38.175	47.393	
220.00	-38.440	19.641	
221.00	-38.561	14.995	
222.00	-38.860	-19.453	
223.00	-38.964	-28.776	
224.00	-39.252	-60.642	
225.00	-39.463	-57.515	
226.00	-39.818	-84.050	
227.00	-39.957	-107.364	
228.00	-40.427	-128.907	
229.00	-40.600	-164.705	
230.00	-40.949	-164.160	
231.00	-41.289	168.786	
232.00	-41.679	154.173	
233.00	-42.025	129.393	
234.00	-42.494	110.994	
235.00	-42.841	84.855	
236.00	-43.308	62.190	
237.00	-43.714	44.025	
238.00	-44.185	17.268	
239.00	-44.493	-11.371	
240.00	-44.989	-24.940	
241.00	-45.459	-61.931	
242.00	-45.835	-75.692	
243.00	-46.629	-103.633	
244.00	-46.834	-137.927	
245.00	-47.538	-141.409	
246.00	-47.924	175.420	
247.00	-48.570	170.867	
248.00	-49.059	122.147	
249.00	-49.679	111.089	
250.00	-50.167	76.221	
251.00	-50.701	59.437	
252.00	-51.050	24.982	
253.00	-51.595	9.137	
254.00	-51.923	-25.741	
255.00	-52.441	-46.693	
256.00	-52.746	-86.647	
257.00	-53.395	-111.790	
258.00	-53.923	-144.129	
259.00	-54.571	-173.677	
260.00	-55.219	159.632	
261.00	-56.061	112.710	
262.00	-56.348	79.667	
263.00	-56.884	68.953	
264.00	-57.278	37.240	
265.00	-57.681	18.041	
266.00	-58.009	-14.717	
267.00	-58.516	-43.601	
268.00	-58.853	-74.473	
269.00	-59.327	-95.901	
270.00	-59.818	-129.001	
271.00	-60.810	-158.041	
272.00	-61.642	159.175	
273.00	-62.698	143.160	
274.00	-63.573	97.862	
275.00	-64.586	70.331	
276.00	-64.578	16.458	
277.00	-65.205	4.968	
278.00	-65.054	-41.355	
279.00	-65.234	-54.737	
280.00	-65.391	-94.340	
281.00	-65.864	-121.461	
282.00	-66.681	-152.453	
283.00	-68.032	-178.928	
284.00	-68.803	144.841	
285.00	-69.245	104.837	
286.00	-69.273	62.662	
287.00	-69.045	33.675	
288.00	-67.420	-15.941	
289.00	-66.777	-35.086	
290.00	-66.797	-78.324	
291.00	-66.310	-103.758	
292.00	-67.047	-137.585	
293.00	-67.905	-172.302	
294.00	-69.771	154.545	
295.00	-71.247	118.861	
296.00	-72.050	101.474	
297.00	-72.441	51.490	
298.00	-71.392	30.123	
299.00	-70.309	-20.995	
300.00	-70.078	-37.700	
301.00	-69.466	-64.980	
302.00	-69.252	-67.026	
303.00	-69.927	-101.507	
304.00	-70.565	-124.711	
305.00	-72.185	-147.772	
306.00	-75.012	-175.625	
307.00	-77.573	155.419	
308.00	-78.320	122.865	
309.00	-77.953	49.222	
310.00	-76.631	41.834	
311.00	-72.888	-27.006	
312.00	-72.367	-35.197	
313.00	-72.054	-73.651	
314.00	-72.090	-91.157	
315.00	-71.822	-109.476	
316.00	-71.119	-133.210	
317.00	-71.341	-159.393	
318.00	-70.991	171.037	
319.00	-72.461	155.094	
320.00	-72.017	128.011	
321.00	-71.608	105.659	
322.00	-72.475	80.908	
323.00	-71.898	66.868	
324.00	-72.485	30.082	
325.00	-73.214	7.964	
326.00	-72.788	-10.657	
327.00	-71.648	-49.496	
328.00	-72.615	-57.285	
329.00	-72.264	-88.490	
330.00	-73.643	-90.308	
331.00	-74.162	-98.118	
332.00	-76.222	-114.978	
333.00	-77.675	-119.795	
334.00	-78.896	-118.149	
335.00	-84.501	-135.770	
336.00	-89.323	-113.590	
337.00	-83.880	-70.473	
338.00	-80.837	-74.257	
339.00	-78.030	-74.192	
340.00	-77.194	-84.903	
341.00	-76.541	-86.041	
342.00	-75.084	-86.371	
343.00	-75.801	-87.577	
344.00	-76.437	-99.791	
345.00	-75.743	-109.741	
346.00	-75.015	-120.245	
347.00	-77.323	-136.078	
348.00	-77.024	-138.014	
349.00	-78.762	-144.331	
350.00	-79.579	-168.009	
351.00	-78.787	-178.351	
352.00	-80.747	176.928	
353.00	-76.557	172.839	
354.00	-81.194	159.999	
355.00	-79.176	161.543	
356.00	-81.721	168.914	
357.00	-80.245	-168.614	
358.00	-81.496	-168.461	
359.00	-78.926	-138.732	
Frequency	3450.00	MHz	
Channel	test		
Scan Axis name	Azimuth  [deg]		
Scan Axis	Amplitude	Phase	
			
0.00	-81.407	-9.164	
1.00	-77.695	32.822	
2.00	-75.719	35.621	
3.00	-74.068	46.563	
4.00	-73.493	47.738	
5.00	-71.977	58.528	
6.00	-72.071	63.397	
7.00	-71.562	63.315	
8.00	-71.105	77.735	
9.00	-71.234	85.052	
10.00	-71.882	90.097	
11.00	-73.105	101.799	
12.00	-74.488	117.765	
13.00	-75.872	127.185	
14.00	-76.915	158.632	
15.00	-77.742	166.881	
16.00	-77.487	-169.222	
17.00	-79.575	-142.388	
18.00	-78.773	-105.253	
19.00	-77.631	-72.610	
20.00	-77.841	-66.094	
21.00	-75.333	-38.815	
22.00	-75.300	-28.259	
23.00	-74.048	-10.012	
24.00	-74.520	9.429	
25.00	-74.856	25.262	
26.00	-74.570	56.993	
27.00	-74.798	68.270	
28.00	-75.297	99.135	
29.00	-75.811	122.281	
30.00	-76.510	159.202	
31.00	-74.643	-162.814	
32.00	-73.949	-139.849	
33.00	-71.900	-113.894	
34.00	-70.368	-98.462	
35.00	-69.478	-70.280	
36.00	-67.810	-54.376	
37.00	-66.751	-35.504	
38.00	-66.864	-23.512	
39.00	-66.529	1.764	
40.00	-66.527	18.984	
41.00	-66.380	40.571	
42.00	-67.138	60.107	
43.00	-68.202	78.975	
44.00	-68.432	110.490	
45.00	-69.293	131.677	
46.00	-70.691	166.528	
47.00	-70.705	-171.673	
48.00	-70.492	-133.478	
49.00	-69.955	-110.227	
50.00	-70.285	-82.184	
51.00	-70.093	-52.407	
52.00	-69.282	-30.887	
53.00	-69.524	2.414	
54.00	-68.641	23.964	
55.00	-68.910	46.664	
56.00	-69.298	75.677	
57.00	-69.277	94.297	
58.00	-69.768	129.731	
59.00	-69.786	162.436	
60.00	-70.312	176.154	
61.00	-70.401	-159.479	
62.00	-70.314	-118.852	
63.00	-69.906	-100.165	
64.00	-68.468	-50.151	
65.00	-67.905	-37.588	
66.00	-67.958	-7.289	
67.00	-68.339	8.068	
68.00	-68.411	30.310	
69.00	-67.869	33.553	
70.00	-68.163	47.838	
71.00	-68.336	61.133	
72.00	-68.234	85.377	
73.00	-69.723	104.873	
74.00	-70.631	114.023	
75.00	-71.544	140.858	
76.00	-71.507	164.792	
77.00	-71.343	-154.716	
78.00	-71.832	-142.086	
79.00	-70.701	-108.482	
80.00	-70.034	-90.374	
81.00	-67.026	-73.480	
82.00	-65.937	-40.367	
83.00	-65.462	-31.834	
84.00	-64.011	5.849	
85.00	-63.410	15.786	
86.00	-63.053	70.844	
87.00	-62.439	84.156	
88.00	-62.422	131.434	
89.00	-61.809	158.613	
90.00	-60.904	-169.936	
91.00	-59.514	-129.163	
92.00	-58.773	-123.209	
93.00	-57.190	-73.048	
94.00	-56.724	-70.217	
95.00	-55.659	-28.207	
96.00	-55.056	-20.461	
97.00	-54.610	22.113	
98.00	-53.963	29.507	
99.00	-53.453	66.828	
100.00	-53.209	94.555	
101.00	-52.530	118.070	
102.00	-52.084	152.838	
103.00	-51.426	166.356	
104.00	-50.737	-163.738	
105.00	-50.286	-147.289	
106.00	-49.621	-117.312	
107.00	-48.978	-96.662	
108.00	-48.501	-72.060	
109.00	-47.787	-47.818	
110.00	-47.335	-24.650	
111.00	-46.898	-5.042	
112.00	-46.389	21.201	
113.00	-46.010	44.226	
114.00	-45.512	71.987	
115.00	-45.176	80.633	
116.00	-44.750	100.237	
117.00	-44.359	114.431	
118.00	-44.015	123.040	
119.00	-43.668	141.521	
120.00	-43.353	152.842	
121.00	-43.054	172.009	
122.00	-42.705	-163.000	
123.00	-42.330	-136.953	
124.00	-41.977	-122.914	
125.00	-41.655	-108.268	
126.00	-41.347	-80.323	
127.00	-41.008	-63.431	
128.00	-40.714	-35.638	
129.00	-40.435	-11.163	
130.00	-40.192	13.939	
131.00	-39.930	39.952	
132.00	-39.752	46.917	
133.00	-39.570	57.105	
134.00	-39.391	51.026	
135.00	-39.270	77.137	
136.00	-39.079	83.004	
137.00	-38.951	95.247	
138.00	-38.829	109.666	
139.00	-38.688	131.505	
140.00	-38.593	136.313	
141.00	-38.461	166.007	
142.00	-38.299	159.603	
143.00	-38.242	-176.700	
144.00	-38.057	-169.997	
145.00	-37.920	-172.205	
146.00	-37.688	-149.824	
147.00	-37.546	-154.450	
148.00	-37.318	-137.377	
149.00	-37.139	-147.032	
150.00	-36.945	-138.928	
151.00	-36.767	-134.731	
152.00	-36.576	-134.742	
153.00	-36.392	-127.287	
154.00	-36.218	-122.673	
155.00	-36.043	-109.897	
156.00	-35.890	-106.443	
157.00	-35.776	-106.159	
158.00	-35.665	-101.766	
159.00	-35.580	-100.278	
160.00	-35.492	-86.815	
161.00	-35.401	-66.564	
162.00	-35.376	-71.798	
163.00	-35.396	-52.363	
164.00	-35.341	-46.128	
165.00	-35.404	-40.696	
166.00	-35.374	-30.764	
167.00	-35.434	-46.320	
168.00	-35.491	-34.913	
169.00	-35.551	-33.881	
170.00	-35.600	-26.349	
171.00	-35.681	-34.079	
172.00	-35.753	-37.723	
173.00	-35.784	-13.991	
174.00	-35.882	-36.922	
175.00	-35.875	-21.775	
176.00	-35.932	-40.923	
177.00	-35.860	-39.346	
178.00	-35.847	-50.884	
179.00	-35.830	-40.909	
180.00	-35.844	-75.064	
181.00	-35.823	-52.392	
182.00	-35.804	-56.941	
183.00	-35.753	-67.917	
184.00	-35.714	-51.890	
185.00	-35.822	-82.166	
186.00	-35.800	-77.882	
187.00	-35.775	-72.388	
188.00	-35.797	-80.380	
189.00	-35.842	-77.573	
190.00	-35.914	-92.975	
191.00	-36.014	-110.911	
192.00	-36.090	-108.852	
193.00	-36.237	-126.352	
194.00	-36.312	-135.763	
195.00	-36.504	-149.813	
196.00	-36.627	162.642	
197.00	-36.750	171.280	
198.00	-36.887	158.162	
199.00	-37.067	136.031	
200.00	-37.119	127.514	
201.00	-37.265	98.333	
202.00	-37.371	106.548	
203.00	-37.567	89.500	
204.00	-37.521	54.032	
205.00	-37.593	46.040	
206.00	-37.726	37.830	
207.00	-37.808	3.603	
208.00	-37.840	-4.475	
209.00	-37.920	-0.202	
210.00	-38.031	-37.845	
211.00	-38.054	-31.707	
212.00	-38.283	-80.400	
213.00	-38.271	-63.307	
214.00	-38.805	-111.101	
215.00	-38.512	-129.516	
216.00	-38.753	-147.128	
217.00	-38.669	-169.725	
218.00	-38.852	174.115	
219.00	-38.863	157.826	
220.00	-39.029	128.522	
221.00	-39.092	124.465	
222.00	-39.349	87.850	
223.00	-39.362	79.353	
224.00	-39.555	45.881	
225.00	-39.700	50.000	
226.00	-40.017	21.885	
227.00	-40.095	-0.892	
228.00	-40.481	-23.998	
229.00	-40.595	-58.992	
230.00	-40.869	-59.325	
231.00	-41.157	-86.386	
232.00	-41.490	-101.755	
233.00	-41.758	-126.473	
234.00	-42.167	-145.928	
235.00	-42.408	-171.793	
236.00	-42.804	164.758	
237.00	-43.105	146.321	
238.00	-43.512	118.706	
239.00	-43.702	90.347	
240.00	-44.077	76.477	
241.00	-44.465	38.635	
242.00	-44.769	25.962	
243.00	-45.501	-4.488	
244.00	-45.632	-36.730	
245.00	-46.220	-42.028	
246.00	-46.526	-83.715	
247.00	-47.139	-89.400	
248.00	-47.469	-137.470	
249.00	-48.013	-149.026	
250.00	-48.438	177.184	
251.00	-48.997	159.946	
252.00	-49.334	126.775	
253.00	-49.990	110.231	
254.00	-50.283	75.469	
255.00	-50.857	54.093	
256.00	-51.245	14.446	
257.00	-51.832	-10.956	
258.00	-52.407	-44.482	
259.00	-53.007	-74.173	
260.00	-53.542	-100.602	
261.00	-54.304	-149.465	
262.00	-54.681	179.197	
263.00	-55.228	168.081	
264.00	-55.769	136.181	
265.00	-56.135	116.978	
266.00	-56.431	84.653	
267.00	-56.769	54.760	
268.00	-57.102	24.652	
269.00	-57.593	-0.217	
270.00	-58.160	-31.805	
271.00	-59.179	-62.628	
272.00	-59.998	-104.083	
273.00	-60.782	-119.998	
274.00	-61.489	-162.777	
275.00	-62.623	170.652	
276.00	-62.769	118.744	
277.00	-63.732	106.754	
278.00	-63.593	60.735	
279.00	-64.084	43.516	
280.00	-64.435	4.814	
281.00	-64.665	-23.790	
282.00	-65.885	-53.990	
283.00	-66.838	-83.094	
284.00	-68.540	-112.229	
285.00	-70.080	-154.895	
286.00	-70.247	160.943	
287.00	-69.986	122.442	
288.00	-67.957	75.020	
289.00	-67.308	49.469	
290.00	-66.567	7.360	
291.00	-66.737	-17.931	
292.00	-68.003	-55.822	
293.00	-69.278	-90.328	
294.00	-70.886	-131.209	
295.00	-71.233	-167.118	
296.00	-72.138	171.910	
297.00	-71.774	123.227	
298.00	-70.337	101.160	
299.00	-68.900	57.036	
300.00	-68.405	40.893	
301.00	-68.065	14.577	
302.00	-67.576	11.786	
303.00	-68.640	-17.232	
304.00	-69.450	-35.608	
305.00	-71.632	-51.789	
306.00	-73.483	-82.146	
307.00	-77.316	-109.519	
308.00	-82.814	-155.373	
309.00	-80.150	135.697	
310.00	-76.839	96.881	
311.00	-73.505	47.194	
312.00	-72.869	49.512	
313.00	-72.888	7.062	
314.00	-73.419	-3.207	
315.00	-75.518	-28.253	
316.00	-75.866	-68.241	
317.00	-76.320	-101.136	
318.00	-75.538	-137.950	
319.00	-73.172	-167.639	
320.00	-73.642	158.278	
321.00	-71.841	153.248	
322.00	-71.858	132.434	
323.00	-71.662	116.985	
324.00	-71.209	88.150	
325.00	-70.676	64.234	
326.00	-71.541	50.420	
327.00	-72.212	18.046	
328.00	-73.718	5.152	
329.00	-74.339	-23.597	
330.00	-75.224	-27.957	
331.00	-77.756	-50.349	
332.00	-78.120	-64.307	
333.00	-83.666	-66.421	
334.00	-87.866	-104.235	
335.00	-92.957	72.645	
336.00	-81.414	75.612	
337.00	-78.533	59.218	
338.00	-77.688	45.065	
339.00	-75.185	27.193	
340.00	-73.268	21.937	
341.00	-72.978	12.828	
342.00	-73.256	9.804	
343.00	-74.077	2.851	
344.00	-74.820	-2.121	
345.00	-77.153	-14.812	
346.00	-79.476	-2.718	
347.00	-82.563	-7.635	
348.00	-89.410	-23.235	
349.00	-89.640	72.771	
350.00	-83.524	98.262	
351.00	-81.777	111.093	
352.00	-78.299	114.072	
353.00	-80.234	135.546	
354.00	-77.589	124.125	
355.00	-80.009	131.026	
356.00	-79.997	121.422	
357.00	-82.615	163.560	
358.00	-89.957	160.109	
359.00	-92.332	-80.738	
Frequency	3500.00	MHz	
Channel	test		
Scan Axis name	Azimuth  [deg]		
Scan Axis	Amplitude	Phase	
			
0.00	-76.210	119.437	
1.00	-75.384	121.844	
2.00	-71.812	125.657	
3.00	-70.324	126.086	
4.00	-69.408	125.902	
5.00	-68.525	130.136	
6.00	-68.804	129.347	
7.00	-68.240	137.465	
8.00	-68.179	143.399	
9.00	-68.550	149.281	
10.00	-69.356	157.446	
11.00	-70.441	169.765	
12.00	-71.165	-175.392	
13.00	-72.113	-170.417	
14.00	-74.458	-149.310	
15.00	-76.185	-135.786	
16.00	-77.783	-107.928	
17.00	-78.027	-93.655	
18.00	-78.875	-60.139	
19.00	-79.037	-22.933	
20.00	-78.613	11.555	
21.00	-75.482	41.587	
22.00	-75.004	64.644	
23.00	-72.404	87.753	
24.00	-71.166	105.420	
25.00	-70.856	121.081	
26.00	-70.203	142.463	
27.00	-68.863	156.281	
28.00	-69.267	174.527	
29.00	-69.814	-164.243	
30.00	-69.215	-143.411	
31.00	-69.973	-116.320	
32.00	-70.087	-100.254	
33.00	-70.766	-63.617	
34.00	-70.424	-40.923	
35.00	-69.346	-11.663	
36.00	-69.145	9.374	
37.00	-67.485	37.542	
38.00	-66.958	54.759	
39.00	-66.125	85.720	
40.00	-65.767	101.906	
41.00	-65.881	126.461	
42.00	-65.554	144.045	
43.00	-65.618	166.578	
44.00	-66.250	-171.185	
45.00	-66.749	-148.148	
46.00	-67.322	-123.030	
47.00	-68.062	-97.556	
48.00	-68.974	-68.488	
49.00	-69.297	-39.240	
50.00	-69.670	-7.906	
51.00	-68.920	27.495	
52.00	-67.800	51.869	
53.00	-67.163	87.062	
54.00	-66.319	108.416	
55.00	-66.146	128.363	
56.00	-66.133	159.503	
57.00	-65.676	173.758	
58.00	-65.923	-155.500	
59.00	-66.371	-128.914	
60.00	-66.354	-111.904	
61.00	-66.871	-89.145	
62.00	-67.247	-51.421	
63.00	-67.306	-32.115	
64.00	-66.665	27.075	
65.00	-66.386	43.136	
66.00	-65.583	77.755	
67.00	-65.308	88.732	
68.00	-64.793	117.749	
69.00	-64.836	118.087	
70.00	-64.774	130.233	
71.00	-64.911	150.098	
72.00	-65.550	-179.405	
73.00	-66.168	-158.200	
74.00	-67.048	-140.302	
75.00	-67.068	-109.083	
76.00	-67.286	-80.366	
77.00	-68.021	-41.195	
78.00	-66.787	-24.309	
79.00	-66.261	16.793	
80.00	-65.287	26.284	
81.00	-63.783	40.121	
82.00	-62.850	72.538	
83.00	-62.267	79.645	
84.00	-61.815	119.789	
85.00	-61.248	130.814	
86.00	-61.510	-171.373	
87.00	-60.996	-160.916	
88.00	-61.495	-110.261	
89.00	-60.423	-86.251	
90.00	-59.660	-52.419	
91.00	-58.478	-15.368	
92.00	-57.852	-7.376	
93.00	-56.697	39.640	
94.00	-56.121	42.342	
95.00	-55.361	84.176	
96.00	-54.635	90.365	
97.00	-54.228	134.371	
98.00	-53.917	139.700	
99.00	-53.556	177.495	
100.00	-53.169	-155.301	
101.00	-52.807	-130.806	
102.00	-52.324	-96.819	
103.00	-52.000	-83.153	
104.00	-51.347	-53.394	
105.00	-50.760	-37.667	
106.00	-50.167	-6.868	
107.00	-49.637	13.532	
108.00	-49.040	37.600	
109.00	-48.536	61.863	
110.00	-47.978	84.907	
111.00	-47.556	104.050	
112.00	-47.096	129.359	
113.00	-46.751	152.357	
114.00	-46.379	179.305	
115.00	-46.009	-172.203	
116.00	-45.638	-152.689	
117.00	-45.318	-138.569	
118.00	-44.951	-130.129	
119.00	-44.572	-111.821	
120.00	-44.198	-100.928	
121.00	-43.848	-81.639	
122.00	-43.498	-56.681	
123.00	-43.013	-31.206	
124.00	-42.680	-17.293	
125.00	-42.321	-3.114	
126.00	-41.954	25.140	
127.00	-41.600	41.714	
128.00	-41.273	69.767	
129.00	-40.922	94.108	
130.00	-40.659	119.662	
131.00	-40.339	145.483	
132.00	-40.127	152.432	
133.00	-39.887	162.604	
134.00	-39.688	156.450	
135.00	-39.545	-176.352	
136.00	-39.340	-170.686	
137.00	-39.203	-157.436	
138.00	-39.065	-142.285	
139.00	-38.894	-119.967	
140.00	-38.826	-114.385	
141.00	-38.665	-83.718	
142.00	-38.518	-90.359	
143.00	-38.471	-64.872	
144.00	-38.322	-58.973	
145.00	-38.271	-59.366	
146.00	-38.050	-37.414	
147.00	-37.967	-40.987	
148.00	-37.790	-24.042	
149.00	-37.673	-33.415	
150.00	-37.535	-25.016	
151.00	-37.398	-20.951	
152.00	-37.293	-20.919	
153.00	-37.124	-13.586	
154.00	-37.000	-8.671	
155.00	-36.861	4.077	
156.00	-36.727	7.156	
157.00	-36.609	7.487	
158.00	-36.493	11.632	
159.00	-36.389	13.271	
160.00	-36.292	27.169	
161.00	-36.178	47.352	
162.00	-36.116	41.566	
163.00	-36.107	62.447	
164.00	-36.030	67.660	
165.00	-36.044	74.557	
166.00	-35.972	83.574	
167.00	-35.994	68.337	
168.00	-36.023	80.425	
169.00	-36.052	81.632	
170.00	-36.074	89.259	
171.00	-36.124	81.534	
172.00	-36.178	78.460	
173.00	-36.195	102.759	
174.00	-36.259	78.855	
175.00	-36.261	95.469	
176.00	-36.291	75.267	
177.00	-36.188	77.741	
178.00	-36.147	65.986	
179.00	-36.119	75.930	
180.00	-36.107	40.974	
181.00	-36.072	65.162	
182.00	-36.020	59.454	
183.00	-35.946	49.263	
184.00	-35.890	65.475	
185.00	-35.977	34.071	
186.00	-35.950	40.088	
187.00	-35.930	44.729	
188.00	-35.956	37.479	
189.00	-36.007	39.816	
190.00	-36.090	24.103	
191.00	-36.200	6.069	
192.00	-36.292	8.380	
193.00	-36.433	-10.035	
194.00	-36.534	-19.090	
195.00	-36.768	-34.447	
196.00	-36.927	-82.704	
197.00	-37.048	-73.793	
198.00	-37.168	-87.380	
199.00	-37.317	-110.787	
200.00	-37.354	-118.888	
201.00	-37.452	-149.596	
202.00	-37.508	-139.936	
203.00	-37.694	-158.902	
204.00	-37.559	165.889	
205.00	-37.601	158.410	
206.00	-37.684	149.554	
207.00	-37.710	115.118	
208.00	-37.714	108.133	
209.00	-37.781	112.164	
210.00	-37.842	74.587	
211.00	-37.914	81.576	
212.00	-38.091	32.050	
213.00	-38.160	51.109	
214.00	-38.647	0.912	
215.00	-38.406	-14.785	
216.00	-38.683	-34.048	
217.00	-38.656	-55.035	
218.00	-38.920	-72.032	
219.00	-39.013	-87.331	
220.00	-39.268	-117.666	
221.00	-39.398	-120.903	
222.00	-39.673	-158.910	
223.00	-39.779	-166.798	
224.00	-40.018	158.961	
225.00	-40.197	163.898	
226.00	-40.538	134.180	
227.00	-40.655	112.009	
228.00	-41.075	87.711	
229.00	-41.234	53.463	
230.00	-41.565	52.509	
231.00	-41.846	25.300	
232.00	-42.187	9.447	
233.00	-42.502	-15.248	
234.00	-42.992	-35.728	
235.00	-43.258	-61.322	
236.00	-43.673	-85.559	
237.00	-44.019	-104.017	
238.00	-44.406	-133.039	
239.00	-44.639	-160.897	
240.00	-45.025	-175.781	
241.00	-45.404	145.411	
242.00	-45.711	133.314	
243.00	-46.433	101.608	
244.00	-46.648	70.953	
245.00	-47.248	63.584	
246.00	-47.624	23.124	
247.00	-48.349	14.991	
248.00	-48.688	-33.134	
249.00	-49.261	-46.108	
250.00	-49.632	-80.554	
251.00	-50.207	-99.560	
252.00	-50.439	-132.438	
253.00	-50.854	-150.399	
254.00	-51.156	175.663	
255.00	-51.629	153.892	
256.00	-52.061	114.832	
257.00	-52.678	89.141	
258.00	-53.408	55.912	
259.00	-54.089	26.087	
260.00	-54.872	-1.919	
261.00	-55.705	-53.351	
262.00	-56.122	-85.625	
263.00	-56.758	-97.285	
264.00	-56.954	-129.686	
265.00	-57.145	-151.573	
266.00	-57.483	178.144	
267.00	-57.781	148.776	
268.00	-58.236	119.425	
269.00	-58.874	94.977	
270.00	-59.555	62.653	
271.00	-60.507	30.618	
272.00	-61.646	-13.744	
273.00	-62.796	-32.054	
274.00	-63.364	-77.202	
275.00	-63.936	-107.002	
276.00	-64.076	-156.886	
277.00	-64.501	-167.317	
278.00	-64.564	147.358	
279.00	-65.318	133.987	
280.00	-65.866	93.881	
281.00	-66.725	69.009	
282.00	-68.165	36.869	
283.00	-69.506	3.614	
284.00	-71.783	-31.172	
285.00	-73.140	-79.472	
286.00	-72.504	-130.267	
287.00	-71.688	-164.240	
288.00	-70.276	148.110	
289.00	-69.304	113.384	
290.00	-68.524	76.981	
291.00	-68.225	50.367	
292.00	-68.808	9.872	
293.00	-70.005	-25.579	
294.00	-71.558	-67.844	
295.00	-71.906	-102.544	
296.00	-72.265	-125.279	
297.00	-72.202	-166.342	
298.00	-71.135	171.862	
299.00	-69.173	125.525	
300.00	-68.293	112.264	
301.00	-68.232	85.405	
302.00	-67.792	84.749	
303.00	-69.344	50.130	
304.00	-70.946	32.734	
305.00	-72.351	8.604	
306.00	-76.819	-20.777	
307.00	-79.230	-70.441	
308.00	-78.940	-115.722	
309.00	-75.330	-175.557	
310.00	-73.479	173.883	
311.00	-71.464	124.744	
312.00	-71.266	127.803	
313.00	-73.484	84.812	
314.00	-73.684	80.466	
315.00	-75.815	50.243	
316.00	-78.963	9.419	
317.00	-78.728	-58.922	
318.00	-76.409	-104.383	
319.00	-74.320	-128.974	
320.00	-72.803	-147.390	
321.00	-70.993	-165.667	
322.00	-69.884	-177.207	
323.00	-69.885	166.655	
324.00	-69.368	140.415	
325.00	-69.847	122.032	
326.00	-70.384	112.177	
327.00	-71.789	76.186	
328.00	-72.710	64.275	
329.00	-75.765	32.332	
330.00	-75.704	16.236	
331.00	-77.156	-7.653	
332.00	-78.588	-8.834	
333.00	-84.039	-25.076	
334.00	-97.061	-78.696	
335.00	-85.616	158.482	
336.00	-80.087	126.425	
337.00	-79.568	103.571	
338.00	-76.217	93.440	
339.00	-74.764	81.645	
340.00	-74.150	69.893	
341.00	-73.742	55.668	
342.00	-73.785	61.207	
343.00	-73.367	59.498	
344.00	-74.001	43.585	
345.00	-77.416	46.946	
346.00	-78.602	43.286	
347.00	-85.452	34.345	
348.00	-106.764	-90.834	
349.00	-86.339	-153.298	
350.00	-80.849	-171.110	
351.00	-78.598	-153.411	
352.00	-76.286	-162.186	
353.00	-76.275	-149.895	
354.00	-74.682	-160.720	
355.00	-74.935	-168.778	
356.00	-76.549	-154.496	
357.00	-80.297	-150.476	
358.00	-86.961	-140.723	
359.00	-95.776	35.182	
Frequency	3550.00	MHz	
Channel	test		
Scan Axis name	Azimuth  [deg]		
Scan Axis	Amplitude	Phase	
			
0.00	-83.508	139.117	
1.00	-77.517	159.298	
2.00	-74.410	166.757	
3.00	-72.354	170.321	
4.00	-71.162	172.544	
5.00	-69.988	178.199	
6.00	-69.923	-172.513	
7.00	-69.681	-170.319	
8.00	-69.657	-159.312	
9.00	-69.913	-146.085	
10.00	-70.578	-135.688	
11.00	-71.546	-119.657	
12.00	-72.130	-99.213	
13.00	-71.773	-90.970	
14.00	-72.578	-62.753	
15.00	-72.234	-52.055	
16.00	-72.091	-26.857	
17.00	-72.160	-16.453	
18.00	-72.205	1.887	
19.00	-73.316	28.922	
20.00	-73.298	37.093	
21.00	-74.447	64.811	
22.00	-76.099	84.721	
23.00	-76.742	125.401	
24.00	-74.590	161.565	
25.00	-73.467	-167.156	
26.00	-72.326	-141.916	
27.00	-69.942	-124.299	
28.00	-68.414	-103.527	
29.00	-67.530	-85.656	
30.00	-66.958	-66.133	
31.00	-66.427	-41.453	
32.00	-65.978	-28.488	
33.00	-65.745	-3.712	
34.00	-65.511	9.372	
35.00	-65.708	35.775	
36.00	-65.763	55.193	
37.00	-66.053	78.966	
38.00	-66.532	97.195	
39.00	-66.323	131.415	
40.00	-66.911	154.933	
41.00	-66.757	-174.572	
42.00	-66.779	-147.271	
43.00	-66.562	-118.674	
44.00	-66.328	-90.495	
45.00	-65.572	-72.431	
46.00	-65.554	-43.924	
47.00	-65.439	-24.360	
48.00	-66.480	-0.094	
49.00	-66.637	23.583	
50.00	-66.941	54.442	
51.00	-67.649	79.893	
52.00	-68.319	110.678	
53.00	-68.606	151.713	
54.00	-68.077	179.775	
55.00	-67.276	-153.357	
56.00	-65.849	-118.497	
57.00	-65.053	-104.344	
58.00	-64.476	-71.947	
59.00	-64.021	-48.453	
60.00	-63.837	-34.019	
61.00	-64.147	-13.997	
62.00	-64.507	22.042	
63.00	-64.688	34.706	
64.00	-65.756	85.234	
65.00	-65.353	102.505	
66.00	-65.618	136.912	
67.00	-65.827	159.252	
68.00	-65.538	-167.533	
69.00	-65.294	-166.275	
70.00	-65.198	-147.654	
71.00	-64.773	-124.821	
72.00	-64.578	-90.917	
73.00	-64.181	-68.713	
74.00	-64.208	-52.781	
75.00	-63.899	-23.094	
76.00	-64.037	4.265	
77.00	-64.181	33.987	
78.00	-64.344	52.168	
79.00	-64.082	86.657	
80.00	-63.676	100.370	
81.00	-62.921	113.455	
82.00	-62.377	154.578	
83.00	-61.863	164.904	
84.00	-61.134	-148.808	
85.00	-60.539	-136.953	
86.00	-59.855	-74.116	
87.00	-58.850	-65.722	
88.00	-58.722	-16.548	
89.00	-57.700	4.412	
90.00	-57.515	36.222	
91.00	-56.684	71.937	
92.00	-56.157	80.380	
93.00	-55.517	128.997	
94.00	-54.968	134.356	
95.00	-54.299	179.004	
96.00	-53.709	-173.664	
97.00	-53.161	-127.577	
98.00	-52.498	-122.269	
99.00	-52.043	-82.177	
100.00	-51.383	-55.890	
101.00	-50.988	-31.461	
102.00	-50.457	0.847	
103.00	-50.109	15.226	
104.00	-49.678	44.336	
105.00	-49.231	60.599	
106.00	-48.740	92.658	
107.00	-48.327	113.335	
108.00	-47.741	138.655	
109.00	-47.314	164.716	
110.00	-46.794	-171.922	
111.00	-46.346	-151.731	
112.00	-45.860	-124.665	
113.00	-45.492	-101.140	
114.00	-44.989	-73.159	
115.00	-44.635	-64.902	
116.00	-44.215	-44.237	
117.00	-43.854	-30.307	
118.00	-43.475	-21.751	
119.00	-43.122	-2.952	
120.00	-42.778	8.172	
121.00	-42.437	27.485	
122.00	-42.134	53.400	
123.00	-41.770	78.952	
124.00	-41.455	93.436	
125.00	-41.174	108.131	
126.00	-40.866	137.308	
127.00	-40.542	154.131	
128.00	-40.265	-176.739	
129.00	-39.957	-151.720	
130.00	-39.727	-125.022	
131.00	-39.443	-98.845	
132.00	-39.215	-91.443	
133.00	-39.003	-81.350	
134.00	-38.825	-87.197	
135.00	-38.650	-59.117	
136.00	-38.469	-53.925	
137.00	-38.324	-39.891	
138.00	-38.181	-24.533	
139.00	-38.037	-1.914	
140.00	-37.947	3.752	
141.00	-37.831	34.598	
142.00	-37.698	27.769	
143.00	-37.662	54.346	
144.00	-37.529	59.149	
145.00	-37.476	60.158	
146.00	-37.299	81.323	
147.00	-37.224	78.284	
148.00	-37.081	94.628	
149.00	-36.977	85.625	
150.00	-36.861	94.249	
151.00	-36.753	98.255	
152.00	-36.619	98.311	
153.00	-36.471	105.821	
154.00	-36.321	110.842	
155.00	-36.191	123.675	
156.00	-36.037	126.470	
157.00	-35.922	126.969	
158.00	-35.791	130.967	
159.00	-35.675	132.599	
160.00	-35.585	147.010	
161.00	-35.449	167.114	
162.00	-35.362	160.715	
163.00	-35.336	-177.294	
164.00	-35.243	-173.180	
165.00	-35.234	-164.914	
166.00	-35.157	-156.931	
167.00	-35.151	-171.625	
168.00	-35.162	-159.372	
169.00	-35.185	-157.979	
170.00	-35.225	-150.188	
171.00	-35.261	-158.024	
172.00	-35.322	-160.512	
173.00	-35.351	-135.962	
174.00	-35.419	-160.679	
175.00	-35.468	-142.735	
176.00	-35.517	-164.084	
177.00	-35.472	-160.799	
178.00	-35.493	-172.771	
179.00	-35.531	-163.038	
180.00	-35.543	161.417	
181.00	-35.557	-173.328	
182.00	-35.545	179.643	
183.00	-35.497	169.963	
184.00	-35.480	-174.108	
185.00	-35.577	153.038	
186.00	-35.567	160.451	
187.00	-35.561	163.787	
188.00	-35.569	156.963	
189.00	-35.633	158.731	
190.00	-35.695	142.749	
191.00	-35.797	124.614	
192.00	-35.896	127.273	
193.00	-36.039	108.115	
194.00	-36.139	99.890	
195.00	-36.377	83.585	
196.00	-36.518	35.745	
197.00	-36.665	45.366	
198.00	-36.808	31.813	
199.00	-37.023	8.036	
200.00	-37.105	0.983	
201.00	-37.284	-30.517	
202.00	-37.401	-19.666	
203.00	-37.642	-40.265	
204.00	-37.611	-75.280	
205.00	-37.690	-82.152	
206.00	-37.862	-92.431	
207.00	-37.947	-127.361	
208.00	-37.992	-133.764	
209.00	-38.085	-130.640	
210.00	-38.170	-169.216	
211.00	-38.260	-162.155	
212.00	-38.420	146.520	
213.00	-38.492	166.566	
214.00	-38.947	112.835	
215.00	-38.671	99.391	
216.00	-38.938	77.563	
217.00	-38.825	57.516	
218.00	-39.021	39.064	
219.00	-39.042	24.245	
220.00	-39.230	-7.326	
221.00	-39.268	-10.113	
222.00	-39.531	-49.450	
223.00	-39.590	-56.765	
224.00	-39.808	-92.031	
225.00	-39.904	-86.469	
226.00	-40.175	-117.868	
227.00	-40.267	-139.399	
228.00	-40.632	-165.528	
229.00	-40.712	160.724	
230.00	-40.953	158.970	
231.00	-41.173	131.292	
232.00	-41.473	114.435	
233.00	-41.650	89.960	
234.00	-41.992	68.798	
235.00	-42.178	43.471	
236.00	-42.480	18.936	
237.00	-42.660	0.913	
238.00	-43.046	-28.302	
239.00	-43.253	-55.888	
240.00	-43.590	-70.422	
241.00	-43.971	-110.061	
242.00	-44.227	-120.984	
243.00	-44.965	-155.357	
244.00	-45.105	175.728	
245.00	-45.712	166.459	
246.00	-45.958	126.960	
247.00	-46.618	117.408	
248.00	-46.866	70.372	
249.00	-47.425	57.089	
250.00	-47.731	24.092	
251.00	-48.264	4.429	
252.00	-48.541	-27.135	
253.00	-49.028	-45.325	
254.00	-49.450	-79.772	
255.00	-49.918	-102.027	
256.00	-50.324	-142.491	
257.00	-50.961	-168.723	
258.00	-51.579	157.274	
259.00	-52.143	127.634	
260.00	-52.786	98.903	
261.00	-53.466	48.489	
262.00	-53.735	19.507	
263.00	-54.215	7.276	
264.00	-54.766	-23.737	
265.00	-55.128	-43.368	
266.00	-55.774	-75.395	
267.00	-56.093	-105.735	
268.00	-56.743	-136.462	
269.00	-57.646	-162.067	
270.00	-58.318	164.957	
271.00	-59.435	129.452	
272.00	-59.880	87.143	
273.00	-60.567	65.692	
274.00	-60.688	26.142	
275.00	-61.322	-2.279	
276.00	-61.626	-49.108	
277.00	-62.213	-58.173	
278.00	-63.179	-100.158	
279.00	-64.018	-113.577	
280.00	-65.616	-155.713	
281.00	-66.775	173.418	
282.00	-68.015	138.546	
283.00	-68.928	103.419	
284.00	-69.651	62.804	
285.00	-69.237	26.568	
286.00	-69.148	-2.831	
287.00	-70.708	-28.676	
288.00	-70.217	-79.964	
289.00	-71.993	-107.116	
290.00	-74.694	-162.102	
291.00	-74.841	160.076	
292.00	-75.399	103.884	
293.00	-73.618	57.032	
294.00	-73.692	13.608	
295.00	-72.655	-10.337	
296.00	-74.714	-32.381	
297.00	-74.236	-70.522	
298.00	-74.162	-89.939	
299.00	-75.638	-150.821	
300.00	-74.568	-169.685	
301.00	-73.589	148.358	
302.00	-73.835	153.150	
303.00	-74.555	99.509	
304.00	-74.897	80.274	
305.00	-76.496	54.994	
306.00	-77.942	12.342	
307.00	-79.099	-29.625	
308.00	-76.588	-60.601	
309.00	-75.517	-100.504	
310.00	-73.867	-113.407	
311.00	-72.912	178.335	
312.00	-72.160	-172.409	
313.00	-73.281	139.914	
314.00	-73.076	139.941	
315.00	-74.615	100.728	
316.00	-74.968	67.722	
317.00	-77.950	28.737	
318.00	-75.852	-19.648	
319.00	-74.543	-48.076	
320.00	-73.348	-73.796	
321.00	-72.088	-81.137	
322.00	-70.985	-99.056	
323.00	-71.204	-118.985	
324.00	-72.003	-146.185	
325.00	-72.329	-172.352	
326.00	-74.439	166.984	
327.00	-75.857	115.911	
328.00	-76.443	103.310	
329.00	-76.757	51.579	
330.00	-75.924	51.471	
331.00	-76.531	26.414	
332.00	-77.039	11.826	
333.00	-77.291	0.913	
334.00	-78.196	-39.382	
335.00	-79.679	-85.590	
336.00	-81.209	-119.496	
337.00	-77.654	-146.033	
338.00	-78.715	172.790	
339.00	-76.745	163.365	
340.00	-75.540	134.854	
341.00	-76.000	116.392	
342.00	-75.693	115.902	
343.00	-76.675	106.346	
344.00	-78.726	96.510	
345.00	-81.142	79.646	
346.00	-83.345	43.853	
347.00	-89.086	-8.402	
348.00	-79.738	-71.671	
349.00	-76.992	-76.655	
350.00	-74.307	-104.421	
351.00	-72.395	-94.165	
352.00	-72.404	-102.294	
353.00	-71.648	-80.490	
354.00	-72.480	-100.216	
355.00	-73.036	-92.471	
356.00	-75.417	-89.385	
357.00	-75.866	-70.375	
358.00	-79.117	-50.552	
359.00	-81.558	-37.448	
Frequency	3600.00	MHz	
Channel	test		
Scan Axis name	Azimuth  [deg]		
Scan Axis	Amplitude	Phase	
			
0.00	-85.516	129.140	
1.00	-85.118	-134.072	
2.00	-78.631	-126.747	
3.00	-75.806	-120.671	
4.00	-73.911	-112.037	
5.00	-73.112	-110.165	
6.00	-71.376	-103.587	
7.00	-71.898	-101.647	
8.00	-70.915	-93.010	
9.00	-71.951	-87.972	
10.00	-73.181	-75.183	
11.00	-73.985	-57.965	
12.00	-74.725	-30.980	
13.00	-75.564	-18.459	
14.00	-76.233	20.631	
15.00	-74.559	34.608	
16.00	-73.787	54.246	
17.00	-72.912	62.594	
18.00	-71.595	82.602	
19.00	-71.543	96.028	
20.00	-72.249	104.527	
21.00	-72.985	122.857	
22.00	-73.263	131.526	
23.00	-77.107	162.456	
24.00	-78.146	-152.557	
25.00	-77.526	-123.343	
26.00	-75.978	-82.450	
27.00	-73.446	-58.375	
28.00	-72.504	-27.151	
29.00	-70.700	-8.926	
30.00	-69.520	14.582	
31.00	-68.660	32.354	
32.00	-68.604	48.784	
33.00	-68.041	68.836	
34.00	-68.242	83.223	
35.00	-68.313	108.502	
36.00	-68.524	124.403	
37.00	-69.163	151.891	
38.00	-69.745	172.961	
39.00	-70.197	-152.043	
40.00	-71.368	-130.163	
41.00	-70.941	-96.695	
42.00	-71.130	-63.462	
43.00	-70.627	-29.368	
44.00	-68.968	-4.685	
45.00	-68.949	21.782	
46.00	-68.291	50.686	
47.00	-67.551	73.883	
48.00	-67.906	97.301	
49.00	-68.115	117.030	
50.00	-68.311	147.455	
51.00	-68.369	174.775	
52.00	-69.432	-161.144	
53.00	-69.345	-125.483	
54.00	-69.183	-95.563	
55.00	-68.779	-68.090	
56.00	-67.753	-35.861	
57.00	-66.775	-18.588	
58.00	-66.281	16.555	
59.00	-66.448	36.963	
60.00	-65.839	51.862	
61.00	-66.687	75.307	
62.00	-66.188	108.409	
63.00	-66.637	123.557	
64.00	-67.805	177.084	
65.00	-67.575	-173.381	
66.00	-69.069	-130.048	
67.00	-69.093	-109.429	
68.00	-68.578	-76.046	
69.00	-69.212	-71.535	
70.00	-68.162	-49.902	
71.00	-67.557	-29.289	
72.00	-66.646	3.882	
73.00	-66.304	25.539	
74.00	-66.087	41.832	
75.00	-65.670	69.791	
76.00	-65.955	93.405	
77.00	-65.892	124.416	
78.00	-66.131	135.487	
79.00	-66.144	170.240	
80.00	-65.935	-175.664	
81.00	-65.424	-158.750	
82.00	-64.724	-114.034	
83.00	-65.036	-104.762	
84.00	-63.216	-52.932	
85.00	-62.061	-43.137	
86.00	-61.374	22.284	
87.00	-60.196	27.187	
88.00	-59.679	79.599	
89.00	-58.495	97.166	
90.00	-58.674	131.312	
91.00	-57.528	163.559	
92.00	-57.510	173.236	
93.00	-56.913	-137.755	
94.00	-56.356	-129.304	
95.00	-55.852	-85.177	
96.00	-55.409	-76.696	
97.00	-54.564	-28.197	
98.00	-54.023	-21.530	
99.00	-53.408	21.064	
100.00	-52.649	46.716	
101.00	-52.288	73.050	
102.00	-51.573	103.919	
103.00	-51.132	119.692	
104.00	-50.684	148.860	
105.00	-50.344	165.115	
106.00	-49.840	-162.539	
107.00	-49.389	-141.167	
108.00	-48.930	-116.100	
109.00	-48.495	-88.678	
110.00	-47.908	-65.057	
111.00	-47.478	-43.531	
112.00	-46.978	-16.623	
113.00	-46.526	8.141	
114.00	-45.963	35.939	
115.00	-45.604	44.332	
116.00	-45.240	64.869	
117.00	-44.759	79.079	
118.00	-44.436	87.974	
119.00	-44.084	107.052	
120.00	-43.716	117.982	
121.00	-43.448	137.918	
122.00	-43.150	164.066	
123.00	-42.780	-170.360	
124.00	-42.529	-155.499	
125.00	-42.240	-140.499	
126.00	-41.948	-110.632	
127.00	-41.680	-93.689	
128.00	-41.371	-63.853	
129.00	-41.033	-38.487	
130.00	-40.774	-11.248	
131.00	-40.448	14.852	
132.00	-40.207	22.129	
133.00	-39.980	32.156	
134.00	-39.751	26.671	
135.00	-39.573	55.206	
136.00	-39.382	59.735	
137.00	-39.220	74.150	
138.00	-39.066	89.985	
139.00	-38.869	112.268	
140.00	-38.779	118.536	
141.00	-38.650	149.233	
142.00	-38.507	142.052	
143.00	-38.438	169.724	
144.00	-38.301	173.140	
145.00	-38.236	175.612	
146.00	-38.033	-164.126	
147.00	-37.916	-166.189	
148.00	-37.741	-150.359	
149.00	-37.613	-159.224	
150.00	-37.499	-150.227	
151.00	-37.331	-146.231	
152.00	-37.200	-145.934	
153.00	-37.052	-138.323	
154.00	-36.906	-132.921	
155.00	-36.757	-119.792	
156.00	-36.602	-117.133	
157.00	-36.485	-116.470	
158.00	-36.357	-112.366	
159.00	-36.248	-110.329	
160.00	-36.137	-95.324	
161.00	-36.015	-75.165	
162.00	-35.926	-82.016	
163.00	-35.908	-58.624	
164.00	-35.831	-55.504	
165.00	-35.841	-45.900	
166.00	-35.760	-39.015	
167.00	-35.771	-53.465	
168.00	-35.772	-40.936	
169.00	-35.810	-39.515	
170.00	-35.840	-31.723	
171.00	-35.902	-39.917	
172.00	-35.961	-41.875	
173.00	-35.984	-17.119	
174.00	-36.051	-42.820	
175.00	-36.093	-23.788	
176.00	-36.158	-46.348	
177.00	-36.094	-42.355	
178.00	-36.104	-54.333	
179.00	-36.117	-44.795	
180.00	-36.124	-80.685	
181.00	-36.105	-54.181	
182.00	-36.101	-62.154	
183.00	-36.045	-71.086	
184.00	-36.021	-54.930	
185.00	-36.124	-88.877	
186.00	-36.123	-79.586	
187.00	-36.107	-77.124	
188.00	-36.139	-82.976	
189.00	-36.200	-81.509	
190.00	-36.305	-97.729	
191.00	-36.411	-115.973	
192.00	-36.521	-112.866	
193.00	-36.683	-132.826	
194.00	-36.777	-140.522	
195.00	-37.007	-157.950	
196.00	-37.146	154.316	
197.00	-37.308	164.305	
198.00	-37.455	150.625	
199.00	-37.637	125.681	
200.00	-37.693	119.243	
201.00	-37.852	86.768	
202.00	-37.901	98.706	
203.00	-38.142	76.512	
204.00	-38.082	42.025	
205.00	-38.147	35.660	
206.00	-38.293	24.635	
207.00	-38.370	-10.447	
208.00	-38.423	-16.016	
209.00	-38.505	-13.521	
210.00	-38.600	-52.304	
211.00	-38.659	-45.136	
212.00	-38.819	-97.615	
213.00	-38.858	-76.144	
214.00	-39.327	-132.883	
215.00	-39.038	-143.846	
216.00	-39.277	-167.899	
217.00	-39.168	172.946	
218.00	-39.384	153.352	
219.00	-39.372	139.287	
220.00	-39.554	106.793	
221.00	-39.621	104.589	
222.00	-39.851	63.849	
223.00	-39.925	57.283	
224.00	-40.095	21.261	
225.00	-40.235	27.611	
226.00	-40.543	-5.689	
227.00	-40.590	-26.365	
228.00	-40.990	-53.915	
229.00	-41.027	-87.065	
230.00	-41.305	-89.390	
231.00	-41.461	-116.786	
232.00	-41.772	-134.583	
233.00	-41.950	-158.711	
234.00	-42.311	179.369	
235.00	-42.496	154.420	
236.00	-42.804	129.206	
237.00	-43.074	111.350	
238.00	-43.435	80.910	
239.00	-43.668	54.273	
240.00	-44.027	39.005	
241.00	-44.423	-1.569	
242.00	-44.701	-11.813	
243.00	-45.489	-48.118	
244.00	-45.591	-75.449	
245.00	-46.220	-87.203	
246.00	-46.394	-125.103	
247.00	-46.978	-135.932	
248.00	-47.182	177.445	
249.00	-47.756	163.835	
250.00	-48.135	131.163	
251.00	-48.738	111.527	
252.00	-49.132	80.513	
253.00	-49.698	62.071	
254.00	-50.100	28.179	
255.00	-50.840	3.981	
256.00	-51.341	-36.105	
257.00	-51.953	-64.028	
258.00	-52.670	-99.144	
259.00	-53.145	-129.379	
260.00	-53.724	-157.792	
261.00	-54.299	151.842	
262.00	-54.587	123.410	
263.00	-55.185	110.805	
264.00	-55.707	80.929	
265.00	-56.354	60.342	
266.00	-56.880	29.367	
267.00	-57.668	-2.795	
268.00	-58.401	-34.013	
269.00	-59.307	-62.400	
270.00	-60.178	-96.094	
271.00	-61.194	-134.845	
272.00	-61.429	-176.108	
273.00	-62.061	161.870	
274.00	-61.842	119.971	
275.00	-62.578	89.412	
276.00	-62.888	47.681	
277.00	-63.201	38.719	
278.00	-64.275	-3.094	
279.00	-65.013	-14.280	
280.00	-66.928	-56.057	
281.00	-68.283	-84.893	
282.00	-69.792	-130.137	
283.00	-70.410	-165.171	
284.00	-70.807	156.318	
285.00	-70.727	118.963	
286.00	-70.900	90.716	
287.00	-71.260	63.757	
288.00	-73.639	27.652	
289.00	-76.611	4.492	
290.00	-84.275	-52.122	
291.00	-80.030	-165.685	
292.00	-77.507	140.054	
293.00	-73.889	114.078	
294.00	-73.108	85.179	
295.00	-71.940	69.771	
296.00	-73.042	54.622	
297.00	-75.080	27.785	
298.00	-76.381	21.612	
299.00	-84.847	-53.749	
300.00	-81.139	-117.167	
301.00	-78.658	-171.449	
302.00	-76.668	-176.557	
303.00	-73.803	145.482	
304.00	-73.092	121.863	
305.00	-71.763	101.204	
306.00	-73.093	83.498	
307.00	-73.826	58.699	
308.00	-74.037	35.017	
309.00	-76.539	4.412	
310.00	-76.317	-21.451	
311.00	-79.028	-110.267	
312.00	-76.664	-108.927	
313.00	-75.255	176.413	
314.00	-75.935	165.169	
315.00	-73.409	138.969	
316.00	-72.682	104.299	
317.00	-72.250	79.616	
318.00	-70.829	53.349	
319.00	-70.687	34.702	
320.00	-70.627	11.725	
321.00	-71.199	-5.034	
322.00	-70.199	-23.240	
323.00	-71.412	-44.472	
324.00	-71.206	-82.612	
325.00	-72.278	-114.816	
326.00	-73.080	-132.746	
327.00	-72.969	174.099	
328.00	-72.177	155.668	
329.00	-72.172	124.660	
330.00	-71.735	118.970	
331.00	-71.295	99.123	
332.00	-73.331	90.499	
333.00	-72.935	83.025	
334.00	-74.492	67.485	
335.00	-78.230	40.934	
336.00	-83.175	22.432	
337.00	-87.375	84.699	
338.00	-85.424	150.619	
339.00	-81.578	159.501	
340.00	-77.822	138.900	
341.00	-76.030	135.010	
342.00	-75.478	132.783	
343.00	-75.736	118.490	
344.00	-73.969	109.298	
345.00	-75.299	88.111	
346.00	-75.067	63.915	
347.00	-73.585	58.886	
348.00	-73.434	27.630	
349.00	-71.774	16.867	
350.00	-71.513	1.395	
351.00	-70.542	5.665	
352.00	-69.862	-7.548	
353.00	-70.101	-0.076	
354.00	-70.584	-12.581	
355.00	-70.786	-7.812	
356.00	-72.612	-8.580	
357.00	-74.812	8.878	
358.00	-76.599	11.469	
359.00	-80.423	33.479	
Frequency	3650.00	MHz	
Channel	test		
Scan Axis name	Azimuth  [deg]		
Scan Axis	Amplitude	Phase	
			
0.00	-82.931	-76.930	
1.00	-78.301	-59.595	
2.00	-76.228	-60.582	
3.00	-74.691	-59.223	
4.00	-72.713	-58.016	
5.00	-71.664	-52.019	
6.00	-72.326	-46.789	
7.00	-72.622	-50.163	
8.00	-73.907	-43.840	
9.00	-74.386	-32.890	
10.00	-76.499	-19.865	
11.00	-77.068	-13.734	
12.00	-79.180	21.990	
13.00	-80.694	50.641	
14.00	-82.152	93.549	
15.00	-79.841	102.213	
16.00	-79.678	126.858	
17.00	-76.821	134.732	
18.00	-77.095	143.024	
19.00	-76.716	165.430	
20.00	-76.613	-172.690	
21.00	-78.024	-159.628	
22.00	-79.289	-153.419	
23.00	-82.210	-98.632	
24.00	-81.615	-57.663	
25.00	-81.964	-32.532	
26.00	-78.879	-0.683	
27.00	-76.434	24.406	
28.00	-75.640	49.952	
29.00	-73.968	67.440	
30.00	-73.247	87.771	
31.00	-72.300	105.789	
32.00	-70.600	128.405	
33.00	-70.626	146.977	
34.00	-71.371	164.090	
35.00	-71.166	-170.940	
36.00	-71.807	-155.820	
37.00	-72.702	-127.408	
38.00	-74.730	-95.673	
39.00	-75.174	-59.064	
40.00	-75.538	-28.611	
41.00	-73.641	8.729	
42.00	-72.412	39.085	
43.00	-70.986	65.106	
44.00	-69.538	94.325	
45.00	-69.172	111.117	
46.00	-68.702	141.609	
47.00	-68.842	159.797	
48.00	-68.793	-174.512	
49.00	-69.315	-150.288	
50.00	-69.643	-124.801	
51.00	-69.588	-92.390	
52.00	-69.814	-66.189	
53.00	-69.129	-28.397	
54.00	-69.500	-2.136	
55.00	-69.137	24.833	
56.00	-68.087	56.526	
57.00	-67.901	70.414	
58.00	-67.995	103.252	
59.00	-67.718	124.059	
60.00	-68.220	139.038	
61.00	-69.251	164.114	
62.00	-69.162	-156.069	
63.00	-70.539	-140.026	
64.00	-70.859	-86.182	
65.00	-70.646	-60.647	
66.00	-70.602	-28.372	
67.00	-70.381	-4.829	
68.00	-70.139	21.395	
69.00	-71.450	22.388	
70.00	-70.113	37.858	
71.00	-71.507	56.082	
72.00	-71.922	90.694	
73.00	-71.428	112.865	
74.00	-72.147	125.114	
75.00	-72.073	156.261	
76.00	-72.359	174.636	
77.00	-72.722	-147.631	
78.00	-72.293	-136.342	
79.00	-72.865	-99.936	
80.00	-70.736	-86.951	
81.00	-70.244	-63.373	
82.00	-69.122	-21.792	
83.00	-67.757	-10.901	
84.00	-66.456	34.310	
85.00	-64.773	42.830	
86.00	-63.793	106.082	
87.00	-62.677	111.879	
88.00	-62.518	164.539	
89.00	-61.264	-177.894	
90.00	-61.542	-141.590	
91.00	-60.371	-109.726	
92.00	-59.865	-92.684	
93.00	-59.165	-44.908	
94.00	-58.433	-38.535	
95.00	-57.421	8.744	
96.00	-56.877	18.035	
97.00	-56.086	66.473	
98.00	-55.072	71.596	
99.00	-54.644	114.735	
100.00	-53.768	142.347	
101.00	-53.395	168.049	
102.00	-52.593	-159.664	
103.00	-52.248	-143.157	
104.00	-51.710	-114.048	
105.00	-51.374	-95.910	
106.00	-50.561	-63.550	
107.00	-50.068	-40.907	
108.00	-49.532	-14.590	
109.00	-48.920	12.481	
110.00	-48.397	35.593	
111.00	-47.779	57.416	
112.00	-47.324	84.806	
113.00	-46.869	110.547	
114.00	-46.371	138.123	
115.00	-45.856	146.968	
116.00	-45.477	168.723	
117.00	-45.073	-176.809	
118.00	-44.677	-168.137	
119.00	-44.299	-148.388	
120.00	-43.945	-136.628	
121.00	-43.591	-116.007	
122.00	-43.249	-88.955	
123.00	-42.839	-62.832	
124.00	-42.481	-47.448	
125.00	-42.102	-32.340	
126.00	-41.736	-1.565	
127.00	-41.438	15.349	
128.00	-41.078	45.709	
129.00	-40.749	70.932	
130.00	-40.472	99.081	
131.00	-40.133	125.134	
132.00	-39.876	132.701	
133.00	-39.632	142.449	
134.00	-39.402	137.322	
135.00	-39.208	166.801	
136.00	-38.974	171.073	
137.00	-38.794	-173.691	
138.00	-38.621	-157.441	
139.00	-38.436	-134.695	
140.00	-38.319	-127.715	
141.00	-38.143	-96.407	
142.00	-37.987	-103.718	
143.00	-37.949	-74.682	
144.00	-37.774	-72.258	
145.00	-37.695	-68.157	
146.00	-37.527	-48.783	
147.00	-37.463	-49.716	
148.00	-37.328	-34.283	
149.00	-37.213	-42.903	
150.00	-37.133	-33.399	
151.00	-37.041	-29.471	
152.00	-36.936	-29.150	
153.00	-36.828	-21.477	
154.00	-36.729	-15.883	
155.00	-36.638	-2.851	
156.00	-36.524	-0.480	
157.00	-36.419	0.087	
158.00	-36.307	4.004	
159.00	-36.224	6.008	
160.00	-36.151	21.045	
161.00	-36.030	41.063	
162.00	-35.975	33.483	
163.00	-35.975	57.885	
164.00	-35.892	59.697	
165.00	-35.907	70.700	
166.00	-35.816	76.387	
167.00	-35.832	62.233	
168.00	-35.843	75.136	
169.00	-35.869	76.575	
170.00	-35.915	84.385	
171.00	-35.980	76.087	
172.00	-36.079	74.734	
173.00	-36.108	99.989	
174.00	-36.203	73.475	
175.00	-36.278	93.569	
176.00	-36.367	70.109	
177.00	-36.360	74.992	
178.00	-36.405	62.997	
179.00	-36.465	72.256	
180.00	-36.500	35.681	
181.00	-36.521	63.397	
182.00	-36.538	53.972	
183.00	-36.515	45.745	
184.00	-36.494	61.670	
185.00	-36.570	26.376	
186.00	-36.571	37.270	
187.00	-36.545	38.400	
188.00	-36.546	33.238	
189.00	-36.609	34.061	
190.00	-36.666	17.639	
191.00	-36.761	-0.452	
192.00	-36.827	2.955	
193.00	-36.981	-17.699	
194.00	-37.068	-24.546	
195.00	-37.317	-43.014	
196.00	-37.469	-90.947	
197.00	-37.592	-80.649	
198.00	-37.753	-94.299	
199.00	-37.950	-120.163	
200.00	-38.001	-125.661	
201.00	-38.173	-159.193	
202.00	-38.270	-145.896	
203.00	-38.504	-170.191	
204.00	-38.465	155.407	
205.00	-38.541	149.619	
206.00	-38.672	137.221	
207.00	-38.739	101.581	
208.00	-38.783	96.856	
209.00	-38.855	98.417	
210.00	-38.905	59.349	
211.00	-38.971	66.475	
212.00	-39.122	13.113	
213.00	-39.154	35.897	
214.00	-39.654	-23.712	
215.00	-39.390	-32.479	
216.00	-39.667	-59.103	
217.00	-39.571	-77.027	
218.00	-39.776	-98.186	
219.00	-39.798	-111.804	
220.00	-40.000	-145.516	
221.00	-40.089	-147.420	
222.00	-40.326	170.059	
223.00	-40.410	163.716	
224.00	-40.592	126.653	
225.00	-40.716	133.573	
226.00	-41.053	98.435	
227.00	-41.122	78.072	
228.00	-41.517	48.840	
229.00	-41.588	16.390	
230.00	-41.872	13.125	
231.00	-42.084	-14.369	
232.00	-42.418	-33.002	
233.00	-42.626	-57.240	
234.00	-43.017	-80.459	
235.00	-43.219	-105.563	
236.00	-43.543	-131.449	
237.00	-43.851	-149.949	
238.00	-44.279	178.345	
239.00	-44.485	151.364	
240.00	-44.916	135.308	
241.00	-45.299	93.437	
242.00	-45.543	83.547	
243.00	-46.330	44.365	
244.00	-46.420	19.059	
245.00	-47.097	4.762	
246.00	-47.244	-31.831	
247.00	-47.885	-45.273	
248.00	-48.103	-91.417	
249.00	-48.686	-105.922	
250.00	-49.070	-138.757	
251.00	-49.637	-159.891	
252.00	-49.956	168.350	
253.00	-50.546	148.031	
254.00	-50.937	114.929	
255.00	-51.535	89.062	
256.00	-52.085	49.137	
257.00	-52.724	19.779	
258.00	-53.307	-15.128	
259.00	-53.817	-45.325	
260.00	-54.500	-75.359	
261.00	-55.213	-127.253	
262.00	-55.454	-154.791	
263.00	-56.119	-168.310	
264.00	-56.573	160.323	
265.00	-57.205	139.668	
266.00	-57.814	107.164	
267.00	-58.492	74.781	
268.00	-59.110	42.953	
269.00	-60.021	14.014	
270.00	-60.836	-19.069	
271.00	-61.746	-60.852	
272.00	-61.983	-100.756	
273.00	-62.808	-126.005	
274.00	-62.571	-167.853	
275.00	-63.044	162.427	
276.00	-63.279	118.367	
277.00	-64.050	107.358	
278.00	-64.444	66.303	
279.00	-65.763	53.366	
280.00	-67.414	9.623	
281.00	-68.944	-18.938	
282.00	-70.664	-63.430	
283.00	-71.615	-100.126	
284.00	-71.438	-147.692	
285.00	-71.253	172.109	
286.00	-70.326	139.522	
287.00	-70.984	114.586	
288.00	-71.504	69.516	
289.00	-72.912	44.223	
290.00	-73.202	-14.895	
291.00	-74.299	-51.895	
292.00	-74.982	-115.573	
293.00	-73.751	-158.772	
294.00	-73.119	159.670	
295.00	-72.092	133.457	
296.00	-72.321	122.486	
297.00	-72.644	93.982	
298.00	-74.121	79.196	
299.00	-75.269	21.663	
300.00	-77.500	-0.061	
301.00	-78.761	-52.625	
302.00	-78.891	-53.716	
303.00	-76.698	-118.998	
304.00	-76.356	-141.535	
305.00	-76.638	-172.006	
306.00	-77.193	166.772	
307.00	-77.530	138.544	
308.00	-80.311	110.779	
309.00	-78.692	63.414	
310.00	-80.235	31.567	
311.00	-81.191	-54.202	
312.00	-77.513	-50.405	
313.00	-76.758	-122.522	
314.00	-76.191	-126.202	
315.00	-75.499	-156.838	
316.00	-74.516	170.898	
317.00	-75.201	143.272	
318.00	-73.831	121.931	
319.00	-73.428	90.669	
320.00	-73.130	72.173	
321.00	-72.240	51.504	
322.00	-73.112	28.620	
323.00	-72.747	2.690	
324.00	-74.565	-30.178	
325.00	-73.652	-60.961	
326.00	-74.829	-78.315	
327.00	-74.989	-128.011	
328.00	-73.526	-147.678	
329.00	-74.710	174.013	
330.00	-74.790	163.305	
331.00	-74.881	150.139	
332.00	-75.166	141.445	
333.00	-74.590	126.205	
334.00	-76.877	103.699	
335.00	-77.247	69.359	
336.00	-80.161	61.426	
337.00	-83.812	52.187	
338.00	-91.083	-6.271	
339.00	-87.486	-96.915	
340.00	-86.028	-148.558	
341.00	-81.676	-160.353	
342.00	-81.070	-169.708	
343.00	-81.146	162.072	
344.00	-79.949	141.144	
345.00	-77.794	122.918	
346.00	-76.765	104.931	
347.00	-75.166	91.669	
348.00	-74.962	69.335	
349.00	-74.145	56.994	
350.00	-73.377	35.577	
351.00	-72.722	44.444	
352.00	-72.578	38.644	
353.00	-72.329	45.749	
354.00	-73.917	31.404	
355.00	-74.863	33.936	
356.00	-78.583	50.730	
357.00	-80.274	61.301	
358.00	-86.095	77.810	
359.00	-92.446	117.227	
Frequency	3700.00	MHz	
Channel	test		
Scan Axis name	Azimuth  [deg]		
Scan Axis	Amplitude	Phase	
			
0.00	-79.717	-9.464	
1.00	-76.714	-10.091	
2.00	-75.970	-4.164	
3.00	-75.146	-4.457	
4.00	-74.494	-10.541	
5.00	-75.310	-9.103	
6.00	-75.734	-9.102	
7.00	-76.442	-13.298	
8.00	-79.614	-11.857	
9.00	-80.382	-14.602	
10.00	-84.918	-65.014	
11.00	-83.922	-80.315	
12.00	-80.501	-92.298	
13.00	-79.110	-105.966	
14.00	-76.025	-97.087	
15.00	-77.078	-100.608	
16.00	-76.516	-87.710	
17.00	-74.462	-80.622	
18.00	-75.343	-74.317	
19.00	-75.270	-54.048	
20.00	-76.342	-41.453	
21.00	-77.003	-16.491	
22.00	-76.557	6.981	
23.00	-77.129	39.654	
24.00	-76.111	56.859	
25.00	-75.811	84.134	
26.00	-74.059	109.718	
27.00	-73.710	128.059	
28.00	-73.650	153.553	
29.00	-72.243	-178.902	
30.00	-71.621	-154.276	
31.00	-70.838	-132.661	
32.00	-70.228	-119.608	
33.00	-69.718	-90.742	
34.00	-69.498	-72.785	
35.00	-70.100	-48.935	
36.00	-70.381	-28.653	
37.00	-70.223	-1.224	
38.00	-70.642	14.260	
39.00	-71.282	53.822	
40.00	-70.896	87.230	
41.00	-70.969	111.607	
42.00	-69.453	145.526	
43.00	-69.004	168.197	
44.00	-68.299	-167.115	
45.00	-68.187	-142.165	
46.00	-67.998	-115.272	
47.00	-68.438	-90.780	
48.00	-67.856	-63.012	
49.00	-67.748	-39.269	
50.00	-67.950	-11.541	
51.00	-68.250	16.941	
52.00	-68.265	42.845	
53.00	-67.696	81.126	
54.00	-68.175	99.350	
55.00	-67.665	123.072	
56.00	-67.668	163.332	
57.00	-67.918	179.252	
58.00	-67.350	-141.685	
59.00	-67.752	-117.223	
60.00	-67.158	-95.361	
61.00	-67.083	-71.864	
62.00	-66.478	-36.858	
63.00	-66.599	-21.536	
64.00	-68.195	31.520	
65.00	-68.486	41.293	
66.00	-69.473	80.916	
67.00	-70.295	103.910	
68.00	-71.056	143.584	
69.00	-70.829	143.714	
70.00	-70.694	172.041	
71.00	-71.075	-162.254	
72.00	-69.516	-123.461	
73.00	-68.483	-99.213	
74.00	-68.989	-84.493	
75.00	-68.989	-51.658	
76.00	-70.123	-28.176	
77.00	-70.299	-0.162	
78.00	-71.094	18.539	
79.00	-70.946	55.986	
80.00	-69.985	65.190	
81.00	-69.334	80.118	
82.00	-68.114	117.792	
83.00	-67.041	123.714	
84.00	-65.759	171.941	
85.00	-64.819	-179.453	
86.00	-63.565	-121.176	
87.00	-62.967	-119.047	
88.00	-62.788	-67.614	
89.00	-62.116	-53.087	
90.00	-62.207	-13.347	
91.00	-61.624	15.963	
92.00	-60.780	31.728	
93.00	-60.332	80.289	
94.00	-59.423	89.115	
95.00	-58.296	135.361	
96.00	-57.630	143.351	
97.00	-56.511	-166.525	
98.00	-55.780	-163.136	
99.00	-55.003	-118.906	
100.00	-54.228	-93.794	
101.00	-53.697	-67.272	
102.00	-53.070	-35.099	
103.00	-52.586	-20.067	
104.00	-51.901	9.225	
105.00	-51.532	27.217	
106.00	-50.925	60.016	
107.00	-50.336	82.249	
108.00	-49.821	108.013	
109.00	-49.198	135.590	
110.00	-48.567	159.410	
111.00	-48.072	-178.782	
112.00	-47.533	-151.352	
113.00	-47.081	-125.837	
114.00	-46.565	-98.340	
115.00	-46.160	-89.764	
116.00	-45.734	-68.251	
117.00	-45.336	-53.613	
118.00	-44.943	-44.666	
119.00	-44.554	-25.161	
120.00	-44.172	-13.834	
121.00	-43.839	7.048	
122.00	-43.506	33.836	
123.00	-43.141	59.679	
124.00	-42.842	74.871	
125.00	-42.528	90.044	
126.00	-42.204	121.249	
127.00	-41.917	137.873	
128.00	-41.631	168.359	
129.00	-41.298	-166.229	
130.00	-41.063	-137.868	
131.00	-40.740	-112.298	
132.00	-40.521	-104.875	
133.00	-40.290	-95.639	
134.00	-40.097	-100.800	
135.00	-39.904	-71.230	
136.00	-39.712	-67.632	
137.00	-39.552	-52.346	
138.00	-39.390	-35.951	
139.00	-39.201	-13.649	
140.00	-39.110	-6.499	
141.00	-38.944	24.567	
142.00	-38.794	16.631	
143.00	-38.730	46.734	
144.00	-38.582	47.511	
145.00	-38.546	53.339	
146.00	-38.339	71.678	
147.00	-38.279	71.445	
148.00	-38.143	86.318	
149.00	-38.084	77.987	
150.00	-38.009	88.084	
151.00	-37.961	91.936	
152.00	-37.885	92.712	
153.00	-37.826	100.555	
154.00	-37.779	106.599	
155.00	-37.725	119.945	
156.00	-37.632	122.311	
157.00	-37.604	122.962	
158.00	-37.561	126.908	
159.00	-37.511	129.263	
160.00	-37.467	144.793	
161.00	-37.376	164.816	
162.00	-37.348	156.817	
163.00	-37.350	-177.696	
164.00	-37.271	-177.069	
165.00	-37.261	-164.607	
166.00	-37.159	-160.403	
167.00	-37.153	-174.119	
168.00	-37.123	-161.126	
169.00	-37.105	-159.323	
170.00	-37.118	-151.627	
171.00	-37.125	-159.990	
172.00	-37.172	-160.529	
173.00	-37.161	-134.993	
174.00	-37.220	-162.053	
175.00	-37.229	-140.995	
176.00	-37.301	-165.158	
177.00	-37.262	-159.641	
178.00	-37.313	-171.398	
179.00	-37.366	-162.209	
180.00	-37.407	161.028	
181.00	-37.408	-170.222	
182.00	-37.430	178.976	
183.00	-37.403	171.304	
184.00	-37.369	-172.971	
185.00	-37.432	150.222	
186.00	-37.398	162.476	
187.00	-37.359	162.201	
188.00	-37.317	157.353	
189.00	-37.337	157.398	
190.00	-37.342	140.508	
191.00	-37.380	122.057	
192.00	-37.389	125.598	
193.00	-37.484	104.029	
194.00	-37.534	97.778	
195.00	-37.739	77.894	
196.00	-37.827	30.209	
197.00	-37.977	40.881	
198.00	-38.116	27.112	
199.00	-38.308	0.508	
200.00	-38.418	-4.509	
201.00	-38.619	-38.971	
202.00	-38.760	-25.054	
203.00	-39.047	-51.526	
204.00	-39.024	-85.738	
205.00	-39.125	-91.398	
206.00	-39.293	-105.067	
207.00	-39.358	-141.438	
208.00	-39.398	-145.853	
209.00	-39.503	-145.400	
210.00	-39.505	174.660	
211.00	-39.609	-178.710	
212.00	-39.631	126.754	
213.00	-39.640	150.173	
214.00	-40.014	87.624	
215.00	-39.735	80.888	
216.00	-39.908	52.270	
217.00	-39.746	35.453	
218.00	-39.870	13.159	
219.00	-39.857	0.328	
220.00	-39.941	-34.136	
221.00	-40.024	-35.013	
222.00	-40.176	-78.179	
223.00	-40.234	-83.833	
224.00	-40.357	-120.997	
225.00	-40.534	-112.958	
226.00	-40.815	-149.509	
227.00	-40.905	-168.476	
228.00	-41.311	160.953	
229.00	-41.386	129.590	
230.00	-41.639	125.629	
231.00	-41.849	98.383	
232.00	-42.166	79.037	
233.00	-42.380	55.429	
234.00	-42.765	31.437	
235.00	-42.950	6.970	
236.00	-43.269	-19.193	
237.00	-43.542	-37.192	
238.00	-43.968	-69.211	
239.00	-44.239	-95.595	
240.00	-44.717	-111.391	
241.00	-45.198	-153.863	
242.00	-45.538	-162.881	
243.00	-46.445	155.122	
244.00	-46.527	131.476	
245.00	-47.269	113.836	
246.00	-47.392	78.593	
247.00	-48.020	63.129	
248.00	-48.241	17.867	
249.00	-48.771	2.006	
250.00	-49.114	-29.509	
251.00	-49.726	-52.316	
252.00	-50.082	-82.983	
253.00	-50.794	-104.300	
254.00	-51.281	-137.604	
255.00	-52.112	-164.652	
256.00	-52.547	154.347	
257.00	-53.285	123.644	
258.00	-53.814	86.704	
259.00	-54.219	54.408	
260.00	-54.616	24.385	
261.00	-55.133	-28.088	
262.00	-55.334	-54.224	
263.00	-55.891	-67.716	
264.00	-56.594	-98.368	
265.00	-57.054	-119.213	
266.00	-57.813	-152.087	
267.00	-58.519	173.263	
268.00	-59.157	140.837	
269.00	-59.997	109.908	
270.00	-60.611	75.656	
271.00	-61.169	34.107	
272.00	-61.249	-2.963	
273.00	-61.870	-28.492	
274.00	-62.158	-66.122	
275.00	-63.027	-96.294	
276.00	-63.700	-141.994	
277.00	-64.356	-154.743	
278.00	-65.431	156.026	
279.00	-66.544	141.222	
280.00	-67.034	91.520	
281.00	-67.275	62.237	
282.00	-68.119	25.239	
283.00	-68.663	-5.704	
284.00	-68.783	-42.377	
285.00	-69.645	-74.865	
286.00	-70.824	-104.695	
287.00	-71.572	-136.393	
288.00	-73.369	171.095	
289.00	-74.806	138.779	
290.00	-76.217	64.691	
291.00	-74.258	21.033	
292.00	-72.813	-34.339	
293.00	-71.570	-67.824	
294.00	-71.381	-104.306	
295.00	-70.719	-128.787	
296.00	-72.002	-147.689	
297.00	-73.000	176.237	
298.00	-72.774	162.900	
299.00	-74.548	103.328	
300.00	-75.452	81.323	
301.00	-75.270	28.841	
302.00	-74.220	20.749	
303.00	-72.227	-19.875	
304.00	-73.135	-47.548	
305.00	-72.553	-64.360	
306.00	-73.417	-95.458	
307.00	-74.306	-108.138	
308.00	-77.759	-121.259	
309.00	-80.704	-172.778	
310.00	-82.363	166.407	
311.00	-81.742	37.280	
312.00	-81.714	36.078	
313.00	-77.917	-35.389	
314.00	-77.659	-31.128	
315.00	-76.037	-66.648	
316.00	-75.110	-92.914	
317.00	-77.527	-119.226	
318.00	-78.373	-144.193	
319.00	-78.008	179.555	
320.00	-78.151	159.465	
321.00	-77.269	127.215	
322.00	-78.307	104.421	
323.00	-76.741	77.366	
324.00	-76.395	20.571	
325.00	-76.524	11.746	
326.00	-76.745	-23.736	
327.00	-74.981	-59.831	
328.00	-74.905	-74.176	
329.00	-75.082	-113.976	
330.00	-75.089	-116.606	
331.00	-73.978	-138.257	
332.00	-75.644	-148.174	
333.00	-77.235	-146.107	
334.00	-80.375	-161.175	
335.00	-83.213	161.832	
336.00	-91.554	108.264	
337.00	-94.546	96.123	
338.00	-90.517	-17.136	
339.00	-85.741	-50.093	
340.00	-82.482	-68.753	
341.00	-79.586	-78.556	
342.00	-80.422	-86.574	
343.00	-79.445	-93.065	
344.00	-79.623	-117.090	
345.00	-79.932	-137.705	
346.00	-82.158	-168.122	
347.00	-81.055	179.171	
348.00	-80.159	138.393	
349.00	-79.373	126.947	
350.00	-77.725	111.099	
351.00	-78.547	118.613	
352.00	-79.213	109.058	
353.00	-82.750	116.773	
354.00	-82.058	91.807	
355.00	-88.009	93.943	
356.00	-92.619	138.451	
357.00	-87.169	-90.648	
358.00	-81.969	-106.291	
359.00	-81.364	-97.594	
Frequency	3750.00	MHz	
Channel	test		
Scan Axis name	Azimuth  [deg]		
Scan Axis	Amplitude	Phase	
			
0.00	-76.980	92.434	
1.00	-75.108	96.240	
2.00	-74.680	89.283	
3.00	-75.955	88.285	
4.00	-75.467	85.481	
5.00	-75.934	88.802	
6.00	-77.605	93.657	
7.00	-83.717	102.640	
8.00	-84.922	138.028	
9.00	-87.368	174.467	
10.00	-87.300	-134.967	
11.00	-84.487	-144.185	
12.00	-80.540	-96.551	
13.00	-79.830	-100.503	
14.00	-78.346	-75.880	
15.00	-79.163	-82.685	
16.00	-76.279	-54.669	
17.00	-79.058	-64.903	
18.00	-77.725	-33.866	
19.00	-78.213	-9.718	
20.00	-79.775	30.365	
21.00	-80.206	37.820	
22.00	-79.516	71.478	
23.00	-78.391	85.843	
24.00	-76.396	119.353	
25.00	-76.940	132.393	
26.00	-74.947	157.912	
27.00	-74.988	174.386	
28.00	-74.171	-162.244	
29.00	-73.476	-131.777	
30.00	-73.418	-107.919	
31.00	-72.841	-80.320	
32.00	-72.267	-63.288	
33.00	-72.382	-39.481	
34.00	-71.945	-21.659	
35.00	-71.243	15.865	
36.00	-72.451	29.831	
37.00	-71.223	55.599	
38.00	-71.893	73.584	
39.00	-71.823	112.271	
40.00	-71.371	136.116	
41.00	-71.546	170.443	
42.00	-72.006	-170.242	
43.00	-71.760	-135.910	
44.00	-71.177	-99.294	
45.00	-70.714	-80.845	
46.00	-69.632	-46.719	
47.00	-70.470	-26.379	
48.00	-69.140	5.437	
49.00	-68.973	29.867	
50.00	-68.546	56.375	
51.00	-68.516	80.568	
52.00	-68.266	102.739	
53.00	-68.357	135.623	
54.00	-68.484	155.616	
55.00	-68.850	-175.730	
56.00	-69.467	-139.852	
57.00	-70.211	-125.749	
58.00	-69.962	-82.734	
59.00	-69.270	-54.792	
60.00	-70.314	-31.669	
61.00	-69.297	-3.882	
62.00	-68.830	30.821	
63.00	-68.863	48.246	
64.00	-69.358	96.872	
65.00	-69.673	114.050	
66.00	-70.721	155.284	
67.00	-70.341	169.498	
68.00	-70.886	-149.306	
69.00	-70.995	-150.925	
70.00	-71.033	-129.664	
71.00	-71.816	-106.015	
72.00	-71.734	-61.804	
73.00	-71.031	-31.172	
74.00	-71.080	-12.493	
75.00	-70.234	20.643	
76.00	-70.154	46.895	
77.00	-69.726	81.016	
78.00	-68.317	103.978	
79.00	-67.656	131.973	
80.00	-66.757	140.769	
81.00	-66.577	156.571	
82.00	-65.625	-170.811	
83.00	-65.177	-165.084	
84.00	-64.401	-112.775	
85.00	-64.327	-103.241	
86.00	-63.857	-29.274	
87.00	-63.687	-30.095	
88.00	-62.872	30.676	
89.00	-61.697	47.446	
90.00	-61.721	91.008	
91.00	-60.247	121.256	
92.00	-59.332	134.226	
93.00	-58.780	-179.546	
94.00	-57.977	-172.231	
95.00	-56.817	-128.533	
96.00	-56.328	-121.342	
97.00	-55.840	-68.915	
98.00	-55.340	-65.842	
99.00	-54.614	-20.236	
100.00	-53.770	4.047	
101.00	-53.318	34.138	
102.00	-52.700	65.347	
103.00	-51.902	81.736	
104.00	-51.343	110.329	
105.00	-50.819	128.609	
106.00	-50.314	160.738	
107.00	-49.720	-177.544	
108.00	-49.128	-151.999	
109.00	-48.647	-124.309	
110.00	-48.197	-100.601	
111.00	-47.736	-77.962	
112.00	-47.368	-50.212	
113.00	-46.869	-23.428	
114.00	-46.317	4.806	
115.00	-46.003	13.930	
116.00	-45.519	35.383	
117.00	-45.104	50.581	
118.00	-44.749	59.884	
119.00	-44.278	80.301	
120.00	-43.885	92.124	
121.00	-43.539	113.486	
122.00	-43.235	140.853	
123.00	-42.821	166.792	
124.00	-42.522	-177.515	
125.00	-42.226	-162.340	
126.00	-41.887	-130.022	
127.00	-41.705	-113.099	
128.00	-41.438	-82.167	
129.00	-41.126	-55.879	
130.00	-40.951	-26.637	
131.00	-40.635	-0.570	
132.00	-40.448	7.458	
133.00	-40.264	16.477	
134.00	-40.084	12.129	
135.00	-39.893	42.752	
136.00	-39.726	46.241	
137.00	-39.565	61.853	
138.00	-39.404	78.802	
139.00	-39.243	100.908	
140.00	-39.176	108.781	
141.00	-38.987	139.788	
142.00	-38.846	131.779	
143.00	-38.810	162.781	
144.00	-38.669	162.084	
145.00	-38.638	169.373	
146.00	-38.438	-173.044	
147.00	-38.378	-172.301	
148.00	-38.211	-158.265	
149.00	-38.100	-166.375	
150.00	-37.988	-155.969	
151.00	-37.896	-152.196	
152.00	-37.796	-151.209	
153.00	-37.718	-143.366	
154.00	-37.622	-136.787	
155.00	-37.526	-123.404	
156.00	-37.411	-121.163	
157.00	-37.370	-120.140	
158.00	-37.306	-116.092	
159.00	-37.227	-113.354	
160.00	-37.185	-97.581	
161.00	-37.106	-77.315	
162.00	-37.048	-85.764	
163.00	-37.052	-59.047	
164.00	-36.977	-59.567	
165.00	-36.962	-45.921	
166.00	-36.888	-42.791	
167.00	-36.841	-56.082	
168.00	-36.809	-43.169	
169.00	-36.776	-41.516	
170.00	-36.755	-33.792	
171.00	-36.747	-42.608	
172.00	-36.766	-42.558	
173.00	-36.724	-17.257	
174.00	-36.736	-45.122	
175.00	-36.758	-23.079	
176.00	-36.780	-48.274	
177.00	-36.761	-41.981	
178.00	-36.786	-53.710	
179.00	-36.870	-44.825	
180.00	-36.890	-81.717	
181.00	-36.937	-51.734	
182.00	-36.967	-63.659	
183.00	-36.989	-70.563	
184.00	-36.991	-55.119	
185.00	-37.080	-93.011	
186.00	-37.107	-79.205	
187.00	-37.093	-80.763	
188.00	-37.078	-84.891	
189.00	-37.116	-85.440	
190.00	-37.144	-102.664	
191.00	-37.179	-121.224	
192.00	-37.224	-117.410	
193.00	-37.312	-140.016	
194.00	-37.354	-145.941	
195.00	-37.552	-166.791	
196.00	-37.596	146.281	
197.00	-37.740	157.022	
198.00	-37.874	143.434	
199.00	-38.096	116.467	
200.00	-38.195	112.237	
201.00	-38.416	77.335	
202.00	-38.543	92.565	
203.00	-38.836	64.258	
204.00	-38.831	30.804	
205.00	-38.940	26.208	
206.00	-39.131	11.432	
207.00	-39.249	-24.966	
208.00	-39.293	-28.281	
209.00	-39.436	-28.738	
210.00	-39.454	-68.786	
211.00	-39.511	-62.453	
212.00	-39.558	-117.200	
213.00	-39.581	-92.834	
214.00	-39.937	-158.167	
215.00	-39.649	-162.577	
216.00	-39.819	166.759	
217.00	-39.633	151.070	
218.00	-39.754	127.252	
219.00	-39.723	115.082	
220.00	-39.818	79.534	
221.00	-39.871	78.947	
222.00	-40.025	34.737	
223.00	-40.082	29.188	
224.00	-40.172	-8.686	
225.00	-40.287	-0.096	
226.00	-40.563	-38.225	
227.00	-40.601	-56.824	
228.00	-40.937	-88.776	
229.00	-40.941	-119.011	
230.00	-41.187	-124.117	
231.00	-41.353	-150.957	
232.00	-41.654	-170.845	
233.00	-41.865	165.707	
234.00	-42.217	141.021	
235.00	-42.448	116.398	
236.00	-42.803	90.072	
237.00	-43.085	71.438	
238.00	-43.498	38.085	
239.00	-43.756	12.002	
240.00	-44.166	-4.626	
241.00	-44.622	-48.352	
242.00	-44.859	-56.133	
243.00	-45.663	-100.280	
244.00	-45.767	-121.357	
245.00	-46.439	-141.629	
246.00	-46.566	-174.365	
247.00	-47.181	167.882	
248.00	-47.350	123.525	
249.00	-47.949	106.811	
250.00	-48.286	75.065	
251.00	-48.982	51.660	
252.00	-49.292	21.317	
253.00	-49.928	-0.977	
254.00	-50.383	-34.021	
255.00	-51.001	-62.487	
256.00	-51.482	-102.403	
257.00	-52.158	-133.022	
258.00	-52.722	-170.001	
259.00	-53.215	158.627	
260.00	-53.701	128.193	
261.00	-54.349	74.247	
262.00	-54.755	47.887	
263.00	-55.124	33.092	
264.00	-55.563	1.340	
265.00	-56.213	-21.109	
266.00	-56.850	-54.076	
267.00	-57.370	-89.082	
268.00	-57.793	-120.628	
269.00	-58.546	-151.568	
270.00	-58.992	177.128	
271.00	-59.726	135.983	
272.00	-59.962	100.031	
273.00	-60.990	74.906	
274.00	-61.473	34.900	
275.00	-62.760	2.784	
276.00	-62.758	-48.013	
277.00	-63.452	-60.319	
278.00	-64.178	-106.993	
279.00	-64.403	-123.790	
280.00	-64.696	-169.250	
281.00	-65.140	162.481	
282.00	-65.777	125.958	
283.00	-66.584	100.881	
284.00	-67.538	62.928	
285.00	-68.108	31.432	
286.00	-69.803	-2.165	
287.00	-71.484	-38.632	
288.00	-71.988	-93.298	
289.00	-73.498	-120.587	
290.00	-74.292	-176.777	
291.00	-74.504	146.790	
292.00	-75.373	92.587	
293.00	-74.847	53.402	
294.00	-76.117	3.166	
295.00	-76.044	-19.687	
296.00	-76.164	-47.674	
297.00	-76.591	-96.434	
298.00	-76.627	-107.275	
299.00	-76.562	-170.354	
300.00	-77.433	168.010	
301.00	-76.981	131.744	
302.00	-76.497	125.283	
303.00	-78.437	72.554	
304.00	-78.849	55.311	
305.00	-78.839	18.485	
306.00	-80.656	-6.871	
307.00	-82.659	-37.776	
308.00	-82.095	-69.433	
309.00	-83.629	-120.417	
310.00	-82.018	-139.233	
311.00	-82.193	143.554	
312.00	-83.575	150.788	
313.00	-86.937	75.211	
314.00	-87.566	55.961	
315.00	-90.666	-42.141	
316.00	-88.445	-53.192	
317.00	-84.352	-104.677	
318.00	-80.700	-148.436	
319.00	-79.392	-164.363	
320.00	-77.414	170.547	
321.00	-76.014	155.051	
322.00	-76.810	133.683	
323.00	-77.054	105.724	
324.00	-76.096	69.720	
325.00	-74.832	54.361	
326.00	-76.256	13.972	
327.00	-75.598	-15.757	
328.00	-74.144	-40.623	
329.00	-73.933	-79.003	
330.00	-74.302	-80.102	
331.00	-75.626	-100.513	
332.00	-74.436	-117.505	
333.00	-74.759	-128.208	
334.00	-76.114	-152.889	
335.00	-77.995	170.230	
336.00	-76.713	138.465	
337.00	-80.715	119.601	
338.00	-81.626	102.188	
339.00	-82.863	64.987	
340.00	-84.786	20.958	
341.00	-87.555	-32.928	
342.00	-93.222	-66.654	
343.00	-93.722	-75.876	
344.00	-82.055	-116.902	
345.00	-81.834	-128.595	
346.00	-79.239	-161.428	
347.00	-77.525	-164.251	
348.00	-76.610	171.993	
349.00	-75.516	172.340	
350.00	-75.413	146.277	
351.00	-74.985	144.695	
352.00	-75.345	126.958	
353.00	-77.379	141.771	
354.00	-78.791	108.610	
355.00	-80.205	120.452	
356.00	-84.387	86.844	
357.00	-81.711	57.033	
358.00	-81.761	44.830	
359.00	-81.055	18.182	
Frequency	3800.00	MHz	
Channel	test		
Scan Axis name	Azimuth  [deg]		
Scan Axis	Amplitude	Phase	
			
0.00	-75.376	155.814	
1.00	-76.221	152.210	
2.00	-74.982	140.340	
3.00	-75.910	147.485	
4.00	-74.805	150.188	
5.00	-76.932	147.627	
6.00	-78.625	147.978	
7.00	-81.927	172.872	
8.00	-83.121	-178.113	
9.00	-83.976	-142.148	
10.00	-83.321	-85.038	
11.00	-80.068	-68.498	
12.00	-79.653	-54.357	
13.00	-77.300	-61.047	
14.00	-77.366	-38.657	
15.00	-77.328	-42.434	
16.00	-77.627	-11.820	
17.00	-79.415	-9.186	
18.00	-82.155	16.469	
19.00	-82.541	35.119	
20.00	-84.177	49.247	
21.00	-85.627	105.933	
22.00	-81.609	153.785	
23.00	-79.198	179.206	
24.00	-77.364	-166.185	
25.00	-76.104	-141.692	
26.00	-74.326	-128.186	
27.00	-73.295	-114.136	
28.00	-73.990	-92.146	
29.00	-73.362	-78.211	
30.00	-73.777	-45.414	
31.00	-73.381	-26.294	
32.00	-73.097	-6.082	
33.00	-72.729	18.045	
34.00	-74.441	38.339	
35.00	-74.170	75.899	
36.00	-73.966	94.749	
37.00	-74.323	133.241	
38.00	-73.349	145.328	
39.00	-73.116	-173.637	
40.00	-72.110	-147.281	
41.00	-72.104	-115.044	
42.00	-72.007	-90.650	
43.00	-72.022	-61.235	
44.00	-71.131	-30.853	
45.00	-71.922	-5.743	
46.00	-70.826	27.707	
47.00	-70.541	51.360	
48.00	-70.122	80.491	
49.00	-70.229	105.312	
50.00	-69.903	134.243	
51.00	-69.422	159.870	
52.00	-69.676	-174.038	
53.00	-69.132	-145.482	
54.00	-69.506	-119.533	
55.00	-70.432	-97.645	
56.00	-70.887	-57.617	
57.00	-70.018	-36.688	
58.00	-71.669	2.190	
59.00	-71.100	38.808	
60.00	-70.711	60.198	
61.00	-70.040	84.118	
62.00	-70.156	126.211	
63.00	-69.982	140.993	
64.00	-70.341	-159.943	
65.00	-69.815	-151.330	
66.00	-70.020	-116.279	
67.00	-70.505	-93.542	
68.00	-70.937	-57.333	
69.00	-70.730	-55.619	
70.00	-71.479	-33.062	
71.00	-70.764	-9.812	
72.00	-70.431	35.137	
73.00	-70.538	63.724	
74.00	-70.255	84.288	
75.00	-69.779	119.988	
76.00	-69.922	148.544	
77.00	-69.366	178.519	
78.00	-68.353	-164.346	
79.00	-68.304	-130.817	
80.00	-67.365	-121.431	
81.00	-67.269	-107.717	
82.00	-66.715	-71.256	
83.00	-66.228	-61.706	
84.00	-65.543	-15.561	
85.00	-65.455	-2.798	
86.00	-64.126	66.417	
87.00	-63.502	67.822	
88.00	-63.050	130.326	
89.00	-62.120	142.069	
90.00	-61.706	-173.678	
91.00	-60.397	-147.295	
92.00	-60.211	-131.854	
93.00	-59.234	-85.104	
94.00	-58.780	-76.193	
95.00	-57.931	-30.889	
96.00	-57.199	-23.809	
97.00	-56.547	27.004	
98.00	-55.801	32.314	
99.00	-55.108	78.917	
100.00	-54.328	103.242	
101.00	-53.757	132.045	
102.00	-53.006	163.762	
103.00	-52.571	179.524	
104.00	-51.959	-151.074	
105.00	-51.515	-133.078	
106.00	-50.897	-99.421	
107.00	-50.444	-77.093	
108.00	-49.808	-50.542	
109.00	-49.240	-21.931	
110.00	-48.669	2.395	
111.00	-48.103	25.559	
112.00	-47.532	53.631	
113.00	-47.085	80.979	
114.00	-46.501	108.182	
115.00	-46.023	117.630	
116.00	-45.541	139.569	
117.00	-45.089	154.494	
118.00	-44.649	164.396	
119.00	-44.244	-175.212	
120.00	-43.836	-162.674	
121.00	-43.441	-140.991	
122.00	-43.073	-112.341	
123.00	-42.623	-86.372	
124.00	-42.279	-69.851	
125.00	-41.971	-53.883	
126.00	-41.611	-20.788	
127.00	-41.337	-3.338	
128.00	-41.015	28.426	
129.00	-40.702	55.280	
130.00	-40.472	84.916	
131.00	-40.139	110.865	
132.00	-39.934	119.795	
133.00	-39.710	128.717	
134.00	-39.523	125.289	
135.00	-39.336	156.289	
136.00	-39.152	159.947	
137.00	-39.012	176.423	
138.00	-38.888	-165.912	
139.00	-38.729	-143.504	
140.00	-38.675	-134.733	
141.00	-38.520	-103.572	
142.00	-38.413	-111.468	
143.00	-38.360	-79.348	
144.00	-38.257	-81.004	
145.00	-38.240	-71.884	
146.00	-38.068	-55.372	
147.00	-38.006	-53.570	
148.00	-37.883	-40.054	
149.00	-37.775	-47.875	
150.00	-37.685	-37.374	
151.00	-37.609	-33.756	
152.00	-37.515	-32.448	
153.00	-37.432	-24.812	
154.00	-37.344	-17.956	
155.00	-37.256	-4.595	
156.00	-37.169	-2.490	
157.00	-37.130	-1.319	
158.00	-37.054	2.578	
159.00	-37.007	5.802	
160.00	-36.984	21.802	
161.00	-36.910	42.213	
162.00	-36.862	33.621	
163.00	-36.878	61.314	
164.00	-36.814	59.724	
165.00	-36.825	74.775	
166.00	-36.751	76.826	
167.00	-36.728	64.184	
168.00	-36.711	77.009	
169.00	-36.675	79.026	
170.00	-36.676	86.640	
171.00	-36.667	77.680	
172.00	-36.722	78.634	
173.00	-36.689	103.812	
174.00	-36.702	75.739	
175.00	-36.740	98.148	
176.00	-36.796	72.543	
177.00	-36.799	79.167	
178.00	-36.839	67.754	
179.00	-36.960	76.198	
180.00	-36.952	39.554	
181.00	-37.039	70.620	
182.00	-37.113	57.460	
183.00	-37.141	51.438	
184.00	-37.184	66.539	
185.00	-37.282	27.970	
186.00	-37.315	43.142	
187.00	-37.315	40.315	
188.00	-37.312	36.993	
189.00	-37.341	35.726	
190.00	-37.380	18.103	
191.00	-37.408	-0.296	
192.00	-37.415	3.459	
193.00	-37.484	-19.798	
194.00	-37.482	-25.168	
195.00	-37.655	-47.315	
196.00	-37.658	-93.754	
197.00	-37.785	-83.056	
198.00	-37.883	-96.364	
199.00	-38.075	-124.144	
200.00	-38.167	-127.406	
201.00	-38.355	-162.682	
202.00	-38.490	-146.110	
203.00	-38.793	-176.174	
204.00	-38.859	151.056	
205.00	-38.990	147.171	
206.00	-39.215	131.486	
207.00	-39.366	94.847	
208.00	-39.454	92.361	
209.00	-39.632	90.927	
210.00	-39.672	50.784	
211.00	-39.806	56.512	
212.00	-39.869	0.990	
213.00	-39.861	26.298	
214.00	-40.300	-42.259	
215.00	-40.033	-44.643	
216.00	-40.217	-78.079	
217.00	-40.036	-92.742	
218.00	-40.185	-118.243	
219.00	-40.122	-130.202	
220.00	-40.247	-166.758	
221.00	-40.256	-167.166	
222.00	-40.406	146.967	
223.00	-40.472	141.515	
224.00	-40.570	102.671	
225.00	-40.625	111.845	
226.00	-40.899	71.718	
227.00	-40.923	53.931	
228.00	-41.270	19.910	
229.00	-41.276	-9.184	
230.00	-41.532	-15.477	
231.00	-41.654	-41.867	
232.00	-41.935	-63.128	
233.00	-42.123	-86.614	
234.00	-42.456	-112.010	
235.00	-42.626	-136.663	
236.00	-42.934	-163.532	
237.00	-43.245	177.618	
238.00	-43.629	143.240	
239.00	-43.891	117.536	
240.00	-44.272	100.572	
241.00	-44.725	56.221	
242.00	-44.984	48.964	
243.00	-45.783	2.143	
244.00	-45.906	-16.831	
245.00	-46.601	-39.516	
246.00	-46.694	-70.926	
247.00	-47.336	-90.842	
248.00	-47.467	-134.840	
249.00	-48.040	-152.579	
250.00	-48.328	175.927	
251.00	-48.929	151.554	
252.00	-49.306	120.914	
253.00	-49.891	98.180	
254.00	-50.343	65.047	
255.00	-50.991	36.034	
256.00	-51.336	-3.579	
257.00	-51.984	-34.347	
258.00	-52.647	-71.615	
259.00	-53.078	-102.278	
260.00	-53.684	-134.353	
261.00	-54.412	170.534	
262.00	-54.712	145.185	
263.00	-55.311	128.172	
264.00	-55.727	95.886	
265.00	-56.325	73.086	
266.00	-56.741	38.777	
267.00	-57.333	2.277	
268.00	-57.376	-27.843	
269.00	-58.040	-60.871	
270.00	-58.445	-91.622	
271.00	-58.852	-133.612	
272.00	-59.238	-169.295	
273.00	-59.821	166.129	
274.00	-60.454	129.565	
275.00	-61.710	93.220	
276.00	-62.033	50.414	
277.00	-62.912	34.370	
278.00	-63.585	-12.393	
279.00	-64.231	-29.186	
280.00	-64.679	-77.043	
281.00	-65.439	-103.537	
282.00	-65.863	-139.751	
283.00	-66.198	-170.033	
284.00	-67.149	155.235	
285.00	-67.633	119.529	
286.00	-68.673	90.019	
287.00	-70.032	59.955	
288.00	-70.893	11.218	
289.00	-72.302	-18.092	
290.00	-74.423	-81.151	
291.00	-75.473	-120.920	
292.00	-76.566	174.798	
293.00	-75.894	133.448	
294.00	-75.884	88.772	
295.00	-74.306	66.729	
296.00	-75.382	40.443	
297.00	-73.895	7.513	
298.00	-74.495	-11.169	
299.00	-76.578	-68.612	
300.00	-77.493	-80.284	
301.00	-78.755	-128.363	
302.00	-79.309	-134.239	
303.00	-79.021	168.737	
304.00	-79.571	145.696	
305.00	-80.528	112.311	
306.00	-82.289	56.209	
307.00	-84.162	41.533	
308.00	-86.723	11.666	
309.00	-84.770	-59.145	
310.00	-85.295	-70.523	
311.00	-81.410	-142.044	
312.00	-81.726	-156.773	
313.00	-83.147	176.868	
314.00	-84.243	174.173	
315.00	-87.424	153.807	
316.00	-88.936	156.349	
317.00	-93.035	-95.830	
318.00	-91.741	-96.588	
319.00	-85.274	-147.172	
320.00	-84.460	-140.803	
321.00	-81.844	-168.899	
322.00	-81.551	-177.478	
323.00	-82.600	159.114	
324.00	-80.258	103.887	
325.00	-78.774	73.001	
326.00	-77.117	50.917	
327.00	-76.142	9.068	
328.00	-74.751	8.381	
329.00	-73.205	-24.179	
330.00	-74.120	-31.509	
331.00	-73.861	-46.047	
332.00	-74.960	-58.554	
333.00	-75.621	-68.520	
334.00	-77.346	-87.666	
335.00	-78.277	-125.701	
336.00	-80.138	-167.097	
337.00	-82.627	-173.511	
338.00	-85.000	140.602	
339.00	-86.621	121.723	
340.00	-84.138	91.206	
341.00	-85.477	52.690	
342.00	-85.763	28.522	
343.00	-94.795	43.083	
344.00	-85.178	-30.711	
345.00	-85.707	-88.027	
346.00	-81.651	-106.059	
347.00	-81.275	-118.065	
348.00	-79.467	-145.977	
349.00	-77.987	-153.226	
350.00	-77.198	-179.465	
351.00	-77.878	-167.783	
352.00	-78.761	166.617	
353.00	-81.809	172.906	
354.00	-79.774	148.791	
355.00	-84.567	114.535	
356.00	-83.529	101.199	
357.00	-82.823	93.444	
358.00	-78.640	64.594	
359.00	-77.870	58.052	
Frequency	3850.00	MHz	
Channel	test		
Scan Axis name	Azimuth  [deg]		
Scan Axis	Amplitude	Phase	
			
0.00	-78.437	-131.384	
1.00	-78.557	-127.715	
2.00	-77.666	-134.615	
3.00	-77.541	-137.919	
4.00	-78.847	-136.792	
5.00	-83.445	-142.059	
6.00	-87.209	-132.424	
7.00	-87.635	-118.311	
8.00	-87.775	-66.777	
9.00	-87.531	-19.816	
10.00	-82.724	-9.578	
11.00	-80.922	9.447	
12.00	-79.549	22.865	
13.00	-79.929	25.042	
14.00	-78.638	33.293	
15.00	-79.518	25.817	
16.00	-81.361	47.276	
17.00	-81.648	45.314	
18.00	-87.593	56.603	
19.00	-95.678	62.506	
20.00	-93.150	-161.518	
21.00	-89.499	-126.486	
22.00	-84.477	-128.542	
23.00	-78.918	-93.383	
24.00	-78.982	-77.587	
25.00	-76.004	-68.262	
26.00	-75.976	-58.888	
27.00	-75.713	-42.429	
28.00	-75.486	-12.654	
29.00	-75.988	4.934	
30.00	-76.742	31.593	
31.00	-77.756	57.384	
32.00	-75.705	76.996	
33.00	-76.002	104.816	
34.00	-75.517	126.757	
35.00	-76.238	158.683	
36.00	-76.065	178.572	
37.00	-76.272	-150.638	
38.00	-77.193	-119.341	
39.00	-76.515	-78.021	
40.00	-75.668	-54.439	
41.00	-74.242	-26.173	
42.00	-73.941	0.922	
43.00	-73.006	33.360	
44.00	-73.407	56.924	
45.00	-74.170	78.259	
46.00	-73.697	109.933	
47.00	-72.693	141.498	
48.00	-73.479	169.241	
49.00	-72.566	-163.013	
50.00	-72.711	-129.805	
51.00	-71.412	-102.836	
52.00	-71.837	-80.016	
53.00	-71.516	-52.704	
54.00	-71.636	-26.839	
55.00	-72.496	-1.087	
56.00	-72.706	39.282	
57.00	-72.859	62.274	
58.00	-72.941	104.502	
59.00	-72.182	137.531	
60.00	-72.206	158.659	
61.00	-72.319	-170.875	
62.00	-71.524	-135.162	
63.00	-71.454	-115.584	
64.00	-71.083	-60.631	
65.00	-71.345	-46.864	
66.00	-70.786	-10.026	
67.00	-71.171	11.263	
68.00	-71.053	39.602	
69.00	-70.908	43.858	
70.00	-71.048	65.660	
71.00	-71.601	82.299	
72.00	-73.998	125.374	
73.00	-73.558	155.236	
74.00	-74.254	174.900	
75.00	-73.734	-140.375	
76.00	-73.125	-107.085	
77.00	-72.157	-82.370	
78.00	-71.311	-59.050	
79.00	-69.620	-32.801	
80.00	-69.540	-25.940	
81.00	-69.167	-13.210	
82.00	-68.910	18.054	
83.00	-69.026	25.557	
84.00	-68.509	69.956	
85.00	-68.711	82.808	
86.00	-67.598	161.881	
87.00	-66.428	160.995	
88.00	-65.255	-129.190	
89.00	-64.017	-118.479	
90.00	-63.135	-75.900	
91.00	-62.139	-53.120	
92.00	-61.527	-34.449	
93.00	-60.604	9.767	
94.00	-60.257	16.915	
95.00	-59.518	62.766	
96.00	-58.797	72.553	
97.00	-58.082	123.620	
98.00	-57.454	128.066	
99.00	-56.783	176.721	
100.00	-56.098	-158.144	
101.00	-55.458	-126.310	
102.00	-54.626	-95.949	
103.00	-54.216	-77.384	
104.00	-53.449	-48.885	
105.00	-52.992	-29.180	
106.00	-52.395	4.175	
107.00	-51.833	27.065	
108.00	-51.259	53.669	
109.00	-50.800	83.220	
110.00	-50.163	108.424	
111.00	-49.701	132.315	
112.00	-49.050	161.532	
113.00	-48.532	-170.220	
114.00	-47.926	-142.926	
115.00	-47.427	-132.473	
116.00	-46.876	-109.990	
117.00	-46.399	-95.072	
118.00	-45.946	-84.792	
119.00	-45.440	-64.452	
120.00	-45.025	-51.500	
121.00	-44.646	-29.351	
122.00	-44.285	-0.273	
123.00	-43.860	25.357	
124.00	-43.544	42.341	
125.00	-43.228	58.567	
126.00	-42.857	92.142	
127.00	-42.589	110.004	
128.00	-42.293	142.006	
129.00	-41.967	169.023	
130.00	-41.717	-160.428	
131.00	-41.354	-135.023	
132.00	-41.146	-125.960	
133.00	-40.886	-117.638	
134.00	-40.706	-120.770	
135.00	-40.487	-89.428	
136.00	-40.309	-86.164	
137.00	-40.139	-69.349	
138.00	-39.983	-51.609	
139.00	-39.805	-29.612	
140.00	-39.741	-20.048	
141.00	-39.540	10.812	
142.00	-39.421	2.772	
143.00	-39.340	35.828	
144.00	-39.204	32.616	
145.00	-39.136	43.408	
146.00	-38.924	58.816	
147.00	-38.848	61.570	
148.00	-38.702	74.358	
149.00	-38.563	66.780	
150.00	-38.434	77.687	
151.00	-38.333	81.047	
152.00	-38.246	82.604	
153.00	-38.144	90.234	
154.00	-38.054	97.591	
155.00	-37.950	110.917	
156.00	-37.845	113.037	
157.00	-37.808	114.324	
158.00	-37.735	118.184	
159.00	-37.696	122.009	
160.00	-37.661	138.334	
161.00	-37.588	158.677	
162.00	-37.535	149.887	
163.00	-37.558	178.589	
164.00	-37.483	176.026	
165.00	-37.471	-167.611	
166.00	-37.399	-166.710	
167.00	-37.377	-178.772	
168.00	-37.360	-165.666	
169.00	-37.331	-163.385	
170.00	-37.345	-155.727	
171.00	-37.341	-164.763	
172.00	-37.406	-162.934	
173.00	-37.386	-137.942	
174.00	-37.411	-166.357	
175.00	-37.448	-143.321	
176.00	-37.506	-169.848	
177.00	-37.514	-162.572	
178.00	-37.565	-173.766	
179.00	-37.719	-165.737	
180.00	-37.736	157.758	
181.00	-37.807	-170.197	
182.00	-37.887	175.334	
183.00	-37.898	170.245	
184.00	-37.929	-174.948	
185.00	-38.013	145.619	
186.00	-38.038	162.337	
187.00	-38.044	158.371	
188.00	-38.032	155.875	
189.00	-38.023	154.178	
190.00	-38.041	136.369	
191.00	-38.069	118.121	
192.00	-38.082	122.235	
193.00	-38.140	98.402	
194.00	-38.127	93.579	
195.00	-38.334	70.410	
196.00	-38.365	24.575	
197.00	-38.487	35.047	
198.00	-38.612	21.681	
199.00	-38.821	-6.829	
200.00	-38.936	-9.828	
201.00	-39.161	-45.980	
202.00	-39.346	-28.521	
203.00	-39.669	-61.062	
204.00	-39.770	-93.957	
205.00	-39.896	-97.635	
206.00	-40.154	-115.020	
207.00	-40.273	-152.487	
208.00	-40.313	-154.618	
209.00	-40.485	-157.481	
210.00	-40.462	161.752	
211.00	-40.545	166.718	
212.00	-40.520	110.746	
213.00	-40.485	136.289	
214.00	-40.790	65.262	
215.00	-40.508	64.758	
216.00	-40.600	29.475	
217.00	-40.406	15.632	
218.00	-40.481	-10.986	
219.00	-40.390	-22.489	
220.00	-40.438	-59.520	
221.00	-40.468	-59.366	
222.00	-40.585	-105.706	
223.00	-40.655	-110.688	
224.00	-40.786	-150.009	
225.00	-40.869	-140.262	
226.00	-41.123	178.193	
227.00	-41.194	161.064	
228.00	-41.585	125.617	
229.00	-41.595	97.469	
230.00	-41.894	90.099	
231.00	-42.048	63.760	
232.00	-42.370	41.885	
233.00	-42.522	18.695	
234.00	-42.899	-7.425	
235.00	-43.126	-32.156	
236.00	-43.440	-59.321	
237.00	-43.752	-78.193	
238.00	-44.231	-113.340	
239.00	-44.501	-138.554	
240.00	-44.931	-156.286	
241.00	-45.412	158.744	
242.00	-45.744	152.526	
243.00	-46.585	103.022	
244.00	-46.685	86.228	
245.00	-47.452	61.194	
246.00	-47.587	31.281	
247.00	-48.309	9.169	
248.00	-48.444	-33.348	
249.00	-49.079	-52.485	
250.00	-49.446	-82.550	
251.00	-50.096	-109.584	
252.00	-50.516	-138.859	
253.00	-51.308	-163.606	
254.00	-51.692	164.056	
255.00	-52.339	132.562	
256.00	-52.801	92.341	
257.00	-53.388	61.006	
258.00	-53.924	24.103	
259.00	-54.453	-7.403	
260.00	-55.177	-37.975	
261.00	-55.841	-93.599	
262.00	-56.392	-118.253	
263.00	-57.196	-135.427	
264.00	-57.756	-168.271	
265.00	-58.556	167.207	
266.00	-59.332	131.794	
267.00	-59.463	93.994	
268.00	-59.729	61.078	
269.00	-60.414	27.489	
270.00	-60.531	-2.757	
271.00	-61.113	-46.971	
272.00	-61.250	-81.107	
273.00	-62.261	-105.803	
274.00	-62.922	-143.307	
275.00	-63.827	-179.294	
276.00	-65.166	134.396	
277.00	-65.667	116.361	
278.00	-66.352	70.202	
279.00	-67.017	50.463	
280.00	-67.254	2.418	
281.00	-67.954	-24.088	
282.00	-68.250	-60.214	
283.00	-68.982	-83.213	
284.00	-70.326	-122.875	
285.00	-71.600	-159.815	
286.00	-73.403	166.123	
287.00	-74.120	123.792	
288.00	-74.610	73.586	
289.00	-76.136	36.927	
290.00	-75.424	-21.169	
291.00	-76.253	-62.661	
292.00	-79.355	-114.918	
293.00	-79.842	-166.473	
294.00	-79.575	134.079	
295.00	-78.301	95.023	
296.00	-76.540	67.516	
297.00	-76.330	36.971	
298.00	-75.608	22.823	
299.00	-74.350	-29.874	
300.00	-75.273	-39.498	
301.00	-75.340	-66.506	
302.00	-77.735	-73.169	
303.00	-79.095	-108.962	
304.00	-82.176	-129.041	
305.00	-86.521	163.341	
306.00	-85.979	82.763	
307.00	-88.545	22.376	
308.00	-82.901	-8.605	
309.00	-77.753	-16.781	
310.00	-77.560	-45.754	
311.00	-76.690	-95.365	
312.00	-75.981	-96.767	
313.00	-78.083	-140.552	
314.00	-79.375	-147.090	
315.00	-81.253	162.933	
316.00	-86.240	147.507	
317.00	-86.608	56.255	
318.00	-80.632	8.196	
319.00	-78.324	-14.890	
320.00	-76.897	-35.261	
321.00	-76.970	-51.655	
322.00	-76.808	-69.331	
323.00	-77.819	-104.577	
324.00	-78.792	-133.398	
325.00	-81.786	-170.412	
326.00	-82.500	137.801	
327.00	-77.921	80.307	
328.00	-75.966	59.499	
329.00	-72.814	19.454	
330.00	-72.374	18.228	
331.00	-71.434	7.823	
332.00	-72.388	-5.267	
333.00	-72.149	-16.391	
334.00	-71.505	-32.914	
335.00	-72.171	-62.660	
336.00	-73.397	-87.648	
337.00	-75.385	-94.547	
338.00	-76.638	-116.255	
339.00	-80.003	-134.167	
340.00	-81.917	-175.631	
341.00	-85.377	157.672	
342.00	-90.305	128.219	
343.00	-91.155	100.360	
344.00	-87.914	12.815	
345.00	-81.301	22.277	
346.00	-84.305	-19.554	
347.00	-78.136	-40.602	
348.00	-78.005	-58.485	
349.00	-77.572	-61.421	
350.00	-77.940	-84.283	
351.00	-77.662	-90.228	
352.00	-77.258	-98.062	
353.00	-77.682	-95.648	
354.00	-80.331	-126.927	
355.00	-79.216	-130.945	
356.00	-82.738	-132.130	
357.00	-80.164	174.934	
358.00	-81.765	158.442	
359.00	-81.609	154.360	
Frequency	3900.00	MHz	
Channel	test		
Scan Axis name	Azimuth  [deg]		
Scan Axis	Amplitude	Phase	
			
0.00	-76.959	-82.331	
1.00	-76.432	-76.471	
2.00	-78.161	-75.950	
3.00	-76.061	-77.556	
4.00	-79.475	-94.441	
5.00	-84.198	-93.400	
6.00	-96.217	-136.587	
7.00	-89.767	121.275	
8.00	-81.298	139.648	
9.00	-82.290	115.658	
10.00	-76.984	118.280	
11.00	-78.164	110.858	
12.00	-77.597	126.180	
13.00	-75.737	126.566	
14.00	-77.089	136.859	
15.00	-77.297	136.575	
16.00	-77.481	161.134	
17.00	-81.991	165.450	
18.00	-81.153	-165.645	
19.00	-81.651	-119.430	
20.00	-83.707	-89.830	
21.00	-82.913	-68.466	
22.00	-78.658	-41.799	
23.00	-78.181	-25.586	
24.00	-77.436	8.413	
25.00	-76.772	12.706	
26.00	-76.675	39.299	
27.00	-77.187	54.401	
28.00	-77.162	79.068	
29.00	-76.966	103.830	
30.00	-76.348	131.056	
31.00	-77.225	158.613	
32.00	-75.758	172.133	
33.00	-76.207	-147.486	
34.00	-74.916	-138.229	
35.00	-77.072	-103.455	
36.00	-76.124	-66.699	
37.00	-75.288	-47.773	
38.00	-76.210	-14.994	
39.00	-76.016	24.040	
40.00	-74.386	45.172	
41.00	-74.447	77.023	
42.00	-73.635	98.496	
43.00	-73.277	124.223	
44.00	-72.626	156.405	
45.00	-72.958	176.518	
46.00	-72.973	-149.980	
47.00	-72.875	-119.554	
48.00	-71.870	-86.640	
49.00	-71.462	-66.328	
50.00	-71.207	-31.523	
51.00	-71.591	-7.545	
52.00	-70.424	28.500	
53.00	-71.757	52.696	
54.00	-71.830	80.250	
55.00	-71.163	109.621	
56.00	-70.738	146.657	
57.00	-71.453	163.726	
58.00	-70.688	-155.163	
59.00	-70.309	-129.251	
60.00	-69.895	-108.099	
61.00	-70.760	-79.279	
62.00	-70.762	-38.771	
63.00	-70.247	-21.271	
64.00	-71.020	44.326	
65.00	-70.987	50.009	
66.00	-69.915	95.055	
67.00	-69.642	117.913	
68.00	-69.659	151.760	
69.00	-69.404	152.876	
70.00	-69.513	177.625	
71.00	-70.008	-161.360	
72.00	-70.012	-120.269	
73.00	-70.757	-91.597	
74.00	-70.066	-73.237	
75.00	-70.945	-37.097	
76.00	-71.339	-6.604	
77.00	-70.217	32.393	
78.00	-70.380	48.594	
79.00	-70.292	80.371	
80.00	-69.797	86.955	
81.00	-69.860	100.651	
82.00	-69.434	146.983	
83.00	-69.330	154.100	
84.00	-68.104	-153.186	
85.00	-68.174	-149.506	
86.00	-66.827	-77.861	
87.00	-66.576	-79.763	
88.00	-65.803	-15.589	
89.00	-64.611	-12.274	
90.00	-64.398	41.849	
91.00	-63.260	63.070	
92.00	-62.820	77.270	
93.00	-61.829	119.286	
94.00	-61.295	130.643	
95.00	-60.628	172.893	
96.00	-60.402	-178.311	
97.00	-59.663	-130.305	
98.00	-59.198	-122.532	
99.00	-58.387	-74.083	
100.00	-57.744	-48.963	
101.00	-57.230	-17.479	
102.00	-56.141	14.498	
103.00	-55.726	30.475	
104.00	-54.882	61.783	
105.00	-54.277	79.936	
106.00	-53.580	113.962	
107.00	-52.933	136.432	
108.00	-52.208	163.144	
109.00	-51.678	-168.301	
110.00	-50.979	-143.550	
111.00	-50.501	-121.095	
112.00	-49.871	-91.703	
113.00	-49.368	-63.254	
114.00	-48.717	-36.497	
115.00	-48.160	-26.529	
116.00	-47.620	-4.468	
117.00	-47.090	10.575	
118.00	-46.633	21.180	
119.00	-46.088	41.093	
120.00	-45.521	54.432	
121.00	-45.050	76.902	
122.00	-44.650	105.965	
123.00	-44.162	131.412	
124.00	-43.775	148.576	
125.00	-43.428	164.592	
126.00	-43.004	-161.442	
127.00	-42.684	-143.411	
128.00	-42.356	-111.010	
129.00	-42.091	-83.371	
130.00	-41.794	-52.527	
131.00	-41.424	-27.249	
132.00	-41.208	-17.503	
133.00	-40.931	-9.131	
134.00	-40.728	-11.306	
135.00	-40.472	20.553	
136.00	-40.285	24.000	
137.00	-40.081	41.329	
138.00	-39.951	60.087	
139.00	-39.774	82.031	
140.00	-39.681	92.424	
141.00	-39.492	123.622	
142.00	-39.384	115.748	
143.00	-39.326	150.080	
144.00	-39.218	145.737	
145.00	-39.173	158.264	
146.00	-38.999	172.774	
147.00	-38.973	177.091	
148.00	-38.817	-170.984	
149.00	-38.727	-177.909	
150.00	-38.644	-166.878	
151.00	-38.577	-163.466	
152.00	-38.493	-161.434	
153.00	-38.415	-153.791	
154.00	-38.351	-146.104	
155.00	-38.267	-132.404	
156.00	-38.187	-130.296	
157.00	-38.168	-128.561	
158.00	-38.103	-124.774	
159.00	-38.076	-120.416	
160.00	-38.068	-103.489	
161.00	-38.029	-83.020	
162.00	-38.001	-91.849	
163.00	-38.052	-61.939	
164.00	-38.008	-65.668	
165.00	-37.991	-47.995	
166.00	-37.950	-48.455	
167.00	-37.917	-59.955	
168.00	-37.874	-47.121	
169.00	-37.849	-44.979	
170.00	-37.822	-37.379	
171.00	-37.794	-46.889	
172.00	-37.832	-44.132	
173.00	-37.749	-19.775	
174.00	-37.744	-48.524	
175.00	-37.744	-24.923	
176.00	-37.755	-52.252	
177.00	-37.729	-44.671	
178.00	-37.757	-55.705	
179.00	-37.862	-48.178	
180.00	-37.878	-84.277	
181.00	-37.938	-51.232	
182.00	-38.004	-66.682	
183.00	-38.040	-70.881	
184.00	-38.099	-56.476	
185.00	-38.208	-96.746	
186.00	-38.265	-78.672	
187.00	-38.291	-84.110	
188.00	-38.284	-86.028	
189.00	-38.321	-88.505	
190.00	-38.325	-106.836	
191.00	-38.334	-125.188	
192.00	-38.344	-121.253	
193.00	-38.390	-146.046	
194.00	-38.397	-150.663	
195.00	-38.583	-175.460	
196.00	-38.538	139.036	
197.00	-38.622	149.159	
198.00	-38.723	135.745	
199.00	-38.908	106.534	
200.00	-39.035	104.349	
201.00	-39.186	67.633	
202.00	-39.355	86.574	
203.00	-39.696	52.080	
204.00	-39.760	19.981	
205.00	-39.941	17.454	
206.00	-40.228	-1.013	
207.00	-40.333	-38.560	
208.00	-40.513	-39.613	
209.00	-40.734	-43.808	
210.00	-40.747	-84.112	
211.00	-40.927	-80.599	
212.00	-40.882	-136.664	
213.00	-40.867	-110.726	
214.00	-41.175	175.438	
215.00	-40.887	176.806	
216.00	-41.029	139.027	
217.00	-40.789	126.470	
218.00	-40.856	98.168	
219.00	-40.765	86.899	
220.00	-40.803	48.662	
221.00	-40.827	48.811	
222.00	-40.916	1.284	
223.00	-40.994	-3.817	
224.00	-41.018	-43.240	
225.00	-41.137	-33.339	
226.00	-41.394	-76.378	
227.00	-41.396	-92.960	
228.00	-41.755	-130.163	
229.00	-41.750	-156.885	
230.00	-42.058	-165.382	
231.00	-42.192	169.014	
232.00	-42.518	145.795	
233.00	-42.708	123.050	
234.00	-43.093	95.834	
235.00	-43.334	71.150	
236.00	-43.674	43.574	
237.00	-44.018	24.391	
238.00	-44.469	-12.203	
239.00	-44.804	-37.154	
240.00	-45.207	-56.075	
241.00	-45.638	-101.886	
242.00	-45.958	-107.351	
243.00	-46.786	-159.848	
244.00	-46.935	-173.994	
245.00	-47.689	157.676	
246.00	-47.861	130.075	
247.00	-48.516	105.477	
248.00	-48.724	63.443	
249.00	-49.374	42.675	
250.00	-49.748	12.857	
251.00	-50.490	-15.115	
252.00	-50.888	-44.070	
253.00	-51.524	-70.168	
254.00	-52.027	-103.646	
255.00	-52.659	-135.919	
256.00	-53.014	-175.635	
257.00	-53.697	151.606	
258.00	-54.178	113.615	
259.00	-54.636	82.520	
260.00	-55.310	49.720	
261.00	-55.883	-6.250	
262.00	-56.296	-30.776	
263.00	-57.225	-48.995	
264.00	-57.593	-81.253	
265.00	-58.345	-104.297	
266.00	-58.942	-141.156	
267.00	-59.707	-178.190	
268.00	-60.023	150.408	
269.00	-60.611	113.895	
270.00	-61.122	83.790	
271.00	-61.647	36.441	
272.00	-62.161	-0.127	
273.00	-62.834	-26.576	
274.00	-63.497	-66.088	
275.00	-63.941	-105.332	
276.00	-64.554	-149.645	
277.00	-65.050	-166.534	
278.00	-65.658	148.247	
279.00	-65.887	128.604	
280.00	-66.697	81.063	
281.00	-67.590	53.771	
282.00	-68.121	15.574	
283.00	-68.804	-11.458	
284.00	-69.245	-51.090	
285.00	-70.481	-86.331	
286.00	-71.578	-122.942	
287.00	-71.893	-157.157	
288.00	-72.142	151.723	
289.00	-74.121	125.899	
290.00	-75.144	64.025	
291.00	-77.848	15.938	
292.00	-78.822	-36.705	
293.00	-77.942	-99.597	
294.00	-78.407	-148.655	
295.00	-76.747	-171.167	
296.00	-76.811	155.833	
297.00	-75.983	115.204	
298.00	-76.328	84.419	
299.00	-77.611	37.125	
300.00	-75.843	20.559	
301.00	-77.375	-24.568	
302.00	-78.191	-29.991	
303.00	-76.882	-75.548	
304.00	-79.079	-101.319	
305.00	-78.801	-135.605	
306.00	-78.423	-173.127	
307.00	-81.317	165.535	
308.00	-80.268	123.384	
309.00	-80.156	79.785	
310.00	-81.697	43.444	
311.00	-80.486	-38.771	
312.00	-80.434	-31.023	
313.00	-78.776	-95.135	
314.00	-80.468	-103.861	
315.00	-82.061	-153.200	
316.00	-78.567	177.274	
317.00	-80.281	143.442	
318.00	-77.440	107.003	
319.00	-76.400	86.602	
320.00	-76.798	59.809	
321.00	-77.071	49.155	
322.00	-76.918	28.365	
323.00	-79.783	8.340	
324.00	-82.619	-38.647	
325.00	-93.308	-132.495	
326.00	-88.254	-139.425	
327.00	-86.540	117.868	
328.00	-78.979	123.325	
329.00	-77.878	80.894	
330.00	-76.135	70.644	
331.00	-74.418	57.656	
332.00	-74.291	40.071	
333.00	-73.600	33.161	
334.00	-75.282	7.171	
335.00	-75.576	-27.879	
336.00	-77.135	-57.768	
337.00	-77.510	-77.699	
338.00	-78.304	-92.357	
339.00	-78.552	-116.985	
340.00	-79.117	-166.713	
341.00	-79.716	169.497	
342.00	-78.895	159.343	
343.00	-79.353	144.139	
344.00	-79.144	112.604	
345.00	-77.373	100.887	
346.00	-77.587	81.968	
347.00	-78.329	63.618	
348.00	-77.469	47.026	
349.00	-80.372	29.541	
350.00	-80.275	35.491	
351.00	-84.060	10.454	
352.00	-94.119	1.014	
353.00	-100.735	125.785	
354.00	-90.879	174.127	
355.00	-82.609	-170.882	
356.00	-78.744	-176.773	
357.00	-77.135	-175.720	
358.00	-76.242	-177.681	
359.00	-74.858	-176.952	
Frequency	3950.00	MHz	
Channel	test		
Scan Axis name	Azimuth  [deg]		
Scan Axis	Amplitude	Phase	
			
0.00	-77.121	-25.336	
1.00	-78.276	-23.608	
2.00	-80.964	-26.704	
3.00	-78.534	-14.648	
4.00	-78.996	-33.528	
5.00	-80.630	-45.914	
6.00	-92.148	-77.812	
7.00	-89.058	-88.592	
8.00	-87.234	-137.220	
9.00	-84.520	-146.667	
10.00	-83.058	-163.904	
11.00	-81.861	-169.792	
12.00	-79.032	-162.974	
13.00	-78.648	-167.928	
14.00	-80.503	-149.420	
15.00	-82.794	-156.299	
16.00	-82.199	-154.513	
17.00	-83.410	-146.459	
18.00	-87.120	-113.428	
19.00	-87.086	-116.861	
20.00	-90.622	-26.834	
21.00	-86.240	4.822	
22.00	-83.952	27.945	
23.00	-86.609	42.838	
24.00	-81.057	64.103	
25.00	-81.529	78.702	
26.00	-79.014	111.560	
27.00	-81.958	140.900	
28.00	-81.541	151.896	
29.00	-81.419	174.518	
30.00	-79.522	-147.024	
31.00	-78.257	-123.064	
32.00	-78.050	-101.701	
33.00	-78.808	-74.900	
34.00	-77.288	-59.706	
35.00	-77.206	-36.425	
36.00	-78.207	2.887	
37.00	-77.934	33.804	
38.00	-76.109	48.963	
39.00	-79.503	114.488	
40.00	-77.829	120.500	
41.00	-76.134	168.469	
42.00	-75.593	-174.976	
43.00	-75.497	-156.132	
44.00	-73.948	-105.682	
45.00	-72.872	-94.827	
46.00	-72.560	-68.249	
47.00	-72.183	-39.690	
48.00	-72.849	-11.760	
49.00	-72.206	14.415	
50.00	-71.727	29.073	
51.00	-72.698	62.901	
52.00	-73.003	94.430	
53.00	-74.789	130.215	
54.00	-75.009	162.317	
55.00	-74.980	-170.904	
56.00	-72.950	-124.234	
57.00	-71.839	-109.755	
58.00	-71.630	-69.188	
59.00	-71.338	-44.871	
60.00	-71.624	-22.565	
61.00	-71.450	-4.270	
62.00	-70.599	37.878	
63.00	-72.836	57.491	
64.00	-73.091	126.690	
65.00	-73.546	139.476	
66.00	-72.398	176.650	
67.00	-72.406	-156.506	
68.00	-71.401	-133.840	
69.00	-72.438	-115.543	
70.00	-72.236	-100.221	
71.00	-71.589	-79.513	
72.00	-72.530	-29.035	
73.00	-72.077	-8.324	
74.00	-72.268	6.735	
75.00	-74.051	50.731	
76.00	-71.943	82.393	
77.00	-71.532	121.422	
78.00	-71.074	137.345	
79.00	-70.548	175.633	
80.00	-69.539	-179.411	
81.00	-69.253	-164.393	
82.00	-68.530	-124.406	
83.00	-68.025	-117.993	
84.00	-68.247	-71.494	
85.00	-67.690	-58.776	
86.00	-67.376	14.827	
87.00	-66.153	17.502	
88.00	-66.106	86.743	
89.00	-65.037	92.743	
90.00	-65.081	141.782	
91.00	-64.244	162.863	
92.00	-63.348	-174.054	
93.00	-62.699	-129.751	
94.00	-62.164	-121.351	
95.00	-61.483	-76.420	
96.00	-61.124	-65.981	
97.00	-60.930	-15.171	
98.00	-60.037	-8.704	
99.00	-59.557	41.986	
100.00	-58.680	66.966	
101.00	-57.915	100.869	
102.00	-56.940	131.077	
103.00	-56.355	149.374	
104.00	-55.477	179.115	
105.00	-54.925	-162.347	
106.00	-54.285	-129.991	
107.00	-53.628	-106.788	
108.00	-53.059	-80.243	
109.00	-52.562	-51.370	
110.00	-51.963	-26.641	
111.00	-51.460	-2.684	
112.00	-50.921	27.216	
113.00	-50.374	56.080	
114.00	-49.717	83.034	
115.00	-49.187	93.574	
116.00	-48.572	115.454	
117.00	-48.069	130.395	
118.00	-47.588	140.957	
119.00	-47.069	161.315	
120.00	-46.631	174.293	
121.00	-46.224	-163.222	
122.00	-45.854	-132.778	
123.00	-45.376	-107.723	
124.00	-45.031	-90.336	
125.00	-44.702	-73.926	
126.00	-44.328	-39.539	
127.00	-44.070	-20.594	
128.00	-43.697	12.223	
129.00	-43.397	40.184	
130.00	-43.121	72.200	
131.00	-42.732	97.139	
132.00	-42.458	107.401	
133.00	-42.205	114.799	
134.00	-41.966	113.603	
135.00	-41.720	145.508	
136.00	-41.527	148.951	
137.00	-41.355	166.456	
138.00	-41.215	-174.717	
139.00	-41.048	-152.684	
140.00	-41.035	-141.353	
141.00	-40.868	-110.700	
142.00	-40.759	-118.216	
143.00	-40.716	-83.083	
144.00	-40.624	-88.667	
145.00	-40.661	-74.414	
146.00	-40.517	-61.140	
147.00	-40.465	-55.981	
148.00	-40.334	-44.785	
149.00	-40.245	-51.576	
150.00	-40.169	-40.475	
151.00	-40.099	-37.696	
152.00	-40.002	-35.456	
153.00	-39.899	-27.990	
154.00	-39.803	-19.960	
155.00	-39.719	-6.798	
156.00	-39.580	-4.999	
157.00	-39.508	-3.105	
158.00	-39.403	0.536	
159.00	-39.340	5.386	
160.00	-39.276	22.410	
161.00	-39.156	42.984	
162.00	-39.093	33.816	
163.00	-39.081	64.701	
164.00	-38.984	60.138	
165.00	-38.987	79.314	
166.00	-38.900	77.662	
167.00	-38.877	66.978	
168.00	-38.831	79.904	
169.00	-38.802	82.328	
170.00	-38.796	89.857	
171.00	-38.812	80.071	
172.00	-38.857	83.818	
173.00	-38.804	107.452	
174.00	-38.831	78.669	
175.00	-38.836	102.476	
176.00	-38.879	74.202	
177.00	-38.884	81.560	
178.00	-38.946	70.688	
179.00	-39.071	76.738	
180.00	-39.048	41.154	
181.00	-39.081	74.500	
182.00	-39.139	57.591	
183.00	-39.156	54.062	
184.00	-39.208	67.386	
185.00	-39.239	26.566	
186.00	-39.258	45.889	
187.00	-39.254	39.289	
188.00	-39.184	38.162	
189.00	-39.224	34.700	
190.00	-39.192	16.166	
191.00	-39.166	-1.946	
192.00	-39.158	2.088	
193.00	-39.206	-23.242	
194.00	-39.176	-27.447	
195.00	-39.340	-53.520	
196.00	-39.261	-98.015	
197.00	-39.366	-88.136	
198.00	-39.448	-101.800	
199.00	-39.630	-131.898	
200.00	-39.750	-133.613	
201.00	-39.897	-170.802	
202.00	-40.050	-151.023	
203.00	-40.354	172.247	
204.00	-40.410	140.359	
205.00	-40.555	138.592	
206.00	-40.798	118.853	
207.00	-40.921	81.177	
208.00	-41.033	81.164	
209.00	-41.247	76.036	
210.00	-41.256	36.113	
211.00	-41.450	38.781	
212.00	-41.406	-17.335	
213.00	-41.390	8.978	
214.00	-41.654	-67.182	
215.00	-41.386	-64.176	
216.00	-41.476	-104.441	
217.00	-41.223	-116.171	
218.00	-41.226	-146.046	
219.00	-41.101	-157.063	
220.00	-41.049	164.016	
221.00	-41.003	164.061	
222.00	-40.980	116.193	
223.00	-41.023	111.195	
224.00	-41.017	71.483	
225.00	-41.065	81.557	
226.00	-41.253	37.563	
227.00	-41.258	21.708	
228.00	-41.608	-16.752	
229.00	-41.578	-42.240	
230.00	-41.830	-51.792	
231.00	-41.941	-76.996	
232.00	-42.227	-100.955	
233.00	-42.382	-123.331	
234.00	-42.709	-151.375	
235.00	-42.909	-175.948	
236.00	-43.216	156.428	
237.00	-43.543	137.383	
238.00	-43.960	100.375	
239.00	-44.233	75.824	
240.00	-44.694	56.861	
241.00	-45.121	10.548	
242.00	-45.460	6.123	
243.00	-46.211	-48.266	
244.00	-46.398	-60.372	
245.00	-47.223	-91.014	
246.00	-47.290	-116.708	
247.00	-48.031	-143.758	
248.00	-48.139	176.134	
249.00	-48.833	154.011	
250.00	-49.157	125.076	
251.00	-49.794	96.379	
252.00	-50.264	67.735	
253.00	-50.995	41.242	
254.00	-51.417	9.038	
255.00	-52.216	-24.355	
256.00	-52.667	-64.170	
257.00	-53.224	-97.219	
258.00	-53.847	-136.349	
259.00	-54.338	-168.044	
260.00	-55.082	159.414	
261.00	-55.712	102.480	
262.00	-56.086	79.318	
263.00	-56.896	61.090	
264.00	-57.646	28.389	
265.00	-58.241	3.631	
266.00	-58.928	-31.026	
267.00	-59.585	-68.956	
268.00	-60.264	-101.253	
269.00	-61.045	-138.393	
270.00	-61.592	-170.127	
271.00	-62.184	138.692	
272.00	-62.513	102.850	
273.00	-62.978	72.791	
274.00	-63.846	33.998	
275.00	-64.613	-7.666	
276.00	-64.659	-48.953	
277.00	-65.483	-69.204	
278.00	-65.618	-114.055	
279.00	-66.105	-130.036	
280.00	-66.577	178.514	
281.00	-67.541	152.365	
282.00	-68.027	115.978	
283.00	-68.820	83.837	
284.00	-69.831	44.159	
285.00	-71.840	-0.998	
286.00	-71.990	-35.897	
287.00	-73.745	-75.434	
288.00	-71.973	-122.478	
289.00	-73.561	-148.827	
290.00	-74.209	147.942	
291.00	-75.609	108.498	
292.00	-77.517	52.177	
293.00	-78.373	13.851	
294.00	-77.973	-67.205	
295.00	-77.772	-83.479	
296.00	-76.414	-117.428	
297.00	-74.252	-156.600	
298.00	-75.856	-175.502	
299.00	-75.222	125.193	
300.00	-74.481	113.118	
301.00	-74.419	67.338	
302.00	-75.452	69.890	
303.00	-75.062	20.244	
304.00	-75.821	-7.579	
305.00	-75.872	-33.996	
306.00	-77.216	-80.796	
307.00	-76.743	-111.450	
308.00	-79.557	-118.105	
309.00	-79.813	-158.717	
310.00	-83.638	166.100	
311.00	-87.451	69.612	
312.00	-83.710	60.154	
313.00	-81.350	-17.965	
314.00	-81.130	-33.889	
315.00	-81.881	-83.647	
316.00	-78.050	-108.573	
317.00	-76.184	-144.291	
318.00	-75.379	-175.356	
319.00	-74.347	164.765	
320.00	-73.958	146.994	
321.00	-74.971	127.431	
322.00	-75.597	104.284	
323.00	-76.733	87.564	
324.00	-77.548	66.210	
325.00	-80.465	46.736	
326.00	-84.373	-13.335	
327.00	-92.630	-80.143	
328.00	-84.111	-150.825	
329.00	-81.954	161.946	
330.00	-79.909	148.479	
331.00	-80.409	135.937	
332.00	-79.188	121.642	
333.00	-79.632	106.907	
334.00	-78.928	90.687	
335.00	-80.508	42.847	
336.00	-79.073	4.740	
337.00	-79.321	-12.512	
338.00	-80.811	-43.061	
339.00	-81.834	-69.084	
340.00	-78.846	-105.956	
341.00	-83.438	-123.936	
342.00	-79.586	-138.369	
343.00	-79.135	-140.169	
344.00	-78.845	-177.207	
345.00	-80.752	166.497	
346.00	-79.556	150.050	
347.00	-78.868	133.073	
348.00	-78.309	109.932	
349.00	-79.643	106.053	
350.00	-79.887	88.002	
351.00	-80.574	79.530	
352.00	-84.327	72.360	
353.00	-90.092	31.985	
354.00	-97.411	-111.326	
355.00	-87.366	-122.061	
356.00	-86.357	-92.512	
357.00	-83.561	-105.872	
358.00	-79.470	-119.602	
359.00	-80.768	-120.944	
Frequency	4000.00	MHz	
Channel	test		
Scan Axis name	Azimuth  [deg]		
Scan Axis	Amplitude	Phase	
			
0.00	-79.299	60.690	
1.00	-80.332	57.402	
2.00	-79.349	55.650	
3.00	-80.490	43.310	
4.00	-81.163	32.752	
5.00	-83.957	55.106	
6.00	-85.658	41.248	
7.00	-94.569	26.766	
8.00	-100.377	90.485	
9.00	-96.529	-49.143	
10.00	-93.075	157.360	
11.00	-89.895	-132.715	
12.00	-83.196	-96.676	
13.00	-83.386	-111.286	
14.00	-85.418	-94.837	
15.00	-88.953	-93.391	
16.00	-85.423	-80.661	
17.00	-88.754	-60.917	
18.00	-94.227	-45.575	
19.00	-92.358	21.424	
20.00	-89.369	91.459	
21.00	-84.840	64.528	
22.00	-79.855	77.194	
23.00	-81.773	104.451	
24.00	-80.524	136.831	
25.00	-79.478	131.465	
26.00	-79.034	145.783	
27.00	-79.639	172.753	
28.00	-81.340	-172.617	
29.00	-78.914	-153.132	
30.00	-81.787	-112.868	
31.00	-88.579	-87.366	
32.00	-89.489	-28.916	
33.00	-83.865	-2.499	
34.00	-81.778	23.863	
35.00	-81.716	56.283	
36.00	-77.396	83.180	
37.00	-76.462	113.354	
38.00	-76.669	127.370	
39.00	-75.686	153.922	
40.00	-76.713	172.042	
41.00	-77.329	-148.369	
42.00	-75.225	-117.629	
43.00	-77.338	-87.970	
44.00	-76.445	-48.390	
45.00	-74.787	-27.875	
46.00	-74.695	-7.437	
47.00	-72.894	27.234	
48.00	-72.355	57.641	
49.00	-71.942	72.810	
50.00	-72.088	98.707	
51.00	-73.009	118.075	
52.00	-74.143	148.936	
53.00	-74.226	178.054	
54.00	-77.395	-142.532	
55.00	-77.414	-110.163	
56.00	-74.968	-71.600	
57.00	-74.031	-49.497	
58.00	-72.405	-2.647	
59.00	-71.952	22.919	
60.00	-70.531	44.075	
61.00	-71.156	66.313	
62.00	-70.898	95.821	
63.00	-71.918	122.001	
64.00	-71.752	174.701	
65.00	-72.038	-167.044	
66.00	-72.854	-125.395	
67.00	-73.065	-99.987	
68.00	-72.845	-69.873	
69.00	-71.566	-59.749	
70.00	-71.748	-32.262	
71.00	-70.017	-16.679	
72.00	-70.353	36.610	
73.00	-70.268	58.382	
74.00	-69.797	80.649	
75.00	-68.844	118.578	
76.00	-68.750	144.677	
77.00	-69.400	-175.495	
78.00	-67.846	-157.821	
79.00	-68.138	-121.324	
80.00	-67.519	-111.825	
81.00	-67.566	-85.069	
82.00	-66.991	-48.861	
83.00	-66.341	-31.703	
84.00	-66.211	15.013	
85.00	-65.601	31.670	
86.00	-66.061	105.605	
87.00	-64.628	111.559	
88.00	-64.704	-174.834	
89.00	-63.861	-170.615	
90.00	-63.749	-117.563	
91.00	-63.421	-96.832	
92.00	-62.835	-70.499	
93.00	-61.948	-26.913	
94.00	-61.368	-13.533	
95.00	-61.050	31.604	
96.00	-60.502	44.708	
97.00	-59.886	91.972	
98.00	-58.864	97.930	
99.00	-59.008	150.002	
100.00	-58.635	172.958	
101.00	-57.896	-153.361	
102.00	-56.929	-122.122	
103.00	-56.579	-104.123	
104.00	-56.139	-75.840	
105.00	-55.645	-54.530	
106.00	-54.974	-23.078	
107.00	-54.702	0.546	
108.00	-53.864	26.350	
109.00	-53.454	57.907	
110.00	-52.847	79.445	
111.00	-52.319	105.099	
112.00	-51.777	133.626	
113.00	-51.228	162.478	
114.00	-50.609	-172.289	
115.00	-50.191	-161.580	
116.00	-49.661	-139.259	
117.00	-49.191	-125.641	
118.00	-48.591	-114.414	
119.00	-48.114	-94.890	
120.00	-47.699	-82.424	
121.00	-47.167	-58.612	
122.00	-46.785	-27.488	
123.00	-46.250	-2.983	
124.00	-45.789	14.916	
125.00	-45.390	31.205	
126.00	-44.885	66.217	
127.00	-44.556	85.624	
128.00	-44.130	118.439	
129.00	-43.715	146.324	
130.00	-43.387	178.818	
131.00	-42.910	-157.130	
132.00	-42.601	-146.682	
133.00	-42.274	-139.581	
134.00	-42.052	-139.698	
135.00	-41.735	-107.288	
136.00	-41.485	-103.636	
137.00	-41.338	-85.249	
138.00	-41.104	-65.356	
139.00	-40.892	-42.934	
140.00	-40.822	-30.462	
141.00	-40.614	0.314	
142.00	-40.464	-6.461	
143.00	-40.396	30.051	
144.00	-40.260	23.441	
145.00	-40.283	39.716	
146.00	-40.079	52.372	
147.00	-40.054	59.057	
148.00	-39.917	69.495	
149.00	-39.846	63.513	
150.00	-39.774	74.886	
151.00	-39.697	77.474	
152.00	-39.631	80.085	
153.00	-39.520	87.569	
154.00	-39.461	95.813	
155.00	-39.340	108.811	
156.00	-39.236	110.485	
157.00	-39.192	112.507	
158.00	-39.086	115.893	
159.00	-39.017	121.380	
160.00	-38.942	138.481	
161.00	-38.824	158.825	
162.00	-38.743	149.795	
163.00	-38.755	-178.120	
164.00	-38.648	175.975	
165.00	-38.622	-163.608	
166.00	-38.571	-166.436	
167.00	-38.542	-176.413	
168.00	-38.470	-163.326	
169.00	-38.465	-160.892	
170.00	-38.456	-153.611	
171.00	-38.483	-163.545	
172.00	-38.519	-158.879	
173.00	-38.481	-136.020	
174.00	-38.480	-164.924	
175.00	-38.474	-140.957	
176.00	-38.492	-169.749	
177.00	-38.472	-162.364	
178.00	-38.503	-172.760	
179.00	-38.621	-167.591	
180.00	-38.562	157.802	
181.00	-38.577	-168.177	
182.00	-38.621	174.284	
183.00	-38.650	172.064	
184.00	-38.679	-174.962	
185.00	-38.724	143.950	
186.00	-38.781	165.132	
187.00	-38.790	157.559	
188.00	-38.811	157.284	
189.00	-38.855	153.463	
190.00	-38.858	134.663	
191.00	-38.886	116.812	
192.00	-38.908	120.742	
193.00	-38.945	94.631	
194.00	-38.948	90.784	
195.00	-39.152	62.852	
196.00	-39.002	19.127	
197.00	-39.065	28.622	
198.00	-39.145	14.859	
199.00	-39.231	-15.606	
200.00	-39.333	-17.094	
201.00	-39.478	-54.341	
202.00	-39.592	-33.125	
203.00	-39.878	-71.563	
204.00	-39.945	-102.896	
205.00	-40.110	-103.879	
206.00	-40.376	-124.608	
207.00	-40.498	-162.026	
208.00	-40.635	-161.136	
209.00	-40.885	-167.380	
210.00	-40.942	153.410	
211.00	-41.187	155.230	
212.00	-41.191	99.774	
213.00	-41.287	126.425	
214.00	-41.628	48.021	
215.00	-41.465	52.606	
216.00	-41.639	9.844	
217.00	-41.440	-1.100	
218.00	-41.492	-32.943	
219.00	-41.379	-44.642	
220.00	-41.350	-84.960	
221.00	-41.299	-85.286	
222.00	-41.246	-134.429	
223.00	-41.246	-139.889	
224.00	-41.129	179.670	
225.00	-41.185	-170.096	
226.00	-41.322	144.438	
227.00	-41.268	129.272	
228.00	-41.591	88.812	
229.00	-41.545	64.566	
230.00	-41.764	53.753	
231.00	-41.851	28.865	
232.00	-42.118	4.163	
233.00	-42.276	-17.941	
234.00	-42.622	-46.602	
235.00	-42.810	-71.540	
236.00	-43.152	-99.520	
237.00	-43.407	-118.608	
238.00	-43.855	-157.038	
239.00	-44.077	178.986	
240.00	-44.492	158.995	
241.00	-44.909	112.543	
242.00	-45.242	109.275	
243.00	-46.056	52.824	
244.00	-46.193	43.183	
245.00	-47.054	10.187	
246.00	-47.186	-13.906	
247.00	-47.976	-42.735	
248.00	-48.155	-82.076	
249.00	-48.857	-106.125	
250.00	-49.225	-134.378	
251.00	-49.934	-164.676	
252.00	-50.302	167.072	
253.00	-51.034	139.363	
254.00	-51.409	107.829	
255.00	-52.345	73.558	
256.00	-52.718	34.408	
257.00	-53.504	0.511	
258.00	-54.158	-38.783	
259.00	-54.833	-71.589	
260.00	-55.357	-105.638	
261.00	-56.160	-164.773	
262.00	-56.345	172.630	
263.00	-56.943	153.547	
264.00	-57.331	120.167	
265.00	-57.944	97.903	
266.00	-58.783	61.474	
267.00	-59.743	24.922	
268.00	-60.533	-3.230	
269.00	-61.858	-41.792	
270.00	-62.716	-73.863	
271.00	-63.846	-128.990	
272.00	-64.256	-168.461	
273.00	-64.683	156.773	
274.00	-64.250	115.380	
275.00	-64.774	70.520	
276.00	-65.000	33.378	
277.00	-65.094	15.047	
278.00	-66.379	-28.646	
279.00	-66.855	-45.239	
280.00	-68.036	-98.299	
281.00	-68.863	-126.942	
282.00	-69.815	-173.207	
283.00	-70.979	150.520	
284.00	-70.300	109.629	
285.00	-70.310	67.128	
286.00	-69.871	37.621	
287.00	-71.092	0.658	
288.00	-70.401	-50.199	
289.00	-72.864	-83.222	
290.00	-72.426	-142.640	
291.00	-74.506	-179.374	
292.00	-74.558	118.902	
293.00	-75.012	82.755	
294.00	-75.112	27.860	
295.00	-74.720	-3.629	
296.00	-74.971	-34.723	
297.00	-74.194	-76.976	
298.00	-74.450	-107.320	
299.00	-74.192	-161.569	
300.00	-73.209	-169.721	
301.00	-72.847	149.181	
302.00	-73.708	144.165	
303.00	-73.704	101.192	
304.00	-72.866	68.690	
305.00	-73.194	44.738	
306.00	-73.932	6.343	
307.00	-76.132	-8.047	
308.00	-78.688	-33.249	
309.00	-81.306	-70.514	
310.00	-90.774	-102.643	
311.00	-80.660	148.638	
312.00	-82.519	125.214	
313.00	-81.391	68.139	
314.00	-82.111	54.120	
315.00	-79.548	4.751	
316.00	-79.776	-26.528	
317.00	-82.001	-68.699	
318.00	-79.744	-83.683	
319.00	-78.057	-128.554	
320.00	-79.062	-146.279	
321.00	-76.484	175.927	
322.00	-76.120	164.819	
323.00	-76.299	137.931	
324.00	-77.104	101.470	
325.00	-77.055	73.666	
326.00	-77.231	51.165	
327.00	-79.454	26.843	
328.00	-83.455	-18.808	
329.00	-85.180	-56.046	
330.00	-87.000	-80.858	
331.00	-86.361	-137.041	
332.00	-84.462	-170.545	
333.00	-81.214	162.930	
334.00	-80.689	131.956	
335.00	-78.652	82.095	
336.00	-77.069	59.018	
337.00	-80.373	58.676	
338.00	-79.760	37.535	
339.00	-78.732	3.100	
340.00	-79.380	-7.530	
341.00	-80.602	-28.085	
342.00	-80.496	-35.238	
343.00	-79.962	-51.569	
344.00	-82.916	-88.504	
345.00	-82.599	-119.310	
346.00	-85.994	-122.200	
347.00	-84.949	-165.211	
348.00	-81.828	-174.682	
349.00	-83.440	157.918	
350.00	-90.217	153.009	
351.00	-88.847	101.252	
352.00	-86.887	81.264	
353.00	-88.614	57.727	
354.00	-94.151	55.768	
355.00	-89.197	-6.807	
356.00	-86.570	1.455	
357.00	-82.516	-12.474	
358.00	-80.736	-14.205	
359.00	-82.362	-23.218	
Frequency	4050.00	MHz	
Channel	test		
Scan Axis name	Azimuth  [deg]		
Scan Axis	Amplitude	Phase	
			
0.00	-83.494	162.184	
1.00	-85.677	145.267	
2.00	-86.614	171.781	
3.00	-89.786	141.796	
4.00	-93.905	74.559	
5.00	-94.020	-146.700	
6.00	-87.816	-30.797	
7.00	-99.192	-55.294	
8.00	-88.962	-5.606	
9.00	-90.458	-35.324	
10.00	-88.679	-52.789	
11.00	-81.411	-29.717	
12.00	-82.696	-47.030	
13.00	-82.096	-37.921	
14.00	-82.363	-14.752	
15.00	-82.356	-36.626	
16.00	-85.076	-16.456	
17.00	-83.949	-37.747	
18.00	-88.653	-31.768	
19.00	-95.353	-42.889	
20.00	-90.539	-114.028	
21.00	-103.801	-140.453	
22.00	-87.052	-143.105	
23.00	-86.916	-148.089	
24.00	-82.699	-148.603	
25.00	-81.262	-121.464	
26.00	-82.944	-105.058	
27.00	-82.173	-111.876	
28.00	-84.848	-88.743	
29.00	-84.944	-45.885	
30.00	-83.548	-42.142	
31.00	-88.532	-20.224	
32.00	-100.459	-49.292	
33.00	-92.473	133.517	
34.00	-87.113	145.291	
35.00	-79.819	173.766	
36.00	-80.133	172.877	
37.00	-78.657	-153.926	
38.00	-76.438	-138.959	
39.00	-75.595	-114.230	
40.00	-76.485	-93.997	
41.00	-77.876	-65.002	
42.00	-76.406	-50.787	
43.00	-76.246	-16.667	
44.00	-77.167	14.916	
45.00	-77.420	36.867	
46.00	-77.747	73.445	
47.00	-76.895	103.062	
48.00	-76.937	135.800	
49.00	-76.982	156.560	
50.00	-75.747	-164.979	
51.00	-76.024	-135.861	
52.00	-76.935	-106.591	
53.00	-75.355	-76.547	
54.00	-75.336	-49.445	
55.00	-76.547	-2.729	
56.00	-76.252	33.399	
57.00	-75.299	49.888	
58.00	-73.280	91.422	
59.00	-73.987	123.241	
60.00	-74.041	142.129	
61.00	-73.460	166.956	
62.00	-72.326	-157.676	
63.00	-73.589	-139.469	
64.00	-72.191	-80.812	
65.00	-73.037	-66.400	
66.00	-73.755	-32.551	
67.00	-73.429	-7.971	
68.00	-73.108	21.525	
69.00	-72.721	30.330	
70.00	-73.698	46.477	
71.00	-74.051	78.292	
72.00	-73.229	132.851	
73.00	-72.556	152.701	
74.00	-72.936	178.114	
75.00	-71.285	-151.004	
76.00	-71.392	-107.283	
77.00	-70.387	-72.794	
78.00	-69.733	-54.644	
79.00	-69.383	-16.692	
80.00	-68.490	-8.756	
81.00	-68.552	12.527	
82.00	-68.288	48.784	
83.00	-68.209	71.578	
84.00	-68.278	116.327	
85.00	-67.688	134.823	
86.00	-66.082	-142.733	
87.00	-65.899	-139.765	
88.00	-65.213	-68.542	
89.00	-64.185	-62.038	
90.00	-64.081	-4.835	
91.00	-63.103	12.402	
92.00	-63.015	42.532	
93.00	-62.602	82.663	
94.00	-62.310	95.708	
95.00	-61.524	142.246	
96.00	-61.245	155.346	
97.00	-60.600	-153.306	
98.00	-59.945	-147.142	
99.00	-59.395	-93.723	
100.00	-58.879	-72.121	
101.00	-58.416	-38.348	
102.00	-57.603	-9.162	
103.00	-57.168	11.017	
104.00	-56.651	39.864	
105.00	-56.257	59.181	
106.00	-55.728	92.043	
107.00	-55.195	116.463	
108.00	-54.677	142.782	
109.00	-54.132	172.758	
110.00	-53.517	-163.320	
111.00	-52.998	-139.714	
112.00	-52.562	-110.365	
113.00	-52.108	-80.502	
114.00	-51.495	-56.818	
115.00	-50.871	-45.061	
116.00	-50.484	-23.659	
117.00	-49.930	-9.810	
118.00	-49.331	1.616	
119.00	-48.863	20.963	
120.00	-48.301	34.867	
121.00	-47.861	57.969	
122.00	-47.314	88.801	
123.00	-46.737	113.299	
124.00	-46.304	131.119	
125.00	-45.840	147.839	
126.00	-45.305	-177.574	
127.00	-44.915	-157.585	
128.00	-44.461	-124.624	
129.00	-43.996	-96.789	
130.00	-43.643	-63.283	
131.00	-43.167	-39.439	
132.00	-42.830	-28.430	
133.00	-42.445	-22.033	
134.00	-42.122	-21.155	
135.00	-41.771	11.467	
136.00	-41.482	15.418	
137.00	-41.234	34.150	
138.00	-40.990	54.696	
139.00	-40.747	77.088	
140.00	-40.629	90.417	
141.00	-40.363	121.016	
142.00	-40.214	114.913	
143.00	-40.089	152.283	
144.00	-39.962	144.691	
145.00	-39.983	163.014	
146.00	-39.829	174.629	
147.00	-39.835	-177.125	
148.00	-39.737	-167.058	
149.00	-39.716	-172.309	
150.00	-39.696	-160.754	
151.00	-39.723	-158.047	
152.00	-39.749	-154.971	
153.00	-39.745	-147.749	
154.00	-39.751	-138.925	
155.00	-39.692	-126.306	
156.00	-39.648	-124.866	
157.00	-39.665	-122.846	
158.00	-39.596	-120.074	
159.00	-39.531	-114.491	
160.00	-39.457	-97.185	
161.00	-39.329	-77.167	
162.00	-39.210	-86.820	
163.00	-39.187	-54.107	
164.00	-39.056	-61.086	
165.00	-38.977	-39.566	
166.00	-38.873	-43.558	
167.00	-38.795	-52.700	
168.00	-38.706	-39.494	
169.00	-38.667	-36.555	
170.00	-38.632	-29.060	
171.00	-38.640	-38.905	
172.00	-38.713	-32.694	
173.00	-38.676	-10.565	
174.00	-38.689	-38.686	
175.00	-38.725	-14.269	
176.00	-38.786	-43.318	
177.00	-38.794	-35.705	
178.00	-38.898	-45.701	
179.00	-39.038	-41.612	
180.00	-39.018	-75.503	
181.00	-39.070	-41.139	
182.00	-39.131	-59.970	
183.00	-39.157	-61.719	
184.00	-39.221	-49.649	
185.00	-39.220	-91.334	
186.00	-39.269	-69.164	
187.00	-39.250	-78.301	
188.00	-39.224	-78.020	
189.00	-39.223	-82.791	
190.00	-39.219	-101.963	
191.00	-39.184	-119.544	
192.00	-39.188	-115.992	
193.00	-39.186	-142.549	
194.00	-39.155	-146.103	
195.00	-39.346	-175.643	
196.00	-39.167	141.692	
197.00	-39.192	150.875	
198.00	-39.258	137.246	
199.00	-39.360	105.930	
200.00	-39.490	104.845	
201.00	-39.587	67.058	
202.00	-39.718	89.312	
203.00	-40.009	49.185	
204.00	-40.129	18.549	
205.00	-40.283	18.124	
206.00	-40.615	-3.806	
207.00	-40.802	-41.111	
208.00	-41.032	-39.345	
209.00	-41.400	-47.132	
210.00	-41.459	-85.944	
211.00	-41.870	-85.441	
212.00	-41.896	-141.167	
213.00	-42.003	-114.809	
214.00	-42.472	164.637	
215.00	-42.302	170.592	
216.00	-42.556	125.250	
217.00	-42.410	115.093	
218.00	-42.505	81.250	
219.00	-42.464	69.513	
220.00	-42.435	27.990	
221.00	-42.434	26.767	
222.00	-42.336	-23.622	
223.00	-42.323	-30.089	
224.00	-42.192	-70.910	
225.00	-42.136	-61.372	
226.00	-42.197	-108.554	
227.00	-42.070	-123.357	
228.00	-42.315	-165.730	
229.00	-42.176	171.418	
230.00	-42.352	159.500	
231.00	-42.390	135.242	
232.00	-42.613	109.772	
233.00	-42.715	88.267	
234.00	-43.032	58.553	
235.00	-43.197	33.896	
236.00	-43.512	5.720	
237.00	-43.803	-13.618	
238.00	-44.182	-52.890	
239.00	-44.449	-75.957	
240.00	-44.855	-96.632	
241.00	-45.190	-143.471	
242.00	-45.508	-145.712	
243.00	-46.293	155.215	
244.00	-46.464	148.351	
245.00	-47.261	112.856	
246.00	-47.407	91.151	
247.00	-48.194	60.157	
248.00	-48.489	22.249	
249.00	-49.236	-2.450	
250.00	-49.626	-30.367	
251.00	-50.388	-61.574	
252.00	-50.795	-89.143	
253.00	-51.498	-118.244	
254.00	-51.931	-148.852	
255.00	-52.654	174.986	
256.00	-53.269	137.246	
257.00	-54.030	102.711	
258.00	-54.772	64.263	
259.00	-55.430	32.258	
260.00	-56.350	-3.165	
261.00	-57.186	-62.789	
262.00	-57.783	-86.574	
263.00	-58.398	-106.325	
264.00	-58.938	-140.155	
265.00	-59.595	-165.424	
266.00	-60.047	157.947	
267.00	-60.867	119.545	
268.00	-61.405	89.960	
269.00	-62.321	53.654	
270.00	-63.697	21.772	
271.00	-65.276	-29.682	
272.00	-66.127	-64.244	
273.00	-66.947	-103.214	
274.00	-67.238	-145.586	
275.00	-68.395	162.943	
276.00	-68.528	121.079	
277.00	-69.055	94.207	
278.00	-68.222	48.749	
279.00	-68.576	29.668	
280.00	-69.375	-20.670	
281.00	-69.725	-50.968	
282.00	-71.971	-90.180	
283.00	-72.927	-122.170	
284.00	-74.832	-169.985	
285.00	-75.209	140.701	
286.00	-74.293	95.563	
287.00	-73.705	48.083	
288.00	-72.634	-5.228	
289.00	-70.964	-30.858	
290.00	-71.293	-84.001	
291.00	-71.469	-118.052	
292.00	-72.678	-167.130	
293.00	-74.874	146.962	
294.00	-75.052	96.612	
295.00	-74.570	54.925	
296.00	-74.164	24.884	
297.00	-73.432	-19.213	
298.00	-73.248	-39.851	
299.00	-71.270	-93.593	
300.00	-71.042	-107.953	
301.00	-70.388	-142.468	
302.00	-70.518	-147.781	
303.00	-71.833	166.413	
304.00	-73.245	137.408	
305.00	-73.730	119.102	
306.00	-75.301	71.692	
307.00	-75.797	41.384	
308.00	-78.326	-5.038	
309.00	-77.489	-33.828	
310.00	-76.544	-79.448	
311.00	-76.283	-132.447	
312.00	-75.806	-139.405	
313.00	-77.263	153.803	
314.00	-77.959	147.602	
315.00	-79.490	91.409	
316.00	-76.572	48.395	
317.00	-77.026	12.929	
318.00	-75.743	-17.358	
319.00	-74.579	-37.752	
320.00	-74.821	-60.441	
321.00	-74.814	-84.767	
322.00	-75.493	-107.061	
323.00	-75.735	-136.729	
324.00	-77.963	-168.920	
325.00	-79.352	159.187	
326.00	-80.484	128.902	
327.00	-79.581	79.784	
328.00	-82.772	41.478	
329.00	-82.752	-0.627	
330.00	-81.054	-38.302	
331.00	-81.710	-59.354	
332.00	-79.567	-94.855	
333.00	-78.181	-108.442	
334.00	-77.076	-135.103	
335.00	-79.061	-171.842	
336.00	-78.576	162.328	
337.00	-80.229	143.379	
338.00	-81.732	121.211	
339.00	-85.057	94.456	
340.00	-83.432	43.308	
341.00	-81.932	11.113	
342.00	-82.735	0.857	
343.00	-80.863	-17.602	
344.00	-78.990	-51.519	
345.00	-79.527	-61.594	
346.00	-80.149	-81.215	
347.00	-77.820	-88.283	
348.00	-79.854	-104.008	
349.00	-77.954	-105.747	
350.00	-81.134	-109.758	
351.00	-81.270	-124.105	
352.00	-85.719	-130.166	
353.00	-94.076	-140.428	
354.00	-89.626	-149.304	
355.00	-95.347	71.706	
356.00	-89.355	80.992	
357.00	-92.498	62.986	
358.00	-85.559	35.493	
359.00	-82.152	31.246	
Frequency	4100.00	MHz	
Channel	test		
Scan Axis name	Azimuth  [deg]		
Scan Axis	Amplitude	Phase	
			
0.00	-86.560	-121.652	
1.00	-97.750	-151.773	
2.00	-90.851	-97.526	
3.00	-86.522	-111.567	
4.00	-91.435	-87.790	
5.00	-90.717	-28.534	
6.00	-84.561	-67.701	
7.00	-87.058	-58.597	
8.00	-86.061	-20.396	
9.00	-84.674	-50.572	
10.00	-84.150	-12.025	
11.00	-88.558	6.178	
12.00	-92.003	19.704	
13.00	-89.172	-21.367	
14.00	-99.093	5.247	
15.00	-89.566	-7.573	
16.00	-93.642	80.522	
17.00	-95.614	-150.663	
18.00	-100.349	-150.793	
19.00	-89.074	-134.157	
20.00	-85.026	-125.697	
21.00	-84.358	-125.702	
22.00	-86.396	-133.214	
23.00	-82.502	-110.335	
24.00	-84.462	-53.127	
25.00	-89.157	-48.940	
26.00	-85.859	-38.921	
27.00	-85.658	18.558	
28.00	-87.974	20.285	
29.00	-88.672	90.463	
30.00	-81.485	131.725	
31.00	-82.728	150.603	
32.00	-81.970	-176.495	
33.00	-78.592	-160.842	
34.00	-78.301	-151.816	
35.00	-76.224	-111.175	
36.00	-76.287	-107.300	
37.00	-74.343	-89.746	
38.00	-74.723	-69.741	
39.00	-75.512	-42.727	
40.00	-77.408	-27.336	
41.00	-77.635	12.500	
42.00	-78.926	34.802	
43.00	-79.839	97.768	
44.00	-81.361	105.092	
45.00	-76.093	155.692	
46.00	-78.184	-172.522	
47.00	-76.080	-165.149	
48.00	-78.025	-126.995	
49.00	-78.839	-105.981	
50.00	-76.543	-69.126	
51.00	-78.360	-37.360	
52.00	-79.442	-0.697	
53.00	-76.661	36.539	
54.00	-76.421	53.780	
55.00	-75.998	87.829	
56.00	-76.971	117.263	
57.00	-77.031	147.730	
58.00	-75.996	-168.560	
59.00	-74.739	-155.171	
60.00	-76.440	-135.216	
61.00	-76.972	-112.493	
62.00	-76.356	-86.631	
63.00	-78.409	-63.549	
64.00	-77.955	-4.447	
65.00	-78.781	3.586	
66.00	-80.323	53.217	
67.00	-77.789	67.731	
68.00	-78.772	106.740	
69.00	-82.616	117.934	
70.00	-79.735	153.681	
71.00	-78.283	167.517	
72.00	-78.666	-145.915	
73.00	-77.619	-117.005	
74.00	-78.361	-98.336	
75.00	-77.387	-50.774	
76.00	-77.769	-30.660	
77.00	-75.823	1.346	
78.00	-74.132	38.315	
79.00	-74.516	68.215	
80.00	-73.445	76.562	
81.00	-73.800	105.840	
82.00	-70.953	138.660	
83.00	-71.255	158.887	
84.00	-70.350	-146.583	
85.00	-69.450	-126.365	
86.00	-68.306	-47.105	
87.00	-67.583	-45.785	
88.00	-65.889	29.358	
89.00	-66.216	35.565	
90.00	-65.520	93.148	
91.00	-63.992	108.497	
92.00	-63.960	144.233	
93.00	-63.222	-178.688	
94.00	-62.897	-159.851	
95.00	-61.880	-117.912	
96.00	-61.960	-99.003	
97.00	-60.848	-50.175	
98.00	-60.458	-42.054	
99.00	-60.407	9.630	
100.00	-59.322	32.649	
101.00	-59.000	71.907	
102.00	-58.229	101.433	
103.00	-58.092	120.161	
104.00	-57.307	150.235	
105.00	-56.797	171.408	
106.00	-56.024	-153.232	
107.00	-55.665	-130.035	
108.00	-55.250	-103.144	
109.00	-54.736	-74.487	
110.00	-54.370	-49.440	
111.00	-54.099	-25.046	
112.00	-53.497	4.142	
113.00	-53.225	35.602	
114.00	-52.667	59.961	
115.00	-52.172	72.304	
116.00	-51.714	93.307	
117.00	-51.268	107.234	
118.00	-50.857	117.953	
119.00	-50.355	137.588	
120.00	-49.953	151.517	
121.00	-49.435	174.348	
122.00	-49.107	-154.542	
123.00	-48.621	-131.051	
124.00	-48.226	-113.719	
125.00	-47.809	-97.124	
126.00	-47.361	-62.852	
127.00	-46.934	-42.709	
128.00	-46.548	-9.428	
129.00	-46.044	17.677	
130.00	-45.771	51.222	
131.00	-45.191	74.299	
132.00	-44.805	84.891	
133.00	-44.322	90.148	
134.00	-43.949	91.094	
135.00	-43.525	122.929	
136.00	-43.150	126.324	
137.00	-42.807	144.997	
138.00	-42.481	165.249	
139.00	-42.184	-173.261	
140.00	-42.001	-159.249	
141.00	-41.656	-129.571	
142.00	-41.392	-135.916	
143.00	-41.236	-97.766	
144.00	-41.043	-106.731	
145.00	-40.985	-86.822	
146.00	-40.763	-76.362	
147.00	-40.724	-66.815	
148.00	-40.601	-57.788	
149.00	-40.516	-62.125	
150.00	-40.475	-50.403	
151.00	-40.429	-47.703	
152.00	-40.442	-44.219	
153.00	-40.413	-36.558	
154.00	-40.416	-27.078	
155.00	-40.384	-14.339	
156.00	-40.340	-12.829	
157.00	-40.310	-10.687	
158.00	-40.268	-7.713	
159.00	-40.208	-1.553	
160.00	-40.142	16.029	
161.00	-40.006	35.827	
162.00	-39.877	26.413	
163.00	-39.811	59.994	
164.00	-39.679	52.181	
165.00	-39.590	74.551	
166.00	-39.461	69.287	
167.00	-39.396	61.286	
168.00	-39.315	74.207	
169.00	-39.266	77.287	
170.00	-39.230	84.596	
171.00	-39.222	74.390	
172.00	-39.278	81.709	
173.00	-39.247	102.936	
174.00	-39.251	75.240	
175.00	-39.274	99.916	
176.00	-39.291	70.343	
177.00	-39.314	77.862	
178.00	-39.394	68.405	
179.00	-39.545	71.090	
180.00	-39.495	38.262	
181.00	-39.485	73.037	
182.00	-39.542	53.683	
183.00	-39.573	53.155	
184.00	-39.586	64.285	
185.00	-39.598	22.459	
186.00	-39.629	46.227	
187.00	-39.638	36.234	
188.00	-39.651	37.710	
189.00	-39.674	32.209	
190.00	-39.693	13.040	
191.00	-39.726	-4.564	
192.00	-39.728	-1.022	
193.00	-39.734	-28.399	
194.00	-39.753	-31.884	
195.00	-39.984	-63.379	
196.00	-39.793	-105.119	
197.00	-39.873	-97.012	
198.00	-39.919	-111.274	
199.00	-39.984	-143.631	
200.00	-40.106	-145.015	
201.00	-40.140	176.747	
202.00	-40.294	-160.145	
203.00	-40.538	157.485	
204.00	-40.595	126.723	
205.00	-40.762	126.872	
206.00	-41.059	103.457	
207.00	-41.208	66.348	
208.00	-41.394	68.418	
209.00	-41.756	59.428	
210.00	-41.860	21.353	
211.00	-42.289	20.606	
212.00	-42.271	-35.298	
213.00	-42.490	-8.492	
214.00	-42.737	-91.614	
215.00	-42.618	-83.798	
216.00	-42.839	-131.029	
217.00	-42.697	-139.945	
218.00	-42.777	-174.753	
219.00	-42.779	173.413	
220.00	-42.741	131.685	
221.00	-42.832	130.112	
222.00	-42.750	79.254	
223.00	-42.793	72.746	
224.00	-42.692	31.905	
225.00	-42.717	41.051	
226.00	-42.803	-7.951	
227.00	-42.722	-22.619	
228.00	-42.902	-66.852	
229.00	-42.763	-88.731	
230.00	-42.938	-102.333	
231.00	-42.913	-126.267	
232.00	-43.090	-152.498	
233.00	-43.167	-174.025	
234.00	-43.459	155.748	
235.00	-43.653	131.341	
236.00	-43.966	103.101	
237.00	-44.289	83.612	
238.00	-44.705	43.531	
239.00	-44.994	20.536	
240.00	-45.445	-1.140	
241.00	-45.810	-49.001	
242.00	-46.134	-50.593	
243.00	-46.838	-112.424	
244.00	-47.035	-117.184	
245.00	-47.843	-155.191	
246.00	-48.004	-174.758	
247.00	-48.880	151.952	
248.00	-49.117	115.427	
249.00	-49.908	88.910	
250.00	-50.412	62.248	
251.00	-51.238	29.341	
252.00	-51.735	2.469	
253.00	-52.516	-29.078	
254.00	-52.914	-59.829	
255.00	-53.557	-96.851	
256.00	-54.160	-135.242	
257.00	-54.877	-171.222	
258.00	-55.745	150.315	
259.00	-56.542	118.022	
260.00	-57.541	81.956	
261.00	-58.595	19.775	
262.00	-59.163	-2.942	
263.00	-60.271	-26.036	
264.00	-60.617	-61.679	
265.00	-60.939	-90.015	
266.00	-61.460	-127.047	
267.00	-62.048	-167.329	
268.00	-62.131	163.273	
269.00	-63.186	123.389	
270.00	-64.019	94.436	
271.00	-65.288	42.200	
272.00	-66.279	8.528	
273.00	-67.824	-31.339	
274.00	-68.935	-74.538	
275.00	-69.400	-126.499	
276.00	-69.038	-172.491	
277.00	-69.000	160.077	
278.00	-68.797	116.039	
279.00	-68.886	91.154	
280.00	-68.625	41.770	
281.00	-69.174	9.958	
282.00	-69.389	-24.939	
283.00	-70.564	-62.536	
284.00	-70.822	-102.985	
285.00	-72.089	-140.413	
286.00	-72.685	178.289	
287.00	-72.391	134.640	
288.00	-72.445	82.794	
289.00	-72.697	42.736	
290.00	-71.626	-12.463	
291.00	-71.583	-51.557	
292.00	-71.406	-107.937	
293.00	-71.403	-143.962	
294.00	-72.095	168.487	
295.00	-72.462	146.307	
296.00	-73.454	110.686	
297.00	-74.144	72.938	
298.00	-73.542	44.803	
299.00	-72.510	-24.692	
300.00	-72.617	-42.873	
301.00	-72.160	-79.049	
302.00	-71.138	-90.062	
303.00	-70.497	-135.107	
304.00	-70.988	-160.972	
305.00	-71.208	175.873	
306.00	-72.537	140.218	
307.00	-73.287	124.659	
308.00	-75.168	83.608	
309.00	-75.300	59.173	
310.00	-77.794	10.342	
311.00	-76.614	-67.289	
312.00	-77.480	-71.890	
313.00	-77.522	-135.983	
314.00	-77.118	-143.871	
315.00	-76.663	168.408	
316.00	-75.361	142.531	
317.00	-77.651	107.011	
318.00	-76.757	78.655	
319.00	-77.299	34.285	
320.00	-77.775	10.873	
321.00	-76.979	-19.141	
322.00	-76.904	-37.900	
323.00	-77.707	-72.289	
324.00	-78.530	-108.256	
325.00	-77.194	-140.348	
326.00	-80.072	-169.381	
327.00	-80.036	157.633	
328.00	-83.200	128.044	
329.00	-81.895	65.476	
330.00	-82.786	47.251	
331.00	-81.427	22.326	
332.00	-80.861	-23.887	
333.00	-81.204	-36.850	
334.00	-78.878	-61.265	
335.00	-79.302	-115.991	
336.00	-78.710	-138.238	
337.00	-81.275	-143.330	
338.00	-81.369	179.725	
339.00	-80.707	174.271	
340.00	-82.091	123.222	
341.00	-82.543	103.242	
342.00	-82.644	79.888	
343.00	-82.507	50.495	
344.00	-80.877	18.929	
345.00	-82.214	29.615	
346.00	-82.680	15.375	
347.00	-82.406	-8.211	
348.00	-83.355	-7.592	
349.00	-84.086	-25.873	
350.00	-87.848	-23.865	
351.00	-86.268	-22.517	
352.00	-95.537	-26.287	
353.00	-88.342	35.164	
354.00	-89.177	35.127	
355.00	-95.948	71.106	
356.00	-93.987	125.343	
357.00	-90.316	145.442	
358.00	-87.710	93.206	
359.00	-88.077	137.487	
Frequency	4150.00	MHz	
Channel	test		
Scan Axis name	Azimuth  [deg]		
Scan Axis	Amplitude	Phase	
			
0.00	-93.182	-13.913	
1.00	-90.731	64.279	
2.00	-89.012	18.719	
3.00	-82.403	27.022	
4.00	-82.711	26.662	
5.00	-83.049	28.916	
6.00	-81.423	17.579	
7.00	-81.761	31.887	
8.00	-81.802	43.731	
9.00	-82.206	62.124	
10.00	-82.189	30.123	
11.00	-83.525	55.741	
12.00	-84.663	84.023	
13.00	-84.873	44.791	
14.00	-88.950	81.043	
15.00	-96.216	134.055	
16.00	-97.217	143.574	
17.00	-99.457	-119.143	
18.00	-96.838	-38.235	
19.00	-95.143	-58.593	
20.00	-88.439	-22.909	
21.00	-86.988	5.448	
22.00	-86.084	19.776	
23.00	-83.134	61.178	
24.00	-82.362	65.323	
25.00	-79.078	73.283	
26.00	-77.855	92.963	
27.00	-79.235	102.586	
28.00	-78.621	118.419	
29.00	-78.150	136.054	
30.00	-77.877	163.424	
31.00	-80.999	164.491	
32.00	-82.199	-163.807	
33.00	-81.574	-91.791	
34.00	-81.515	-76.410	
35.00	-81.996	-41.248	
36.00	-78.257	-18.054	
37.00	-77.820	20.900	
38.00	-77.050	36.497	
39.00	-76.244	67.736	
40.00	-76.664	91.271	
41.00	-76.516	106.983	
42.00	-77.439	132.162	
43.00	-80.630	153.104	
44.00	-82.388	179.005	
45.00	-84.508	-112.208	
46.00	-85.187	-98.651	
47.00	-82.405	-44.761	
48.00	-79.242	-4.496	
49.00	-76.911	41.253	
50.00	-76.175	62.886	
51.00	-75.760	89.224	
52.00	-73.304	107.748	
53.00	-73.144	131.571	
54.00	-74.132	147.504	
55.00	-74.210	165.783	
56.00	-76.495	-166.024	
57.00	-76.969	-152.833	
58.00	-78.086	-99.006	
59.00	-79.442	-61.793	
60.00	-81.355	-40.371	
61.00	-80.524	8.607	
62.00	-79.878	56.699	
63.00	-81.032	67.883	
64.00	-78.489	118.932	
65.00	-81.223	130.126	
66.00	-85.584	147.603	
67.00	-84.021	178.932	
68.00	-85.185	-103.234	
69.00	-82.925	-114.881	
70.00	-84.282	-82.803	
71.00	-84.430	-58.008	
72.00	-79.593	-8.961	
73.00	-78.009	-2.112	
74.00	-77.363	20.211	
75.00	-76.139	56.750	
76.00	-74.934	82.022	
77.00	-75.141	109.804	
78.00	-74.058	130.501	
79.00	-73.025	160.779	
80.00	-73.360	175.017	
81.00	-73.035	-151.186	
82.00	-71.777	-108.921	
83.00	-71.038	-84.579	
84.00	-69.214	-33.780	
85.00	-67.734	-11.891	
86.00	-66.939	59.094	
87.00	-65.560	55.613	
88.00	-65.477	128.663	
89.00	-64.823	130.888	
90.00	-65.023	-162.886	
91.00	-64.736	-149.048	
92.00	-64.701	-109.288	
93.00	-63.555	-65.765	
94.00	-62.952	-45.762	
95.00	-61.873	0.797	
96.00	-60.761	17.333	
97.00	-59.972	65.200	
98.00	-59.256	70.959	
99.00	-58.788	124.853	
100.00	-58.220	145.402	
101.00	-57.822	-175.616	
102.00	-57.637	-148.336	
103.00	-57.322	-124.575	
104.00	-56.703	-95.400	
105.00	-56.393	-71.314	
106.00	-55.918	-36.508	
107.00	-55.250	-10.784	
108.00	-54.972	15.790	
109.00	-54.323	46.973	
110.00	-53.928	71.436	
111.00	-53.525	96.512	
112.00	-53.223	125.176	
113.00	-52.847	156.964	
114.00	-52.403	179.801	
115.00	-52.071	-167.984	
116.00	-51.729	-145.904	
117.00	-51.362	-132.945	
118.00	-50.994	-121.500	
119.00	-50.578	-101.881	
120.00	-50.215	-87.958	
121.00	-49.757	-65.015	
122.00	-49.334	-32.331	
123.00	-48.822	-9.286	
124.00	-48.414	7.779	
125.00	-47.887	25.515	
126.00	-47.461	58.564	
127.00	-47.029	79.584	
128.00	-46.586	112.117	
129.00	-46.122	139.728	
130.00	-45.732	173.825	
131.00	-45.258	-164.570	
132.00	-44.892	-153.997	
133.00	-44.484	-149.488	
134.00	-44.141	-147.334	
135.00	-43.776	-115.733	
136.00	-43.417	-112.019	
137.00	-43.133	-92.807	
138.00	-42.852	-72.026	
139.00	-42.544	-50.300	
140.00	-42.366	-35.363	
141.00	-42.030	-5.898	
142.00	-41.774	-11.785	
143.00	-41.586	27.479	
144.00	-41.414	17.167	
145.00	-41.295	38.828	
146.00	-41.045	48.128	
147.00	-41.005	58.997	
148.00	-40.833	67.154	
149.00	-40.747	63.419	
150.00	-40.685	75.237	
151.00	-40.672	77.948	
152.00	-40.666	81.831	
153.00	-40.624	89.492	
154.00	-40.619	99.559	
155.00	-40.590	112.058	
156.00	-40.527	113.673	
157.00	-40.524	116.368	
158.00	-40.468	119.007	
159.00	-40.459	125.737	
160.00	-40.395	143.772	
161.00	-40.321	163.173	
162.00	-40.212	153.704	
163.00	-40.192	-171.907	
164.00	-40.026	178.983	
165.00	-39.965	-157.576	
166.00	-39.854	-164.364	
167.00	-39.764	-171.949	
168.00	-39.651	-159.079	
169.00	-39.589	-155.951	
170.00	-39.515	-148.975	
171.00	-39.477	-159.445	
172.00	-39.521	-151.047	
173.00	-39.457	-130.864	
174.00	-39.432	-158.106	
175.00	-39.411	-133.411	
176.00	-39.419	-163.105	
177.00	-39.454	-155.770	
178.00	-39.509	-164.543	
179.00	-39.665	-163.051	
180.00	-39.610	165.051	
181.00	-39.639	-159.804	
182.00	-39.744	179.926	
183.00	-39.798	-179.840	
184.00	-39.895	-169.671	
185.00	-39.891	148.213	
186.00	-39.992	172.877	
187.00	-40.004	161.236	
188.00	-40.042	162.916	
189.00	-40.073	156.252	
190.00	-40.071	136.371	
191.00	-40.069	118.641	
192.00	-40.069	121.526	
193.00	-40.039	93.433	
194.00	-40.013	90.033	
195.00	-40.189	56.373	
196.00	-39.933	15.839	
197.00	-39.946	23.919	
198.00	-39.969	9.576	
199.00	-39.947	-23.336	
200.00	-40.053	-24.433	
201.00	-40.058	-62.799	
202.00	-40.153	-39.079	
203.00	-40.369	-82.369	
204.00	-40.415	-112.642	
205.00	-40.516	-111.941	
206.00	-40.774	-136.153	
207.00	-40.906	-172.864	
208.00	-41.110	-169.276	
209.00	-41.503	-179.448	
210.00	-41.600	144.324	
211.00	-42.127	142.743	
212.00	-42.159	87.726	
213.00	-42.513	114.280	
214.00	-42.889	30.134	
215.00	-42.888	38.854	
216.00	-43.178	-10.725	
217.00	-43.068	-19.094	
218.00	-43.207	-55.457	
219.00	-43.158	-67.782	
220.00	-43.080	-110.336	
221.00	-43.119	-112.739	
222.00	-43.034	-163.732	
223.00	-43.065	-171.020	
224.00	-42.928	148.488	
225.00	-42.973	157.423	
226.00	-43.018	107.634	
227.00	-42.998	93.567	
228.00	-43.216	47.471	
229.00	-43.124	26.336	
230.00	-43.285	10.921	
231.00	-43.306	-13.270	
232.00	-43.481	-40.884	
233.00	-43.533	-62.503	
234.00	-43.748	-94.231	
235.00	-43.869	-119.089	
236.00	-44.125	-148.283	
237.00	-44.368	-167.793	
238.00	-44.714	151.052	
239.00	-44.930	128.512	
240.00	-45.377	105.759	
241.00	-45.707	58.006	
242.00	-46.061	56.648	
243.00	-46.765	-7.552	
244.00	-46.965	-10.265	
245.00	-47.726	-51.422	
246.00	-47.799	-69.513	
247.00	-48.610	-105.665	
248.00	-48.771	-141.331	
249.00	-49.413	-169.012	
250.00	-49.797	164.685	
251.00	-50.534	130.910	
252.00	-50.892	105.606	
253.00	-51.669	73.424	
254.00	-52.168	43.536	
255.00	-53.110	5.313	
256.00	-53.635	-33.205	
257.00	-54.342	-70.472	
258.00	-55.115	-110.265	
259.00	-55.573	-143.042	
260.00	-56.320	-179.437	
261.00	-57.146	120.803	
262.00	-57.715	100.075	
263.00	-58.473	79.288	
264.00	-59.233	44.222	
265.00	-60.221	16.507	
266.00	-61.120	-23.701	
267.00	-61.676	-65.974	
268.00	-62.131	-97.485	
269.00	-62.643	-142.674	
270.00	-62.971	-170.538	
271.00	-63.342	134.010	
272.00	-63.720	104.964	
273.00	-64.434	71.905	
274.00	-66.238	35.920	
275.00	-67.522	-9.922	
276.00	-69.736	-55.943	
277.00	-70.590	-87.604	
278.00	-70.845	-148.242	
279.00	-69.796	-178.349	
280.00	-68.977	129.684	
281.00	-68.456	99.326	
282.00	-68.321	65.316	
283.00	-68.589	39.692	
284.00	-69.012	-0.578	
285.00	-70.200	-36.395	
286.00	-71.891	-64.270	
287.00	-73.442	-120.485	
288.00	-74.266	-173.904	
289.00	-74.318	139.790	
290.00	-73.566	78.006	
291.00	-74.302	37.889	
292.00	-73.693	-15.616	
293.00	-73.444	-57.847	
294.00	-74.104	-105.367	
295.00	-75.013	-139.459	
296.00	-73.055	-174.723	
297.00	-74.171	152.291	
298.00	-73.074	119.761	
299.00	-73.180	69.178	
300.00	-73.250	58.560	
301.00	-73.056	14.161	
302.00	-74.110	6.152	
303.00	-75.410	-43.856	
304.00	-75.307	-91.408	
305.00	-75.868	-117.512	
306.00	-75.863	-169.592	
307.00	-74.699	-179.527	
308.00	-75.295	137.825	
309.00	-74.158	111.777	
310.00	-74.473	80.078	
311.00	-75.274	22.618	
312.00	-78.556	6.558	
313.00	-79.156	-65.603	
314.00	-78.907	-70.389	
315.00	-77.086	-140.917	
316.00	-77.935	-166.704	
317.00	-75.779	144.566	
318.00	-75.874	136.337	
319.00	-76.001	98.598	
320.00	-75.754	75.156	
321.00	-77.053	55.534	
322.00	-77.237	31.888	
323.00	-79.244	-11.935	
324.00	-79.802	-40.687	
325.00	-81.882	-62.433	
326.00	-82.882	-120.740	
327.00	-82.684	-179.227	
328.00	-84.862	145.203	
329.00	-81.021	93.026	
330.00	-82.465	72.895	
331.00	-79.818	58.302	
332.00	-76.886	43.000	
333.00	-78.751	30.036	
334.00	-77.733	-4.777	
335.00	-76.489	-44.780	
336.00	-78.742	-61.360	
337.00	-79.474	-76.177	
338.00	-79.128	-99.300	
339.00	-80.941	-136.129	
340.00	-86.132	176.773	
341.00	-82.021	157.980	
342.00	-83.604	135.105	
343.00	-81.134	115.878	
344.00	-80.330	95.614	
345.00	-83.650	95.049	
346.00	-82.008	75.561	
347.00	-82.773	65.230	
348.00	-82.933	50.279	
349.00	-89.331	53.618	
350.00	-86.910	16.475	
351.00	-90.025	23.177	
352.00	-91.507	71.775	
353.00	-91.014	130.608	
354.00	-87.660	132.203	
355.00	-89.090	110.088	
356.00	-87.389	76.960	
357.00	-91.655	116.455	
358.00	-85.048	125.155	
359.00	-90.820	132.571	
Frequency	4200.00	MHz	
Channel	test		
Scan Axis name	Azimuth  [deg]		
Scan Axis	Amplitude	Phase	
			
0.00	-79.914	-97.345	
1.00	-82.077	-52.968	
2.00	-88.730	-86.417	
3.00	-94.441	-20.891	
4.00	-88.458	-18.960	
5.00	-93.840	90.341	
6.00	-84.976	54.966	
7.00	-87.083	46.220	
8.00	-83.999	86.412	
9.00	-83.888	82.845	
10.00	-88.967	81.064	
11.00	-84.634	87.412	
12.00	-84.455	106.816	
13.00	-88.195	45.297	
14.00	-89.083	11.012	
15.00	-103.507	-5.229	
16.00	-90.718	-19.202	
17.00	-87.251	-32.590	
18.00	-86.321	-20.162	
19.00	-81.504	-36.888	
20.00	-84.721	7.335	
21.00	-85.208	24.087	
22.00	-83.753	61.992	
23.00	-83.418	81.519	
24.00	-78.194	109.990	
25.00	-83.492	120.325	
26.00	-80.360	148.518	
27.00	-78.581	152.183	
28.00	-78.743	-177.617	
29.00	-78.935	-154.837	
30.00	-80.994	-119.151	
31.00	-83.161	-117.135	
32.00	-79.442	-75.489	
33.00	-79.739	-40.712	
34.00	-79.932	-0.809	
35.00	-78.033	20.700	
36.00	-77.461	36.514	
37.00	-78.645	78.581	
38.00	-75.739	119.131	
39.00	-77.525	127.545	
40.00	-78.610	146.697	
41.00	-79.560	179.521	
42.00	-78.302	-133.659	
43.00	-80.021	-109.721	
44.00	-78.510	-73.065	
45.00	-77.509	-36.281	
46.00	-82.875	3.515	
47.00	-79.196	47.987	
48.00	-75.302	75.345	
49.00	-76.014	101.312	
50.00	-73.684	117.491	
51.00	-74.369	152.860	
52.00	-72.633	178.640	
53.00	-72.752	-153.599	
54.00	-72.906	-135.616	
55.00	-74.773	-112.466	
56.00	-78.604	-69.355	
57.00	-77.431	-60.437	
58.00	-79.672	-2.175	
59.00	-80.163	17.716	
60.00	-79.665	43.203	
61.00	-80.405	107.861	
62.00	-79.686	171.470	
63.00	-77.512	165.570	
64.00	-78.824	-138.197	
65.00	-76.486	-116.357	
66.00	-79.046	-74.375	
67.00	-76.673	-47.046	
68.00	-77.259	-20.528	
69.00	-76.918	-26.229	
70.00	-77.338	1.131	
71.00	-75.313	20.280	
72.00	-77.123	69.868	
73.00	-75.881	85.750	
74.00	-75.940	105.219	
75.00	-77.412	135.323	
76.00	-76.779	179.414	
77.00	-74.762	-143.722	
78.00	-73.102	-123.754	
79.00	-71.753	-88.913	
80.00	-70.967	-77.142	
81.00	-69.728	-47.025	
82.00	-68.941	-16.264	
83.00	-67.917	3.388	
84.00	-68.270	52.335	
85.00	-67.025	70.852	
86.00	-66.247	140.518	
87.00	-66.328	149.094	
88.00	-65.861	-132.617	
89.00	-64.198	-131.285	
90.00	-64.026	-64.157	
91.00	-62.950	-50.465	
92.00	-62.967	-8.907	
93.00	-61.694	28.665	
94.00	-60.808	46.895	
95.00	-59.917	89.831	
96.00	-59.085	105.043	
97.00	-58.262	153.909	
98.00	-58.129	159.865	
99.00	-58.044	-143.335	
100.00	-57.241	-120.424	
101.00	-57.009	-80.380	
102.00	-56.522	-50.575	
103.00	-56.187	-25.805	
104.00	-55.395	2.304	
105.00	-55.055	25.536	
106.00	-54.524	60.100	
107.00	-53.865	85.918	
108.00	-53.693	113.968	
109.00	-53.347	145.711	
110.00	-52.874	169.898	
111.00	-52.569	-163.300	
112.00	-52.212	-134.567	
113.00	-52.176	-100.941	
114.00	-51.642	-77.854	
115.00	-51.369	-64.475	
116.00	-51.124	-42.115	
117.00	-50.642	-28.242	
118.00	-50.317	-16.706	
119.00	-50.171	3.973	
120.00	-49.727	17.888	
121.00	-49.414	41.397	
122.00	-48.975	74.398	
123.00	-48.606	96.701	
124.00	-48.241	114.551	
125.00	-47.846	131.501	
126.00	-47.416	164.389	
127.00	-47.142	-173.649	
128.00	-46.782	-140.731	
129.00	-46.381	-113.502	
130.00	-46.079	-79.063	
131.00	-45.646	-56.603	
132.00	-45.353	-46.036	
133.00	-44.978	-41.834	
134.00	-44.708	-38.662	
135.00	-44.300	-7.009	
136.00	-43.971	-3.407	
137.00	-43.593	16.205	
138.00	-43.356	37.722	
139.00	-43.014	59.128	
140.00	-42.815	74.630	
141.00	-42.387	103.215	
142.00	-42.199	97.986	
143.00	-41.931	137.397	
144.00	-41.744	126.167	
145.00	-41.647	149.533	
146.00	-41.368	157.482	
147.00	-41.306	169.936	
148.00	-41.129	177.049	
149.00	-41.012	173.929	
150.00	-40.925	-173.868	
151.00	-40.900	-171.055	
152.00	-40.835	-166.849	
153.00	-40.746	-158.975	
154.00	-40.737	-147.996	
155.00	-40.656	-135.498	
156.00	-40.618	-133.762	
157.00	-40.630	-130.594	
158.00	-40.521	-127.622	
159.00	-40.518	-120.412	
160.00	-40.461	-101.603	
161.00	-40.304	-82.660	
162.00	-40.241	-92.000	
163.00	-40.185	-56.676	
164.00	-40.067	-66.463	
165.00	-40.022	-41.772	
166.00	-39.913	-50.058	
167.00	-39.821	-56.645	
168.00	-39.740	-44.209	
169.00	-39.649	-40.948	
170.00	-39.615	-34.572	
171.00	-39.578	-45.530	
172.00	-39.613	-36.094	
173.00	-39.556	-17.318	
174.00	-39.501	-44.039	
175.00	-39.510	-19.799	
176.00	-39.513	-49.837	
177.00	-39.495	-42.763	
178.00	-39.559	-51.228	
179.00	-39.736	-51.317	
180.00	-39.664	-82.079	
181.00	-39.668	-46.865	
182.00	-39.757	-67.972	
183.00	-39.825	-66.529	
184.00	-39.895	-57.456	
185.00	-39.932	-99.752	
186.00	-39.999	-73.877	
187.00	-40.066	-86.330	
188.00	-40.075	-83.904	
189.00	-40.147	-91.353	
190.00	-40.156	-111.374	
191.00	-40.184	-128.518	
192.00	-40.177	-125.862	
193.00	-40.163	-154.016	
194.00	-40.172	-157.296	
195.00	-40.432	167.567	
196.00	-40.146	128.194	
197.00	-40.145	135.927	
198.00	-40.163	121.545	
199.00	-40.231	88.036	
200.00	-40.305	87.135	
201.00	-40.330	48.729	
202.00	-40.402	73.171	
203.00	-40.618	28.164	
204.00	-40.659	-1.807	
205.00	-40.748	-0.613	
206.00	-40.978	-26.048	
207.00	-41.061	-62.449	
208.00	-41.251	-57.926	
209.00	-41.587	-69.534	
210.00	-41.660	-104.379	
211.00	-42.154	-107.136	
212.00	-42.205	-160.872	
213.00	-42.512	-134.053	
214.00	-42.927	141.051	
215.00	-43.009	151.890	
216.00	-43.436	100.838	
217.00	-43.482	93.453	
218.00	-43.670	55.821	
219.00	-43.784	42.957	
220.00	-43.764	-0.641	
221.00	-43.824	-4.085	
222.00	-43.674	-56.348	
223.00	-43.703	-64.805	
224.00	-43.498	-104.837	
225.00	-43.481	-96.721	
226.00	-43.491	-147.673	
227.00	-43.416	-160.968	
228.00	-43.664	151.059	
229.00	-43.521	131.663	
230.00	-43.704	114.714	
231.00	-43.763	90.506	
232.00	-43.899	61.768	
233.00	-43.959	39.854	
234.00	-44.204	7.049	
235.00	-44.262	-18.189	
236.00	-44.410	-48.184	
237.00	-44.631	-67.994	
238.00	-44.936	-109.623	
239.00	-45.121	-131.520	
240.00	-45.575	-155.051	
241.00	-45.869	156.966	
242.00	-46.200	156.095	
243.00	-46.983	89.649	
244.00	-47.145	88.846	
245.00	-47.934	44.901	
246.00	-48.008	28.289	
247.00	-48.802	-11.004	
248.00	-48.871	-45.080	
249.00	-49.472	-74.030	
250.00	-49.762	-100.008	
251.00	-50.452	-134.918	
252.00	-50.806	-159.487	
253.00	-51.631	167.657	
254.00	-52.036	138.621	
255.00	-52.932	98.985	
256.00	-53.540	60.617	
257.00	-54.229	23.012	
258.00	-54.940	-16.961	
259.00	-55.503	-51.185	
260.00	-56.195	-88.091	
261.00	-56.892	-149.614	
262.00	-57.201	-167.911	
263.00	-58.061	170.632	
264.00	-58.723	138.074	
265.00	-59.650	111.272	
266.00	-60.862	73.378	
267.00	-61.577	31.998	
268.00	-62.446	0.118	
269.00	-63.448	-47.669	
270.00	-64.092	-78.967	
271.00	-64.215	-135.383	
272.00	-64.802	-166.661	
273.00	-65.573	155.238	
274.00	-66.072	121.802	
275.00	-66.957	75.022	
276.00	-68.054	36.793	
277.00	-69.687	4.897	
278.00	-70.780	-43.607	
279.00	-71.743	-72.251	
280.00	-72.698	-138.719	
281.00	-72.486	-172.244	
282.00	-70.725	144.853	
283.00	-70.593	109.843	
284.00	-70.054	70.036	
285.00	-70.311	35.433	
286.00	-70.667	7.914	
287.00	-72.573	-33.218	
288.00	-73.345	-76.238	
289.00	-74.984	-118.202	
290.00	-76.162	174.906	
291.00	-79.523	116.822	
292.00	-78.296	56.777	
293.00	-77.623	11.895	
294.00	-76.796	-41.430	
295.00	-75.986	-67.357	
296.00	-75.023	-100.858	
297.00	-74.085	-138.692	
298.00	-75.053	-164.294	
299.00	-75.929	133.721	
300.00	-75.528	112.794	
301.00	-75.012	80.992	
302.00	-75.120	66.794	
303.00	-76.031	7.902	
304.00	-76.523	-30.137	
305.00	-76.884	-42.448	
306.00	-75.099	-108.624	
307.00	-75.670	-113.317	
308.00	-76.438	-155.636	
309.00	-76.319	-176.023	
310.00	-77.608	145.587	
311.00	-78.359	82.768	
312.00	-80.814	72.677	
313.00	-82.433	-10.882	
314.00	-80.421	-30.072	
315.00	-78.557	-81.300	
316.00	-78.345	-116.810	
317.00	-77.778	-142.394	
318.00	-77.295	-174.969	
319.00	-76.135	152.072	
320.00	-76.282	126.756	
321.00	-77.202	97.442	
322.00	-77.018	73.836	
323.00	-77.277	45.161	
324.00	-78.371	-9.191	
325.00	-79.266	-24.001	
326.00	-77.630	-62.461	
327.00	-80.185	-98.156	
328.00	-81.750	-129.967	
329.00	-83.372	160.735	
330.00	-80.576	141.203	
331.00	-79.784	127.021	
332.00	-79.104	89.842	
333.00	-79.599	94.374	
334.00	-79.982	48.270	
335.00	-80.614	9.625	
336.00	-81.620	-17.358	
337.00	-79.876	-33.845	
338.00	-83.113	-78.184	
339.00	-82.493	-87.662	
340.00	-84.174	-131.967	
341.00	-85.003	-157.182	
342.00	-83.469	-158.165	
343.00	-85.418	173.109	
344.00	-84.628	152.082	
345.00	-92.714	123.815	
346.00	-88.154	133.813	
347.00	-88.162	131.605	
348.00	-94.132	22.723	
349.00	-109.569	-99.868	
350.00	-88.195	100.638	
351.00	-88.101	-171.370	
352.00	-90.067	-166.023	
353.00	-86.327	171.590	
354.00	-85.967	-174.169	
355.00	-85.176	139.598	
356.00	-81.346	179.327	
357.00	-81.458	165.078	
358.00	-82.470	-172.856	
359.00	-81.742	167.629	
