Test Title:	Alpha Wireless Indoor Range						
Date:	21/03/2018						
Time:	14:20						
Operator Name:	FL						
Comment:	Radome height is 74mm 

No wings						
Caib. File Name:	C:\Program Files\Midas 2.01d\Calibration Files\test sigma 180900.cal						
							
[Scan Axis] Name: 	Azimuth  [deg]Start: 	0.000000	Stop	359.000000	Increment	1.000000[Step Axis] Name: 	Start: 	0.000000	Stop	0.000000	Increment	0.000000[Tert] Name: 	None [Forth] Name: 	None  [ Freq.]  (List) 	MHz.	3400.000000	3450.000000	3500.000000	3550.000000	3600.000000	3650.000000	3700.000000	3750.000000	3800.000000	3850.000000	3900.000000	3950.000000	4000.000000	4050.000000	4100.000000	4150.000000	4200.000000
 [Switch]  	None [Channel]  	test			 [ Beam] 	None			
Database:			
First Question			
2nd			
3rd			
4th			
			
Frequency	3400.00	MHz	
Channel	test		
Scan Axis name	Azimuth  [deg]		
Scan Axis	Amplitude	Phase	
			
0.00	-76.253	-78.988	
1.00	-76.034	-82.221	
2.00	-78.059	-56.389	
3.00	-76.469	-70.935	
4.00	-75.326	-56.274	
5.00	-74.575	-48.814	
6.00	-74.059	-36.349	
7.00	-77.906	-40.094	
8.00	-78.942	-60.753	
9.00	-85.095	-56.191	
10.00	-88.163	-58.014	
11.00	-94.446	-42.252	
12.00	-102.334	47.872	
13.00	-85.667	-51.482	
14.00	-81.653	-46.589	
15.00	-80.388	-15.249	
16.00	-82.060	-28.642	
17.00	-81.322	-21.247	
18.00	-82.440	-37.664	
19.00	-85.741	-47.500	
20.00	-84.364	-104.229	
21.00	-79.427	-117.512	
22.00	-78.308	-99.764	
23.00	-77.671	-106.036	
24.00	-80.409	-78.846	
25.00	-81.669	-89.146	
26.00	-82.537	-94.478	
27.00	-82.581	-116.520	
28.00	-81.273	-93.314	
29.00	-81.327	-108.330	
30.00	-81.120	-122.858	
31.00	-80.036	-118.452	
32.00	-79.991	-118.194	
33.00	-81.140	-83.473	
34.00	-85.567	14.438	
35.00	-80.443	39.086	
36.00	-81.279	121.829	
37.00	-87.281	133.136	
38.00	-88.775	-178.106	
39.00	-94.444	164.383	
40.00	-82.986	-166.625	
41.00	-77.754	-129.231	
42.00	-77.997	-98.379	
43.00	-74.253	-88.586	
44.00	-76.120	-63.555	
45.00	-79.393	-40.427	
46.00	-87.307	-48.077	
47.00	-84.073	-97.028	
48.00	-87.141	-78.620	
49.00	-102.902	-99.203	
50.00	-88.103	153.321	
51.00	-79.809	161.754	
52.00	-79.485	-164.061	
53.00	-75.498	-128.235	
54.00	-76.751	-96.129	
55.00	-78.142	-43.735	
56.00	-81.661	2.709	
57.00	-79.275	91.190	
58.00	-75.592	140.924	
59.00	-72.610	176.092	
60.00	-70.943	-163.733	
61.00	-70.889	-118.268	
62.00	-70.980	-90.465	
63.00	-71.805	-48.899	
64.00	-73.181	-19.799	
65.00	-74.617	17.791	
66.00	-77.831	38.178	
67.00	-79.667	83.764	
68.00	-77.075	169.116	
69.00	-77.594	-177.783	
70.00	-74.924	-146.965	
71.00	-73.657	-124.352	
72.00	-73.721	-112.148	
73.00	-73.562	-58.416	
74.00	-73.223	-61.756	
75.00	-75.531	-19.492	
76.00	-75.136	3.729	
77.00	-77.496	28.553	
78.00	-78.408	72.708	
79.00	-77.665	101.207	
80.00	-74.071	155.090	
81.00	-72.885	179.104	
82.00	-71.899	-171.023	
83.00	-71.170	-165.694	
84.00	-70.065	-128.967	
85.00	-71.811	-111.557	
86.00	-75.041	-36.612	
87.00	-73.196	-67.360	
88.00	-77.711	-33.272	
89.00	-83.470	-32.210	
90.00	-95.497	-83.370	
91.00	-83.498	-131.075	
92.00	-79.782	-127.842	
93.00	-77.801	-109.014	
94.00	-75.278	-107.601	
95.00	-76.679	-75.038	
96.00	-78.836	-66.286	
97.00	-83.583	17.884	
98.00	-83.546	69.934	
99.00	-78.768	118.321	
100.00	-75.067	163.613	
101.00	-71.585	-172.876	
102.00	-69.128	-135.905	
103.00	-67.564	-116.297	
104.00	-65.775	-83.359	
105.00	-64.455	-76.259	
106.00	-63.806	-30.677	
107.00	-62.753	-16.472	
108.00	-61.929	18.968	
109.00	-61.671	81.868	
110.00	-60.836	106.650	
111.00	-60.841	126.337	
112.00	-60.359	-156.561	
113.00	-60.357	-137.278	
114.00	-60.622	-111.017	
115.00	-61.681	-75.819	
116.00	-63.722	-71.711	
117.00	-66.991	-49.165	
118.00	-73.323	-62.061	
119.00	-71.272	-102.198	
120.00	-66.269	-102.868	
121.00	-62.885	-97.245	
122.00	-61.597	-73.542	
123.00	-61.029	-69.065	
124.00	-61.312	-37.765	
125.00	-62.521	-40.233	
126.00	-64.080	-46.632	
127.00	-66.168	-35.044	
128.00	-65.385	-53.248	
129.00	-63.714	-46.189	
130.00	-61.812	-45.409	
131.00	-60.193	-31.508	
132.00	-58.849	-23.660	
133.00	-57.783	-16.516	
134.00	-57.065	-2.402	
135.00	-55.803	-13.621	
136.00	-54.734	11.806	
137.00	-53.695	22.138	
138.00	-53.099	49.290	
139.00	-53.063	64.000	
140.00	-53.616	86.746	
141.00	-55.249	109.229	
142.00	-57.869	136.349	
143.00	-62.287	155.854	
144.00	-69.713	-142.983	
145.00	-68.585	-57.591	
146.00	-63.633	-12.984	
147.00	-61.774	2.334	
148.00	-61.834	3.634	
149.00	-64.588	52.431	
150.00	-71.148	82.448	
151.00	-71.362	-143.506	
152.00	-62.498	-109.202	
153.00	-58.828	-126.416	
154.00	-56.950	-102.380	
155.00	-56.448	-107.372	
156.00	-57.396	-86.465	
157.00	-60.022	-92.332	
158.00	-68.302	-95.752	
159.00	-67.288	134.788	
160.00	-59.188	122.118	
161.00	-55.681	92.489	
162.00	-53.621	144.418	
163.00	-53.494	130.824	
164.00	-54.694	-170.313	
165.00	-58.014	175.504	
166.00	-63.133	163.975	
167.00	-61.028	82.498	
168.00	-56.497	73.648	
169.00	-55.539	102.837	
170.00	-58.640	61.855	
171.00	-65.823	-2.655	
172.00	-54.141	-91.145	
173.00	-47.271	-117.337	
174.00	-43.195	-100.980	
175.00	-40.305	-115.526	
176.00	-38.158	-54.387	
177.00	-36.675	-64.890	
178.00	-35.623	-47.541	
179.00	-35.036	-58.663	
180.00	-34.866	-47.566	
181.00	-35.184	-75.939	
182.00	-35.946	-64.593	
183.00	-37.246	-63.636	
184.00	-39.211	-69.134	
185.00	-41.998	-68.118	
186.00	-46.150	-78.258	
187.00	-52.427	-69.940	
188.00	-59.465	-91.275	
189.00	-62.152	64.218	
190.00	-55.298	87.085	
191.00	-54.001	105.975	
192.00	-55.374	97.463	
193.00	-59.362	106.231	
194.00	-68.480	143.107	
195.00	-62.998	-135.351	
196.00	-57.905	-126.386	
197.00	-55.860	-121.578	
198.00	-55.313	-115.267	
199.00	-55.976	-127.515	
200.00	-57.943	-125.379	
201.00	-61.542	-140.115	
202.00	-68.850	-135.395	
203.00	-77.299	-41.304	
204.00	-66.798	-7.600	
205.00	-62.956	-17.124	
206.00	-61.881	-23.147	
207.00	-62.407	-25.352	
208.00	-64.284	-30.015	
209.00	-70.402	-8.910	
210.00	-71.756	68.837	
211.00	-63.578	98.716	
212.00	-59.177	125.173	
213.00	-56.765	118.013	
214.00	-55.555	114.827	
215.00	-55.038	109.767	
216.00	-55.259	109.419	
217.00	-56.353	83.080	
218.00	-58.040	73.498	
219.00	-60.408	62.543	
220.00	-63.315	75.681	
221.00	-66.035	70.831	
222.00	-66.962	94.863	
223.00	-66.672	93.270	
224.00	-66.484	104.148	
225.00	-66.158	78.437	
226.00	-66.490	91.287	
227.00	-67.476	53.463	
228.00	-68.504	35.016	
229.00	-69.936	18.817	
230.00	-70.973	-22.732	
231.00	-71.258	-53.851	
232.00	-72.090	-76.007	
233.00	-73.573	-98.336	
234.00	-76.285	-126.034	
235.00	-78.638	-168.464	
236.00	-77.067	160.923	
237.00	-75.859	117.005	
238.00	-74.518	107.351	
239.00	-74.999	76.225	
240.00	-73.157	51.265	
241.00	-73.642	54.085	
242.00	-72.746	38.362	
243.00	-71.815	53.587	
244.00	-69.486	19.663	
245.00	-68.719	27.542	
246.00	-67.156	3.552	
247.00	-66.501	-6.816	
248.00	-66.386	-13.041	
249.00	-65.722	-36.756	
250.00	-65.400	-55.310	
251.00	-65.449	-75.819	
252.00	-65.952	-87.356	
253.00	-65.877	-109.078	
254.00	-66.250	-120.553	
255.00	-67.591	-143.381	
256.00	-68.439	-157.933	
257.00	-69.291	-167.785	
258.00	-71.203	175.832	
259.00	-72.391	156.895	
260.00	-74.582	144.718	
261.00	-76.949	115.639	
262.00	-77.968	97.501	
263.00	-79.658	66.101	
264.00	-79.848	37.752	
265.00	-78.361	14.425	
266.00	-77.691	-9.979	
267.00	-77.689	-32.058	
268.00	-77.761	-52.241	
269.00	-77.714	-77.700	
270.00	-77.329	-107.706	
271.00	-77.791	-142.288	
272.00	-78.732	173.278	
273.00	-79.921	169.734	
274.00	-81.973	123.663	
275.00	-82.425	73.155	
276.00	-80.726	16.246	
277.00	-79.366	-1.619	
278.00	-78.639	-52.441	
279.00	-77.207	-64.668	
280.00	-76.766	-97.274	
281.00	-77.834	-111.068	
282.00	-78.253	-119.584	
283.00	-81.957	-148.327	
284.00	-85.599	153.057	
285.00	-92.418	132.427	
286.00	-88.694	-8.563	
287.00	-82.440	-30.971	
288.00	-78.159	-45.713	
289.00	-75.420	-78.067	
290.00	-74.373	-100.170	
291.00	-74.599	-107.168	
292.00	-75.585	-116.915	
293.00	-77.302	-121.152	
294.00	-79.090	-128.027	
295.00	-80.135	-135.831	
296.00	-81.521	-132.680	
297.00	-83.581	-143.531	
298.00	-89.020	-74.806	
299.00	-82.896	-75.757	
300.00	-81.890	-76.838	
301.00	-80.056	-88.896	
302.00	-79.497	-118.008	
303.00	-79.485	-119.144	
304.00	-77.672	-151.189	
305.00	-81.373	-162.778	
306.00	-85.774	-171.974	
307.00	-87.431	-160.398	
308.00	-89.209	168.265	
309.00	-87.076	-179.484	
310.00	-84.060	-173.274	
311.00	-82.854	-174.117	
312.00	-84.888	-169.719	
313.00	-84.529	156.765	
314.00	-87.621	149.964	
315.00	-85.661	105.350	
316.00	-84.444	73.554	
317.00	-81.755	72.287	
318.00	-82.666	4.854	
319.00	-84.607	-16.580	
320.00	-83.039	-52.913	
321.00	-82.314	-118.313	
322.00	-79.306	-118.594	
323.00	-78.648	-119.979	
324.00	-80.969	-135.726	
325.00	-85.404	-141.659	
326.00	-92.162	-144.015	
327.00	-85.746	-107.420	
328.00	-80.698	-101.891	
329.00	-79.508	-122.242	
330.00	-79.117	-130.865	
331.00	-85.109	-107.985	
332.00	-87.347	-58.346	
333.00	-80.889	-74.214	
334.00	-77.894	-70.261	
335.00	-76.724	-72.134	
336.00	-78.293	-71.964	
337.00	-78.218	-79.875	
338.00	-79.429	-61.178	
339.00	-78.427	-84.557	
340.00	-78.033	-88.618	
341.00	-81.076	-107.162	
342.00	-83.288	-103.758	
343.00	-85.807	-119.237	
344.00	-90.842	-73.757	
345.00	-82.694	-85.846	
346.00	-78.743	-82.533	
347.00	-79.595	-110.735	
348.00	-77.406	-112.470	
349.00	-80.021	-122.722	
350.00	-85.408	-104.586	
351.00	-85.595	-65.246	
352.00	-83.687	-66.308	
353.00	-81.437	-59.088	
354.00	-82.947	-68.517	
355.00	-90.607	-65.871	
356.00	-85.058	-66.613	
357.00	-86.946	-76.381	
358.00	-78.076	-101.638	
359.00	-77.067	-129.684	
Frequency	3450.00	MHz	
Channel	test		
Scan Axis name	Azimuth  [deg]		
Scan Axis	Amplitude	Phase	
			
0.00	-80.544	0.227	
1.00	-79.733	-0.186	
2.00	-78.677	4.073	
3.00	-78.238	-6.935	
4.00	-76.154	4.941	
5.00	-73.573	5.790	
6.00	-76.202	19.558	
7.00	-78.367	28.774	
8.00	-77.735	30.844	
9.00	-80.800	33.941	
10.00	-79.024	20.764	
11.00	-82.036	27.802	
12.00	-77.353	-6.355	
13.00	-76.956	3.107	
14.00	-75.879	2.466	
15.00	-75.549	21.428	
16.00	-75.468	30.470	
17.00	-77.041	50.544	
18.00	-75.712	48.126	
19.00	-76.113	51.596	
20.00	-77.314	28.550	
21.00	-80.048	11.224	
22.00	-77.592	-14.386	
23.00	-75.225	-13.025	
24.00	-74.339	-0.218	
25.00	-73.521	-6.033	
26.00	-73.159	5.485	
27.00	-73.874	3.266	
28.00	-73.197	10.533	
29.00	-74.267	21.211	
30.00	-77.725	21.705	
31.00	-83.524	48.716	
32.00	-93.431	29.306	
33.00	-86.325	45.381	
34.00	-86.007	88.951	
35.00	-81.142	90.506	
36.00	-88.911	138.699	
37.00	-98.676	56.192	
38.00	-109.750	-81.393	
39.00	-87.718	-85.470	
40.00	-82.105	-47.824	
41.00	-78.165	-32.023	
42.00	-74.712	-3.420	
43.00	-73.412	-0.248	
44.00	-74.011	22.911	
45.00	-75.415	30.677	
46.00	-82.613	30.769	
47.00	-84.032	30.218	
48.00	-92.306	-31.395	
49.00	-82.820	-101.765	
50.00	-78.095	-79.611	
51.00	-75.221	-58.860	
52.00	-73.568	-54.127	
53.00	-73.501	-29.611	
54.00	-75.410	-5.677	
55.00	-82.826	37.181	
56.00	-83.800	170.045	
57.00	-79.668	-162.768	
58.00	-74.905	-126.329	
59.00	-72.867	-100.611	
60.00	-72.137	-77.264	
61.00	-70.881	-39.220	
62.00	-71.763	-17.566	
63.00	-73.350	13.367	
64.00	-74.874	49.064	
65.00	-75.661	62.327	
66.00	-76.533	95.636	
67.00	-78.839	123.690	
68.00	-78.921	-137.902	
69.00	-79.997	-117.762	
70.00	-76.628	-73.228	
71.00	-74.757	-52.507	
72.00	-73.581	-34.738	
73.00	-72.155	-0.754	
74.00	-71.728	8.281	
75.00	-73.595	51.651	
76.00	-74.013	65.149	
77.00	-76.101	102.202	
78.00	-79.992	160.792	
79.00	-78.748	-179.549	
80.00	-73.982	-111.043	
81.00	-71.924	-78.119	
82.00	-70.883	-70.250	
83.00	-70.565	-56.980	
84.00	-69.323	-18.228	
85.00	-70.069	1.815	
86.00	-74.454	103.511	
87.00	-73.525	72.585	
88.00	-76.510	133.329	
89.00	-80.627	173.420	
90.00	-75.276	-122.601	
91.00	-73.973	-92.321	
92.00	-72.068	-53.904	
93.00	-70.708	-26.729	
94.00	-70.328	-15.587	
95.00	-70.281	24.050	
96.00	-70.267	29.681	
97.00	-72.406	89.498	
98.00	-74.287	97.799	
99.00	-77.640	161.667	
100.00	-74.966	-142.916	
101.00	-72.364	-101.273	
102.00	-68.474	-57.308	
103.00	-66.986	-25.131	
104.00	-64.833	6.589	
105.00	-63.865	15.018	
106.00	-62.994	57.020	
107.00	-62.547	71.145	
108.00	-62.262	106.881	
109.00	-62.919	174.942	
110.00	-62.823	-158.076	
111.00	-62.729	-127.263	
112.00	-61.418	-46.669	
113.00	-61.541	-24.566	
114.00	-62.012	4.603	
115.00	-63.898	38.877	
116.00	-66.949	53.208	
117.00	-74.318	101.023	
118.00	-78.443	-116.254	
119.00	-66.576	-49.481	
120.00	-63.231	-25.106	
121.00	-61.440	-5.514	
122.00	-61.217	29.706	
123.00	-61.175	44.251	
124.00	-62.869	86.858	
125.00	-64.702	95.814	
126.00	-69.749	116.375	
127.00	-82.901	-119.563	
128.00	-69.660	-25.304	
129.00	-64.310	16.272	
130.00	-61.071	37.711	
131.00	-59.307	68.601	
132.00	-58.255	86.733	
133.00	-58.154	106.212	
134.00	-58.529	128.790	
135.00	-58.947	120.513	
136.00	-59.571	144.296	
137.00	-59.207	146.627	
138.00	-58.166	166.458	
139.00	-56.945	176.062	
140.00	-56.415	-161.714	
141.00	-56.620	-139.713	
142.00	-57.848	-113.558	
143.00	-60.618	-98.457	
144.00	-64.949	-64.693	
145.00	-74.866	-5.635	
146.00	-68.092	98.046	
147.00	-63.184	121.925	
148.00	-61.169	129.080	
149.00	-62.085	-173.714	
150.00	-63.871	-147.675	
151.00	-67.338	-92.727	
152.00	-63.354	-19.881	
153.00	-59.198	-17.666	
154.00	-56.812	15.510	
155.00	-55.532	17.174	
156.00	-56.488	43.852	
157.00	-59.318	45.846	
158.00	-69.376	65.831	
159.00	-66.300	-128.492	
160.00	-57.522	-118.714	
161.00	-54.804	-142.895	
162.00	-53.021	-88.517	
163.00	-53.567	-100.748	
164.00	-55.423	-42.633	
165.00	-60.476	-61.232	
166.00	-64.503	-100.824	
167.00	-58.734	-166.035	
168.00	-55.462	-166.378	
169.00	-55.023	-138.133	
170.00	-58.244	176.801	
171.00	-63.728	125.336	
172.00	-54.593	33.656	
173.00	-47.998	5.759	
174.00	-44.209	18.533	
175.00	-41.539	3.845	
176.00	-39.414	64.167	
177.00	-37.909	52.679	
178.00	-36.798	70.173	
179.00	-36.142	59.045	
180.00	-35.937	70.649	
181.00	-36.210	42.839	
182.00	-36.985	56.647	
183.00	-38.339	57.827	
184.00	-40.431	54.344	
185.00	-43.327	55.714	
186.00	-47.593	45.873	
187.00	-53.613	51.690	
188.00	-59.928	23.322	
189.00	-71.942	176.784	
190.00	-62.258	-150.972	
191.00	-60.806	-137.054	
192.00	-63.059	-155.234	
193.00	-69.203	-165.831	
194.00	-76.428	38.356	
195.00	-64.997	2.423	
196.00	-60.302	-16.470	
197.00	-57.094	-23.696	
198.00	-55.273	-23.472	
199.00	-54.474	-37.785	
200.00	-54.515	-35.325	
201.00	-56.069	-46.490	
202.00	-59.155	-37.839	
203.00	-64.585	-25.339	
204.00	-63.899	47.596	
205.00	-59.104	66.249	
206.00	-56.754	69.980	
207.00	-55.842	75.525	
208.00	-56.387	72.476	
209.00	-58.606	83.710	
210.00	-61.831	96.185	
211.00	-64.976	140.632	
212.00	-61.659	-151.240	
213.00	-58.396	-140.518	
214.00	-56.620	-135.257	
215.00	-56.217	-134.852	
216.00	-56.814	-130.852	
217.00	-58.465	-154.010	
218.00	-61.259	-158.463	
219.00	-64.528	-157.379	
220.00	-67.199	-128.701	
221.00	-67.769	-119.119	
222.00	-65.621	-98.518	
223.00	-65.683	-104.792	
224.00	-65.489	-99.543	
225.00	-67.644	-124.091	
226.00	-68.429	-117.603	
227.00	-71.862	-159.295	
228.00	-75.348	169.568	
229.00	-79.906	153.433	
230.00	-79.446	84.645	
231.00	-75.524	42.699	
232.00	-74.879	22.235	
233.00	-73.417	10.738	
234.00	-73.498	5.461	
235.00	-72.968	-19.232	
236.00	-73.111	-25.862	
237.00	-72.170	-38.629	
238.00	-71.457	-45.835	
239.00	-70.288	-65.698	
240.00	-68.973	-72.351	
241.00	-68.429	-90.780	
242.00	-68.463	-114.738	
243.00	-67.623	-107.413	
244.00	-67.788	-160.767	
245.00	-67.124	-162.322	
246.00	-66.623	164.781	
247.00	-66.562	149.260	
248.00	-66.431	139.034	
249.00	-65.924	110.096	
250.00	-66.030	95.372	
251.00	-65.748	75.477	
252.00	-66.271	65.625	
253.00	-66.724	46.129	
254.00	-67.485	37.227	
255.00	-67.817	21.306	
256.00	-68.997	10.596	
257.00	-69.349	-4.448	
258.00	-70.226	-22.235	
259.00	-71.411	-41.272	
260.00	-72.476	-49.361	
261.00	-74.372	-81.226	
262.00	-75.797	-103.216	
263.00	-77.619	-128.573	
264.00	-77.018	-163.275	
265.00	-78.359	161.546	
266.00	-78.084	133.550	
267.00	-77.292	90.997	
268.00	-76.449	75.505	
269.00	-74.762	44.828	
270.00	-75.493	22.438	
271.00	-74.984	1.237	
272.00	-77.849	-22.887	
273.00	-79.658	-25.389	
274.00	-87.491	-35.400	
275.00	-91.003	27.804	
276.00	-83.074	75.318	
277.00	-81.980	62.038	
278.00	-76.503	32.659	
279.00	-75.343	22.118	
280.00	-75.475	-1.801	
281.00	-76.728	-11.423	
282.00	-78.708	-24.493	
283.00	-80.852	-34.305	
284.00	-90.187	-21.023	
285.00	-88.917	27.912	
286.00	-83.800	50.403	
287.00	-79.149	41.426	
288.00	-78.754	26.284	
289.00	-75.874	26.405	
290.00	-75.652	6.488	
291.00	-76.026	-0.508	
292.00	-76.625	-0.663	
293.00	-76.993	-14.585	
294.00	-78.376	-12.714	
295.00	-78.010	-30.429	
296.00	-80.137	-46.985	
297.00	-82.341	-60.151	
298.00	-94.103	-89.464	
299.00	-90.239	71.693	
300.00	-83.717	62.218	
301.00	-77.251	23.252	
302.00	-76.759	4.818	
303.00	-76.134	-13.320	
304.00	-79.090	-21.478	
305.00	-79.968	-49.440	
306.00	-81.233	-60.057	
307.00	-86.188	-48.231	
308.00	-89.312	55.995	
309.00	-92.653	29.828	
310.00	-85.677	67.017	
311.00	-81.860	70.919	
312.00	-77.479	43.595	
313.00	-80.864	19.719	
314.00	-85.534	30.384	
315.00	-81.788	95.679	
316.00	-78.776	101.369	
317.00	-75.543	65.155	
318.00	-73.765	49.460	
319.00	-74.129	20.221	
320.00	-75.979	9.191	
321.00	-77.014	-3.144	
322.00	-79.584	1.831	
323.00	-77.362	6.159	
324.00	-78.528	-13.578	
325.00	-82.118	-15.394	
326.00	-83.801	-7.033	
327.00	-81.823	7.977	
328.00	-77.480	-1.786	
329.00	-77.929	-22.431	
330.00	-79.379	-45.572	
331.00	-87.134	-91.898	
332.00	-86.748	-19.489	
333.00	-79.132	39.369	
334.00	-76.516	31.400	
335.00	-75.309	21.521	
336.00	-75.995	17.945	
337.00	-74.893	11.627	
338.00	-77.621	36.118	
339.00	-75.660	21.092	
340.00	-76.492	24.813	
341.00	-76.163	9.991	
342.00	-81.592	14.246	
343.00	-83.065	31.924	
344.00	-87.320	73.522	
345.00	-79.792	74.637	
346.00	-79.423	66.471	
347.00	-77.406	36.415	
348.00	-78.475	24.905	
349.00	-80.054	21.115	
350.00	-84.765	14.674	
351.00	-82.634	27.572	
352.00	-78.024	43.906	
353.00	-79.289	41.507	
354.00	-81.492	61.744	
355.00	-83.805	56.064	
356.00	-80.238	61.141	
357.00	-82.540	56.149	
358.00	-78.198	43.312	
359.00	-77.813	13.420	
Frequency	3500.00	MHz	
Channel	test		
Scan Axis name	Azimuth  [deg]		
Scan Axis	Amplitude	Phase	
			
0.00	-81.331	99.942	
1.00	-81.117	104.189	
2.00	-80.673	107.059	
3.00	-80.583	76.809	
4.00	-76.307	78.803	
5.00	-77.181	67.918	
6.00	-76.846	78.374	
7.00	-82.901	87.648	
8.00	-84.650	132.739	
9.00	-82.461	156.332	
10.00	-85.515	-178.369	
11.00	-87.612	127.941	
12.00	-90.089	116.879	
13.00	-80.080	60.887	
14.00	-75.855	62.454	
15.00	-74.087	84.168	
16.00	-74.990	99.316	
17.00	-74.510	110.253	
18.00	-74.462	112.291	
19.00	-75.115	120.826	
20.00	-76.479	102.800	
21.00	-80.995	85.707	
22.00	-80.233	55.180	
23.00	-78.209	44.811	
24.00	-74.835	47.434	
25.00	-76.277	39.780	
26.00	-74.490	60.792	
27.00	-76.392	56.781	
28.00	-75.667	80.112	
29.00	-76.507	101.638	
30.00	-79.928	96.700	
31.00	-82.337	107.243	
32.00	-85.098	155.655	
33.00	-83.367	141.506	
34.00	-85.633	149.430	
35.00	-87.512	-172.415	
36.00	-100.906	-29.740	
37.00	-93.101	2.977	
38.00	-83.718	-2.214	
39.00	-86.211	3.174	
40.00	-79.565	2.437	
41.00	-78.889	13.655	
42.00	-76.307	56.824	
43.00	-76.072	75.259	
44.00	-77.194	100.237	
45.00	-75.383	122.095	
46.00	-79.638	141.724	
47.00	-80.151	148.951	
48.00	-85.825	157.285	
49.00	-83.578	138.689	
50.00	-94.332	117.313	
51.00	-82.180	39.568	
52.00	-80.139	50.152	
53.00	-77.660	86.734	
54.00	-77.013	114.941	
55.00	-75.207	156.947	
56.00	-76.432	-171.843	
57.00	-76.156	-128.078	
58.00	-76.894	-91.502	
59.00	-78.581	-49.643	
60.00	-78.609	-15.558	
61.00	-78.186	56.213	
62.00	-76.801	87.154	
63.00	-77.118	114.407	
64.00	-78.425	149.195	
65.00	-79.379	179.245	
66.00	-82.633	-171.097	
67.00	-82.917	-118.740	
68.00	-83.718	-20.524	
69.00	-81.016	-31.397	
70.00	-77.827	-1.602	
71.00	-76.991	10.339	
72.00	-74.256	20.791	
73.00	-72.724	57.863	
74.00	-73.364	59.894	
75.00	-71.859	92.964	
76.00	-73.379	94.375	
77.00	-75.356	133.461	
78.00	-76.215	148.799	
79.00	-79.231	-177.897	
80.00	-84.719	-109.447	
81.00	-89.486	-35.835	
82.00	-89.825	21.979	
83.00	-82.450	20.934	
84.00	-77.167	55.664	
85.00	-79.367	94.314	
86.00	-87.364	145.477	
87.00	-80.465	-167.027	
88.00	-82.382	-52.928	
89.00	-79.101	-41.650	
90.00	-74.831	-0.702	
91.00	-72.242	11.594	
92.00	-72.010	45.705	
93.00	-69.698	74.358	
94.00	-70.678	76.410	
95.00	-69.545	109.752	
96.00	-70.068	118.337	
97.00	-71.457	155.890	
98.00	-72.405	161.968	
99.00	-73.829	-170.082	
100.00	-75.318	-159.777	
101.00	-78.288	-140.516	
102.00	-84.903	-126.019	
103.00	-85.929	170.293	
104.00	-81.623	167.056	
105.00	-79.898	163.385	
106.00	-76.828	-163.267	
107.00	-75.180	-156.837	
108.00	-74.387	-126.121	
109.00	-75.051	-54.225	
110.00	-75.337	-33.832	
111.00	-74.956	-8.486	
112.00	-71.464	68.851	
113.00	-71.479	83.024	
114.00	-70.914	97.236	
115.00	-70.238	121.836	
116.00	-70.149	116.790	
117.00	-69.737	133.274	
118.00	-69.763	137.693	
119.00	-71.011	172.226	
120.00	-71.243	-179.321	
121.00	-72.698	-173.829	
122.00	-74.157	-145.355	
123.00	-75.179	-144.466	
124.00	-84.617	-145.716	
125.00	-79.517	-174.784	
126.00	-74.291	140.724	
127.00	-71.016	153.681	
128.00	-68.062	165.811	
129.00	-67.505	-168.972	
130.00	-65.981	-164.874	
131.00	-65.536	-152.091	
132.00	-64.337	-155.559	
133.00	-62.879	-151.992	
134.00	-61.047	-140.810	
135.00	-59.091	-148.371	
136.00	-57.868	-117.211	
137.00	-57.241	-102.763	
138.00	-56.943	-71.756	
139.00	-57.153	-57.615	
140.00	-58.112	-35.921	
141.00	-59.666	-21.407	
142.00	-62.328	-3.780	
143.00	-67.539	-23.688	
144.00	-69.542	-52.019	
145.00	-64.333	-86.533	
146.00	-60.997	-81.956	
147.00	-59.638	-79.448	
148.00	-59.055	-82.554	
149.00	-59.992	-30.560	
150.00	-62.163	-10.908	
151.00	-65.324	20.918	
152.00	-65.122	87.292	
153.00	-61.561	94.489	
154.00	-59.154	128.275	
155.00	-58.303	126.594	
156.00	-59.043	149.883	
157.00	-61.592	140.604	
158.00	-67.966	129.275	
159.00	-68.378	27.777	
160.00	-60.316	-0.319	
161.00	-57.226	-31.864	
162.00	-54.811	14.193	
163.00	-54.178	-1.576	
164.00	-54.326	55.046	
165.00	-56.071	39.043	
166.00	-58.875	53.140	
167.00	-62.713	-5.896	
168.00	-60.855	-43.166	
169.00	-58.424	-37.857	
170.00	-58.487	-95.722	
171.00	-59.211	-109.491	
172.00	-55.344	161.966	
173.00	-48.997	123.352	
174.00	-44.653	130.722	
175.00	-41.425	117.222	
176.00	-38.916	178.292	
177.00	-37.250	167.001	
178.00	-36.080	-173.206	
179.00	-35.500	176.659	
180.00	-35.433	-171.383	
181.00	-35.877	159.978	
182.00	-36.849	173.811	
183.00	-38.350	172.290	
184.00	-40.499	166.852	
185.00	-43.313	163.797	
186.00	-47.088	149.911	
187.00	-52.202	147.795	
188.00	-56.735	110.004	
189.00	-73.482	122.273	
190.00	-65.423	-36.141	
191.00	-61.452	-26.688	
192.00	-61.907	-42.336	
193.00	-65.488	-32.081	
194.00	-68.877	24.528	
195.00	-61.740	65.167	
196.00	-56.607	67.222	
197.00	-53.762	73.019	
198.00	-52.300	78.848	
199.00	-52.180	69.564	
200.00	-53.131	74.865	
201.00	-55.845	66.938	
202.00	-60.782	79.071	
203.00	-67.237	121.503	
204.00	-61.981	-173.288	
205.00	-58.286	-171.961	
206.00	-57.009	-177.080	
207.00	-57.555	-175.614	
208.00	-59.859	175.968	
209.00	-66.303	-175.894	
210.00	-77.447	-60.956	
211.00	-63.888	-24.306	
212.00	-58.702	-3.838	
213.00	-56.923	-11.214	
214.00	-56.299	-15.122	
215.00	-57.145	-20.836	
216.00	-59.318	-25.931	
217.00	-63.813	-57.792	
218.00	-73.596	-90.216	
219.00	-72.821	133.328	
220.00	-66.331	112.770	
221.00	-64.618	85.553	
222.00	-64.986	80.768	
223.00	-67.446	64.058	
224.00	-72.314	42.896	
225.00	-76.665	-33.879	
226.00	-71.700	-55.890	
227.00	-68.835	-105.718	
228.00	-67.477	-113.309	
229.00	-67.251	-115.815	
230.00	-68.321	-137.262	
231.00	-68.533	-147.346	
232.00	-70.534	-153.992	
233.00	-73.583	-149.576	
234.00	-74.961	-135.133	
235.00	-78.081	-126.943	
236.00	-79.104	-115.708	
237.00	-82.078	-122.397	
238.00	-85.287	-63.238	
239.00	-85.958	-56.596	
240.00	-76.498	-25.573	
241.00	-78.985	-33.528	
242.00	-76.820	-59.868	
243.00	-74.143	-48.870	
244.00	-73.523	-114.788	
245.00	-72.313	-112.905	
246.00	-70.471	-151.165	
247.00	-69.252	-159.671	
248.00	-68.826	-171.335	
249.00	-67.390	169.839	
250.00	-67.054	154.008	
251.00	-67.215	140.475	
252.00	-67.473	129.124	
253.00	-67.729	115.494	
254.00	-68.429	111.006	
255.00	-69.154	92.940	
256.00	-69.456	86.575	
257.00	-70.844	75.018	
258.00	-71.220	62.458	
259.00	-71.899	50.188	
260.00	-73.273	29.810	
261.00	-75.497	4.743	
262.00	-77.627	-7.764	
263.00	-79.623	-63.408	
264.00	-80.216	-109.178	
265.00	-77.729	-149.124	
266.00	-76.798	177.224	
267.00	-74.108	157.527	
268.00	-74.062	136.797	
269.00	-72.986	113.321	
270.00	-73.877	95.235	
271.00	-76.963	61.323	
272.00	-78.382	47.421	
273.00	-83.743	37.222	
274.00	-87.531	4.714	
275.00	-92.083	159.514	
276.00	-80.716	139.279	
277.00	-78.070	130.674	
278.00	-75.467	103.849	
279.00	-75.969	83.950	
280.00	-75.476	75.300	
281.00	-76.851	71.844	
282.00	-77.779	61.822	
283.00	-79.584	75.444	
284.00	-82.274	89.118	
285.00	-78.667	86.285	
286.00	-78.119	92.641	
287.00	-77.262	91.050	
288.00	-77.091	76.985	
289.00	-79.294	76.284	
290.00	-81.219	75.482	
291.00	-81.176	79.278	
292.00	-79.759	101.889	
293.00	-76.222	92.878	
294.00	-75.735	60.316	
295.00	-74.571	54.413	
296.00	-76.189	23.163	
297.00	-77.411	7.947	
298.00	-81.375	-21.522	
299.00	-94.771	-137.853	
300.00	-84.463	169.835	
301.00	-77.908	127.647	
302.00	-75.828	110.967	
303.00	-77.153	92.803	
304.00	-77.615	87.057	
305.00	-77.816	74.035	
306.00	-79.843	76.910	
307.00	-77.764	77.080	
308.00	-79.841	56.875	
309.00	-78.881	43.145	
310.00	-83.023	57.494	
311.00	-86.279	90.369	
312.00	-80.357	107.017	
313.00	-78.888	93.412	
314.00	-82.605	72.649	
315.00	-89.578	27.389	
316.00	-84.659	138.235	
317.00	-78.909	132.523	
318.00	-78.433	113.155	
319.00	-77.703	96.044	
320.00	-79.316	100.941	
321.00	-80.416	93.697	
322.00	-79.243	84.561	
323.00	-80.017	80.604	
324.00	-82.501	57.054	
325.00	-86.426	26.861	
326.00	-96.715	58.403	
327.00	-101.166	-69.226	
328.00	-83.997	8.810	
329.00	-84.698	-26.258	
330.00	-81.014	-33.954	
331.00	-86.331	-76.610	
332.00	-88.313	-14.644	
333.00	-91.422	150.260	
334.00	-83.947	98.752	
335.00	-79.140	85.068	
336.00	-80.850	74.047	
337.00	-77.823	54.423	
338.00	-76.019	76.072	
339.00	-77.581	68.701	
340.00	-76.637	78.240	
341.00	-78.037	68.209	
342.00	-78.874	80.424	
343.00	-84.246	91.239	
344.00	-82.343	143.525	
345.00	-77.842	144.168	
346.00	-76.341	139.610	
347.00	-77.019	102.663	
348.00	-78.967	96.354	
349.00	-80.281	90.203	
350.00	-80.533	98.647	
351.00	-78.211	96.591	
352.00	-75.548	86.966	
353.00	-73.955	87.918	
354.00	-73.358	98.565	
355.00	-76.775	105.193	
356.00	-76.881	100.510	
357.00	-78.171	127.041	
358.00	-79.099	97.755	
359.00	-80.994	92.063	
Frequency	3550.00	MHz	
Channel	test		
Scan Axis name	Azimuth  [deg]		
Scan Axis	Amplitude	Phase	
			
0.00	-95.175	-105.592	
1.00	-98.418	172.973	
2.00	-86.771	-148.705	
3.00	-86.867	146.449	
4.00	-82.597	136.303	
5.00	-79.191	131.651	
6.00	-80.890	120.792	
7.00	-89.991	156.918	
8.00	-90.189	-110.760	
9.00	-85.346	-132.329	
10.00	-81.238	-121.287	
11.00	-81.487	-141.393	
12.00	-80.985	-159.976	
13.00	-82.860	153.897	
14.00	-77.046	138.072	
15.00	-74.834	146.254	
16.00	-77.591	162.151	
17.00	-77.025	168.240	
18.00	-76.597	169.951	
19.00	-76.584	-167.508	
20.00	-78.570	-148.061	
21.00	-82.486	-123.944	
22.00	-87.810	-137.432	
23.00	-101.330	148.030	
24.00	-90.791	-139.270	
25.00	-90.953	146.407	
26.00	-83.937	173.254	
27.00	-80.392	137.149	
28.00	-81.283	175.453	
29.00	-82.985	-156.267	
30.00	-84.537	-125.359	
31.00	-80.816	-90.216	
32.00	-80.472	-95.784	
33.00	-80.324	-122.942	
34.00	-79.502	-95.046	
35.00	-83.004	-75.584	
36.00	-90.545	3.167	
37.00	-91.003	58.680	
38.00	-84.568	128.564	
39.00	-84.141	137.809	
40.00	-83.001	140.270	
41.00	-85.289	122.578	
42.00	-83.591	174.554	
43.00	-83.857	175.179	
44.00	-84.399	-113.622	
45.00	-83.575	-91.717	
46.00	-91.480	-36.983	
47.00	-88.985	-40.686	
48.00	-93.699	-38.873	
49.00	-84.740	-23.151	
50.00	-86.560	-3.286	
51.00	-103.419	83.412	
52.00	-91.107	110.959	
53.00	-83.051	-173.902	
54.00	-77.040	-143.955	
55.00	-76.147	-102.638	
56.00	-76.761	-83.539	
57.00	-77.959	-65.420	
58.00	-81.163	-24.714	
59.00	-85.465	-5.016	
60.00	-93.807	170.074	
61.00	-81.341	-145.655	
62.00	-78.681	-123.624	
63.00	-77.088	-97.833	
64.00	-77.504	-60.657	
65.00	-78.231	-50.888	
66.00	-79.151	-21.517	
67.00	-83.203	9.155	
68.00	-89.162	40.488	
69.00	-83.402	48.519	
70.00	-81.493	79.096	
71.00	-81.529	106.650	
72.00	-80.358	96.200	
73.00	-76.932	141.372	
74.00	-76.174	138.118	
75.00	-74.704	176.578	
76.00	-77.915	-169.962	
77.00	-81.099	-131.164	
78.00	-82.807	-111.363	
79.00	-91.891	-4.136	
80.00	-84.101	81.332	
81.00	-80.587	89.822	
82.00	-77.722	113.559	
83.00	-77.705	141.585	
84.00	-74.653	-166.682	
85.00	-73.939	-127.942	
86.00	-73.909	-34.678	
87.00	-71.931	-47.170	
88.00	-70.851	6.488	
89.00	-69.796	25.381	
90.00	-68.756	65.293	
91.00	-67.915	80.726	
92.00	-67.758	118.282	
93.00	-66.512	147.654	
94.00	-67.015	154.990	
95.00	-67.049	-163.107	
96.00	-66.262	-157.386	
97.00	-66.544	-102.312	
98.00	-67.074	-102.336	
99.00	-66.993	-66.063	
100.00	-67.635	-52.530	
101.00	-68.215	-30.680	
102.00	-69.807	2.678	
103.00	-71.059	18.125	
104.00	-71.688	50.953	
105.00	-73.021	45.395	
106.00	-72.210	72.474	
107.00	-72.929	71.485	
108.00	-72.208	98.427	
109.00	-71.750	151.438	
110.00	-71.166	156.346	
111.00	-72.534	176.977	
112.00	-71.220	-126.961	
113.00	-71.083	-123.113	
114.00	-70.114	-120.054	
115.00	-69.739	-105.788	
116.00	-68.314	-119.904	
117.00	-66.220	-98.908	
118.00	-64.999	-92.940	
119.00	-64.787	-51.507	
120.00	-64.511	-33.620	
121.00	-65.646	-19.905	
122.00	-67.230	10.792	
123.00	-70.219	4.788	
124.00	-75.083	13.413	
125.00	-71.365	-60.651	
126.00	-67.119	-59.597	
127.00	-64.646	-31.726	
128.00	-63.513	-13.727	
129.00	-63.226	20.956	
130.00	-64.959	42.109	
131.00	-67.838	73.247	
132.00	-78.802	130.878	
133.00	-68.857	-83.062	
134.00	-61.652	-52.926	
135.00	-58.287	-44.806	
136.00	-56.380	-2.621	
137.00	-56.132	20.320	
138.00	-56.472	53.868	
139.00	-58.010	69.796	
140.00	-60.538	86.615	
141.00	-64.325	88.598	
142.00	-68.034	66.076	
143.00	-65.010	26.913	
144.00	-61.744	31.516	
145.00	-59.636	27.822	
146.00	-58.184	33.153	
147.00	-57.795	32.376	
148.00	-57.597	25.256	
149.00	-58.481	70.757	
150.00	-60.813	78.419	
151.00	-65.937	99.600	
152.00	-69.164	-168.631	
153.00	-63.116	-145.123	
154.00	-59.366	-106.137	
155.00	-58.074	-107.671	
156.00	-58.705	-78.337	
157.00	-61.164	-79.631	
158.00	-68.461	-64.592	
159.00	-73.967	102.356	
160.00	-61.940	109.255	
161.00	-58.814	86.160	
162.00	-56.677	134.005	
163.00	-56.221	117.251	
164.00	-56.392	171.160	
165.00	-57.891	152.341	
166.00	-59.836	165.569	
167.00	-62.044	109.739	
168.00	-61.032	79.848	
169.00	-58.322	83.256	
170.00	-57.913	32.264	
171.00	-59.328	27.529	
172.00	-58.088	-73.052	
173.00	-50.771	-117.883	
174.00	-45.724	-111.912	
175.00	-42.054	-122.160	
176.00	-39.295	-59.061	
177.00	-37.556	-69.885	
178.00	-36.440	-48.922	
179.00	-35.973	-58.789	
180.00	-36.051	-47.225	
181.00	-36.660	-77.118	
182.00	-37.695	-63.171	
183.00	-39.217	-67.268	
184.00	-41.293	-73.055	
185.00	-43.965	-77.179	
186.00	-47.755	-91.044	
187.00	-53.238	-92.531	
188.00	-58.955	-128.660	
189.00	-75.440	78.199	
190.00	-59.722	83.014	
191.00	-57.094	100.261	
192.00	-57.525	93.979	
193.00	-59.642	111.714	
194.00	-61.405	141.189	
195.00	-58.835	174.485	
196.00	-56.018	-173.352	
197.00	-54.394	-162.668	
198.00	-53.954	-155.182	
199.00	-54.935	-163.339	
200.00	-57.503	-162.670	
201.00	-63.081	178.081	
202.00	-74.435	133.977	
203.00	-67.560	11.689	
204.00	-63.049	6.759	
205.00	-62.455	-5.454	
206.00	-64.855	-17.894	
207.00	-71.294	-33.993	
208.00	-74.348	159.515	
209.00	-64.461	155.198	
210.00	-60.602	134.024	
211.00	-58.496	124.683	
212.00	-57.372	135.548	
213.00	-56.947	118.595	
214.00	-57.306	105.770	
215.00	-58.563	90.981	
216.00	-61.199	73.106	
217.00	-64.536	18.683	
218.00	-65.803	-35.981	
219.00	-64.007	-86.835	
220.00	-63.046	-107.019	
221.00	-63.452	-141.080	
222.00	-65.683	-153.006	
223.00	-68.735	170.017	
224.00	-70.454	122.189	
225.00	-68.442	68.765	
226.00	-65.865	73.101	
227.00	-65.836	29.644	
228.00	-65.990	19.377	
229.00	-67.014	6.250	
230.00	-68.439	-11.754	
231.00	-71.733	-32.125	
232.00	-74.258	-41.724	
233.00	-82.986	-21.590	
234.00	-94.203	90.148	
235.00	-83.060	93.080	
236.00	-78.187	82.198	
237.00	-78.574	87.133	
238.00	-77.837	96.778	
239.00	-80.641	108.832	
240.00	-79.544	116.058	
241.00	-76.929	125.216	
242.00	-73.777	115.849	
243.00	-73.678	127.676	
244.00	-75.649	87.744	
245.00	-74.567	81.611	
246.00	-77.323	50.152	
247.00	-75.559	31.759	
248.00	-76.035	22.139	
249.00	-73.404	-12.644	
250.00	-73.360	-31.609	
251.00	-72.670	-44.190	
252.00	-70.834	-52.910	
253.00	-69.809	-68.758	
254.00	-69.284	-76.570	
255.00	-68.451	-96.683	
256.00	-68.473	-112.529	
257.00	-68.270	-123.558	
258.00	-67.907	-141.939	
259.00	-67.719	-163.978	
260.00	-68.020	-177.661	
261.00	-69.504	148.739	
262.00	-70.761	138.852	
263.00	-71.624	100.858	
264.00	-73.310	73.690	
265.00	-74.273	38.110	
266.00	-74.683	-3.247	
267.00	-74.590	-45.999	
268.00	-72.914	-71.819	
269.00	-72.804	-102.274	
270.00	-72.583	-131.592	
271.00	-73.152	-172.097	
272.00	-72.681	162.537	
273.00	-75.547	137.085	
274.00	-77.995	118.329	
275.00	-83.752	108.543	
276.00	-92.051	-40.071	
277.00	-86.335	-83.074	
278.00	-81.782	-132.709	
279.00	-78.814	-151.494	
280.00	-80.043	-175.525	
281.00	-79.298	176.434	
282.00	-81.063	153.072	
283.00	-84.189	121.390	
284.00	-87.921	79.653	
285.00	-93.229	-55.046	
286.00	-85.747	-85.777	
287.00	-86.318	-85.534	
288.00	-83.580	-83.352	
289.00	-82.827	-118.865	
290.00	-80.228	-100.551	
291.00	-79.851	-119.864	
292.00	-77.711	-135.320	
293.00	-77.742	-152.322	
294.00	-77.032	171.917	
295.00	-77.435	164.540	
296.00	-79.340	99.780	
297.00	-79.302	66.272	
298.00	-79.362	18.698	
299.00	-78.743	-30.708	
300.00	-79.067	-55.427	
301.00	-79.571	-96.539	
302.00	-80.158	-115.504	
303.00	-80.086	-137.873	
304.00	-80.009	-134.136	
305.00	-79.226	-160.957	
306.00	-78.171	-171.195	
307.00	-78.069	143.290	
308.00	-78.951	98.873	
309.00	-78.192	64.133	
310.00	-77.014	-2.771	
311.00	-76.150	-52.298	
312.00	-76.602	-111.591	
313.00	-78.199	-162.806	
314.00	-79.949	144.563	
315.00	-88.353	67.583	
316.00	-93.050	-9.508	
317.00	-89.689	-98.356	
318.00	-91.661	-129.760	
319.00	-94.196	-149.914	
320.00	-88.539	-148.583	
321.00	-84.774	-134.647	
322.00	-83.394	-157.872	
323.00	-84.739	-172.197	
324.00	-90.678	135.116	
325.00	-101.128	27.193	
326.00	-91.914	-157.081	
327.00	-89.930	-162.330	
328.00	-86.452	157.759	
329.00	-89.072	104.936	
330.00	-87.068	69.327	
331.00	-83.490	40.859	
332.00	-86.739	17.486	
333.00	-91.117	-71.907	
334.00	-93.173	-129.130	
335.00	-85.551	-155.171	
336.00	-81.458	138.760	
337.00	-81.755	119.803	
338.00	-84.537	167.191	
339.00	-83.868	144.885	
340.00	-80.489	168.668	
341.00	-80.868	136.993	
342.00	-83.067	172.170	
343.00	-84.632	-175.210	
344.00	-78.298	-160.400	
345.00	-76.122	-170.602	
346.00	-77.931	-176.081	
347.00	-82.691	146.494	
348.00	-86.697	153.674	
349.00	-102.005	-54.791	
350.00	-85.185	-125.918	
351.00	-84.467	-169.656	
352.00	-82.953	168.960	
353.00	-83.951	147.517	
354.00	-82.282	139.984	
355.00	-82.057	152.755	
356.00	-82.987	157.938	
357.00	-79.613	159.563	
358.00	-82.981	126.406	
359.00	-86.473	80.805	
Frequency	3600.00	MHz	
Channel	test		
Scan Axis name	Azimuth  [deg]		
Scan Axis	Amplitude	Phase	
			
0.00	-79.025	82.227	
1.00	-78.715	72.854	
2.00	-84.953	91.216	
3.00	-86.840	59.101	
4.00	-83.795	93.789	
5.00	-82.820	93.786	
6.00	-83.505	82.246	
7.00	-92.103	75.000	
8.00	-83.994	73.358	
9.00	-84.564	81.628	
10.00	-83.459	103.850	
11.00	-84.475	119.912	
12.00	-87.053	99.319	
13.00	-89.230	136.697	
14.00	-85.158	173.379	
15.00	-83.536	-113.891	
16.00	-79.462	-119.069	
17.00	-78.985	-122.022	
18.00	-79.974	-141.936	
19.00	-80.757	-137.377	
20.00	-92.137	143.257	
21.00	-89.604	73.544	
22.00	-85.701	92.198	
23.00	-83.390	86.040	
24.00	-84.972	80.318	
25.00	-85.339	47.172	
26.00	-85.111	31.866	
27.00	-86.207	36.004	
28.00	-83.428	23.725	
29.00	-81.874	5.501	
30.00	-78.505	-1.147	
31.00	-80.074	-13.608	
32.00	-80.179	-13.279	
33.00	-83.012	-26.336	
34.00	-81.059	-8.919	
35.00	-81.292	10.415	
36.00	-81.217	37.721	
37.00	-83.693	70.162	
38.00	-85.682	71.673	
39.00	-84.207	91.195	
40.00	-87.083	92.070	
41.00	-89.311	49.338	
42.00	-85.237	-0.963	
43.00	-80.479	-19.085	
44.00	-78.041	11.608	
45.00	-75.984	36.293	
46.00	-77.119	49.191	
47.00	-77.866	60.341	
48.00	-79.141	65.889	
49.00	-79.070	50.315	
50.00	-77.008	60.250	
51.00	-79.378	54.126	
52.00	-78.653	49.041	
53.00	-78.575	25.334	
54.00	-77.118	31.825	
55.00	-74.343	36.323	
56.00	-73.653	53.550	
57.00	-72.968	70.764	
58.00	-74.803	93.071	
59.00	-77.968	111.982	
60.00	-83.556	143.146	
61.00	-90.255	-7.244	
62.00	-79.058	4.978	
63.00	-75.130	31.972	
64.00	-73.172	51.724	
65.00	-73.211	68.514	
66.00	-73.475	81.962	
67.00	-74.983	107.095	
68.00	-80.152	160.241	
69.00	-79.108	135.918	
70.00	-87.116	-160.805	
71.00	-93.577	-171.713	
72.00	-89.521	-148.324	
73.00	-91.009	-55.133	
74.00	-84.898	-58.412	
75.00	-77.966	-13.077	
76.00	-76.099	-11.081	
77.00	-72.194	24.006	
78.00	-72.186	46.886	
79.00	-70.873	66.547	
80.00	-71.852	101.689	
81.00	-71.953	127.393	
82.00	-72.720	146.344	
83.00	-73.379	162.415	
84.00	-72.567	-125.276	
85.00	-72.464	-73.552	
86.00	-68.374	21.980	
87.00	-67.695	3.659	
88.00	-66.634	49.993	
89.00	-66.484	66.136	
90.00	-65.951	100.911	
91.00	-66.034	116.137	
92.00	-66.270	159.618	
93.00	-65.725	-169.662	
94.00	-65.652	-158.680	
95.00	-65.033	-113.697	
96.00	-64.796	-104.549	
97.00	-64.109	-47.549	
98.00	-63.952	-42.552	
99.00	-63.110	-1.867	
100.00	-62.678	14.010	
101.00	-62.745	42.459	
102.00	-62.650	75.122	
103.00	-63.038	102.567	
104.00	-63.542	133.845	
105.00	-64.498	140.496	
106.00	-65.960	-174.845	
107.00	-68.516	-158.669	
108.00	-71.852	-121.599	
109.00	-75.577	-28.484	
110.00	-75.173	38.200	
111.00	-71.790	110.027	
112.00	-67.913	-158.346	
113.00	-65.066	-134.522	
114.00	-63.784	-95.950	
115.00	-61.743	-50.614	
116.00	-60.402	-36.532	
117.00	-59.783	7.150	
118.00	-59.244	27.976	
119.00	-59.680	79.035	
120.00	-60.262	105.218	
121.00	-62.104	130.020	
122.00	-64.701	172.710	
123.00	-70.137	-148.932	
124.00	-71.309	-41.487	
125.00	-65.146	-5.679	
126.00	-61.957	25.463	
127.00	-60.561	67.484	
128.00	-60.224	99.214	
129.00	-60.246	139.586	
130.00	-61.302	165.327	
131.00	-63.453	-156.766	
132.00	-68.475	-112.983	
133.00	-70.434	-11.023	
134.00	-63.836	51.776	
135.00	-60.751	69.014	
136.00	-58.877	116.664	
137.00	-58.823	142.478	
138.00	-59.919	-178.677	
139.00	-62.414	-161.270	
140.00	-67.314	-148.706	
141.00	-72.987	175.849	
142.00	-67.345	141.163	
143.00	-63.402	137.228	
144.00	-61.625	153.208	
145.00	-59.995	146.022	
146.00	-58.884	147.569	
147.00	-57.832	142.633	
148.00	-56.871	132.840	
149.00	-56.788	176.222	
150.00	-57.337	178.778	
151.00	-59.732	-170.419	
152.00	-64.612	-131.049	
153.00	-69.832	-79.577	
154.00	-62.535	0.032	
155.00	-58.964	5.276	
156.00	-57.450	37.659	
157.00	-58.145	40.982	
158.00	-61.258	69.088	
159.00	-68.466	109.143	
160.00	-63.677	-167.410	
161.00	-58.850	-173.338	
162.00	-55.808	-116.098	
163.00	-55.059	-123.378	
164.00	-55.134	-60.665	
165.00	-57.947	-73.185	
166.00	-63.120	-61.673	
167.00	-64.021	-160.659	
168.00	-58.272	-176.297	
169.00	-56.021	-156.120	
170.00	-56.655	160.425	
171.00	-60.914	158.212	
172.00	-58.696	32.498	
173.00	-49.924	-3.329	
174.00	-45.120	3.470	
175.00	-41.875	-3.471	
176.00	-39.395	59.454	
177.00	-37.830	47.573	
178.00	-36.815	67.868	
179.00	-36.383	56.725	
180.00	-36.375	67.084	
181.00	-36.838	36.578	
182.00	-37.750	51.908	
183.00	-39.184	47.630	
184.00	-41.289	44.583	
185.00	-44.227	42.104	
186.00	-48.753	32.168	
187.00	-56.199	37.753	
188.00	-66.639	33.544	
189.00	-60.217	-165.688	
190.00	-55.601	-158.543	
191.00	-55.084	-137.933	
192.00	-57.143	-145.345	
193.00	-61.744	-127.067	
194.00	-66.622	-71.933	
195.00	-61.620	-33.270	
196.00	-58.456	-30.183	
197.00	-57.533	-27.615	
198.00	-57.711	-32.001	
199.00	-59.040	-55.821	
200.00	-61.420	-72.116	
201.00	-63.848	-121.560	
202.00	-64.199	-165.206	
203.00	-62.228	145.203	
204.00	-60.964	131.217	
205.00	-60.685	107.533	
206.00	-61.984	88.493	
207.00	-64.513	82.005	
208.00	-72.010	78.673	
209.00	-73.169	-151.485	
210.00	-63.994	-157.129	
211.00	-59.540	-159.828	
212.00	-57.309	-145.538	
213.00	-56.132	-159.532	
214.00	-56.001	-169.826	
215.00	-56.851	177.956	
216.00	-59.071	162.717	
217.00	-62.040	115.286	
218.00	-64.956	65.795	
219.00	-64.503	5.641	
220.00	-62.738	-22.043	
221.00	-62.175	-59.947	
222.00	-62.173	-70.834	
223.00	-63.692	-93.220	
224.00	-65.421	-107.172	
225.00	-67.035	-147.992	
226.00	-69.473	-150.858	
227.00	-71.098	161.197	
228.00	-74.281	140.354	
229.00	-78.612	123.637	
230.00	-80.370	61.064	
231.00	-90.975	-8.244	
232.00	-82.797	-113.709	
233.00	-78.249	-134.028	
234.00	-74.080	-145.189	
235.00	-73.717	-157.263	
236.00	-74.644	-147.827	
237.00	-77.192	-161.656	
238.00	-78.336	-139.361	
239.00	-78.175	-110.568	
240.00	-73.602	-109.244	
241.00	-72.236	-128.093	
242.00	-71.017	-140.557	
243.00	-70.102	-120.814	
244.00	-70.190	-172.629	
245.00	-70.357	-165.016	
246.00	-69.806	162.188	
247.00	-70.061	157.847	
248.00	-70.160	149.006	
249.00	-69.293	136.096	
250.00	-69.724	117.600	
251.00	-67.978	105.888	
252.00	-67.942	93.846	
253.00	-67.689	73.336	
254.00	-67.828	58.891	
255.00	-67.524	37.418	
256.00	-67.636	15.288	
257.00	-67.500	-2.361	
258.00	-68.104	-27.870	
259.00	-68.313	-54.235	
260.00	-68.195	-73.709	
261.00	-69.443	-111.689	
262.00	-69.348	-126.224	
263.00	-69.823	-159.655	
264.00	-70.284	174.300	
265.00	-71.521	151.743	
266.00	-71.566	121.049	
267.00	-73.234	89.420	
268.00	-73.907	64.022	
269.00	-74.896	26.050	
270.00	-77.718	-0.620	
271.00	-80.209	-59.246	
272.00	-81.981	-87.500	
273.00	-82.270	-146.135	
274.00	-83.647	158.644	
275.00	-81.096	128.050	
276.00	-83.647	99.614	
277.00	-81.986	60.485	
278.00	-93.945	78.070	
279.00	-89.471	36.234	
280.00	-90.692	175.947	
281.00	-86.521	172.910	
282.00	-82.592	155.066	
283.00	-83.583	145.016	
284.00	-80.611	84.583	
285.00	-81.285	66.733	
286.00	-83.424	10.116	
287.00	-84.358	-3.372	
288.00	-94.342	-59.858	
289.00	-89.141	164.076	
290.00	-83.544	102.463	
291.00	-83.598	79.190	
292.00	-82.368	47.356	
293.00	-83.749	20.991	
294.00	-83.426	-1.720	
295.00	-92.164	-31.439	
296.00	-88.037	154.201	
297.00	-80.577	129.903	
298.00	-78.599	120.544	
299.00	-76.884	82.999	
300.00	-77.113	66.761	
301.00	-76.727	43.507	
302.00	-78.054	38.309	
303.00	-78.568	23.817	
304.00	-77.940	26.743	
305.00	-80.667	-1.180	
306.00	-82.071	-7.591	
307.00	-93.681	12.917	
308.00	-86.890	89.618	
309.00	-78.665	77.090	
310.00	-76.624	53.109	
311.00	-75.843	19.786	
312.00	-78.741	-19.179	
313.00	-88.231	-79.776	
314.00	-84.673	120.049	
315.00	-79.844	73.858	
316.00	-79.729	46.545	
317.00	-81.900	22.506	
318.00	-83.975	39.630	
319.00	-80.699	67.274	
320.00	-79.278	62.795	
321.00	-77.168	26.591	
322.00	-77.276	-2.159	
323.00	-79.474	-21.412	
324.00	-85.482	-49.547	
325.00	-96.853	27.764	
326.00	-88.637	-5.689	
327.00	-89.509	-68.527	
328.00	-85.722	-93.347	
329.00	-88.502	174.724	
330.00	-82.124	129.163	
331.00	-77.874	99.762	
332.00	-79.145	90.337	
333.00	-76.467	67.791	
334.00	-78.170	55.030	
335.00	-79.951	43.466	
336.00	-80.915	54.859	
337.00	-86.116	29.987	
338.00	-91.049	73.798	
339.00	-84.236	107.420	
340.00	-81.384	127.683	
341.00	-79.403	99.008	
342.00	-77.864	70.243	
343.00	-81.757	32.823	
344.00	-85.370	-1.279	
345.00	-85.508	-81.730	
346.00	-88.453	-130.862	
347.00	-83.411	127.448	
348.00	-82.948	110.684	
349.00	-83.392	62.563	
350.00	-83.236	20.654	
351.00	-86.986	-1.522	
352.00	-89.912	-23.013	
353.00	-87.027	120.575	
354.00	-85.503	102.284	
355.00	-87.072	83.404	
356.00	-87.173	90.980	
357.00	-87.433	115.391	
358.00	-79.236	73.921	
359.00	-80.603	52.807	
Frequency	3650.00	MHz	
Channel	test		
Scan Axis name	Azimuth  [deg]		
Scan Axis	Amplitude	Phase	
			
0.00	-78.977	144.461	
1.00	-77.639	152.443	
2.00	-83.150	177.407	
3.00	-80.521	159.334	
4.00	-79.995	-170.900	
5.00	-81.358	175.243	
6.00	-84.429	-130.855	
7.00	-90.215	-143.628	
8.00	-89.708	173.696	
9.00	-86.010	-116.580	
10.00	-84.068	-111.265	
11.00	-84.940	-132.293	
12.00	-81.543	-102.222	
13.00	-81.972	-105.202	
14.00	-79.092	-96.241	
15.00	-75.032	-74.503	
16.00	-74.701	-72.394	
17.00	-77.441	-66.542	
18.00	-78.813	-76.925	
19.00	-81.751	-50.407	
20.00	-82.930	-37.663	
21.00	-86.788	25.130	
22.00	-86.487	28.580	
23.00	-88.044	50.930	
24.00	-83.491	66.557	
25.00	-81.582	67.160	
26.00	-80.286	72.491	
27.00	-80.974	68.885	
28.00	-78.985	75.418	
29.00	-78.160	70.146	
30.00	-77.596	73.150	
31.00	-80.408	66.520	
32.00	-82.461	42.529	
33.00	-81.063	13.205	
34.00	-80.054	19.424	
35.00	-79.159	18.387	
36.00	-81.970	32.845	
37.00	-83.233	19.147	
38.00	-81.704	-1.439	
39.00	-79.714	8.332	
40.00	-78.286	17.422	
41.00	-75.538	8.087	
42.00	-73.880	32.383	
43.00	-72.284	43.607	
44.00	-72.116	71.492	
45.00	-72.999	80.179	
46.00	-77.178	119.329	
47.00	-80.522	117.419	
48.00	-89.580	92.065	
49.00	-87.998	58.226	
50.00	-84.322	96.590	
51.00	-84.491	97.380	
52.00	-80.600	90.956	
53.00	-77.047	114.688	
54.00	-75.685	104.568	
55.00	-74.253	142.265	
56.00	-74.605	151.566	
57.00	-75.230	178.274	
58.00	-77.611	-165.628	
59.00	-81.488	-113.649	
60.00	-85.109	-91.534	
61.00	-85.904	71.520	
62.00	-79.378	112.103	
63.00	-74.852	127.218	
64.00	-72.261	145.583	
65.00	-72.346	157.860	
66.00	-72.232	168.418	
67.00	-74.339	-172.198	
68.00	-76.909	-128.911	
69.00	-76.890	-127.475	
70.00	-80.370	-80.531	
71.00	-83.716	-47.209	
72.00	-81.103	-20.692	
73.00	-79.005	34.645	
74.00	-77.611	42.918	
75.00	-74.920	86.711	
76.00	-72.423	89.383	
77.00	-72.776	119.244	
78.00	-71.045	138.439	
79.00	-71.033	152.427	
80.00	-71.501	-167.388	
81.00	-71.281	-143.297	
82.00	-71.702	-129.329	
83.00	-71.958	-109.650	
84.00	-73.084	-55.304	
85.00	-72.475	-2.988	
86.00	-69.825	89.630	
87.00	-69.195	64.354	
88.00	-68.732	109.328	
89.00	-68.630	129.056	
90.00	-69.177	159.449	
91.00	-68.740	175.896	
92.00	-69.945	-131.642	
93.00	-69.240	-100.216	
94.00	-69.201	-88.778	
95.00	-67.631	-39.010	
96.00	-67.725	-26.504	
97.00	-66.411	26.039	
98.00	-65.997	33.103	
99.00	-64.997	71.229	
100.00	-64.665	91.633	
101.00	-65.227	122.287	
102.00	-65.347	161.308	
103.00	-66.566	-166.029	
104.00	-66.975	-125.655	
105.00	-67.861	-108.487	
106.00	-67.662	-55.256	
107.00	-68.901	-27.816	
108.00	-68.913	25.885	
109.00	-68.477	103.585	
110.00	-67.745	134.486	
111.00	-66.707	-175.026	
112.00	-64.986	-87.471	
113.00	-64.837	-59.144	
114.00	-64.528	-11.125	
115.00	-63.269	38.280	
116.00	-62.032	62.325	
117.00	-60.694	109.416	
118.00	-59.998	134.643	
119.00	-60.523	-169.618	
120.00	-60.688	-141.320	
121.00	-61.744	-111.867	
122.00	-63.948	-69.204	
123.00	-66.839	-34.908	
124.00	-68.200	42.378	
125.00	-67.002	80.454	
126.00	-65.054	125.155	
127.00	-63.364	175.276	
128.00	-62.752	-146.624	
129.00	-61.609	-106.319	
130.00	-62.146	-85.659	
131.00	-63.520	-60.847	
132.00	-68.587	-52.930	
133.00	-79.681	-119.081	
134.00	-68.397	-147.431	
135.00	-63.759	-146.565	
136.00	-61.458	-104.806	
137.00	-60.670	-82.024	
138.00	-61.019	-49.365	
139.00	-62.678	-38.774	
140.00	-66.001	-29.677	
141.00	-70.011	-50.777	
142.00	-68.216	-80.886	
143.00	-63.948	-99.513	
144.00	-61.370	-96.334	
145.00	-58.920	-107.153	
146.00	-56.845	-105.788	
147.00	-55.219	-108.815	
148.00	-54.249	-115.626	
149.00	-54.018	-70.782	
150.00	-54.769	-70.618	
151.00	-56.942	-60.079	
152.00	-60.892	-34.221	
153.00	-71.023	-32.494	
154.00	-67.778	112.077	
155.00	-61.561	121.127	
156.00	-59.222	155.050	
157.00	-59.175	153.897	
158.00	-62.271	177.400	
159.00	-71.611	-151.544	
160.00	-65.768	-47.830	
161.00	-60.120	-53.377	
162.00	-56.018	-1.784	
163.00	-54.739	-8.175	
164.00	-54.540	51.559	
165.00	-56.633	39.098	
166.00	-60.051	53.128	
167.00	-62.639	-15.971	
168.00	-59.408	-40.011	
169.00	-57.708	-29.042	
170.00	-59.075	-79.649	
171.00	-63.300	-95.335	
172.00	-57.623	144.225	
173.00	-50.043	117.625	
174.00	-45.567	123.369	
175.00	-42.419	117.009	
176.00	-39.949	178.810	
177.00	-38.334	165.252	
178.00	-37.145	-174.694	
179.00	-36.483	174.125	
180.00	-36.315	-175.366	
181.00	-36.646	155.001	
182.00	-37.573	172.458	
183.00	-39.117	168.495	
184.00	-41.524	167.395	
185.00	-44.994	165.985	
186.00	-50.598	159.015	
187.00	-60.572	176.438	
188.00	-67.117	-131.491	
189.00	-57.662	-45.015	
190.00	-55.868	-40.838	
191.00	-57.343	-28.357	
192.00	-62.035	-42.635	
193.00	-88.070	-41.830	
194.00	-64.978	117.773	
195.00	-59.698	100.398	
196.00	-56.999	82.416	
197.00	-55.580	72.767	
198.00	-54.910	64.819	
199.00	-54.719	44.274	
200.00	-55.857	35.396	
201.00	-58.650	11.336	
202.00	-64.247	-17.247	
203.00	-66.872	-110.608	
204.00	-62.055	-144.981	
205.00	-59.572	-162.217	
206.00	-60.058	-176.453	
207.00	-63.606	-171.961	
208.00	-71.333	-124.036	
209.00	-63.434	-44.249	
210.00	-57.511	-51.410	
211.00	-54.777	-48.658	
212.00	-53.495	-33.091	
213.00	-53.620	-43.828	
214.00	-54.888	-56.108	
215.00	-57.583	-70.655	
216.00	-62.614	-102.866	
217.00	-63.641	163.664	
218.00	-59.386	119.124	
219.00	-56.706	89.556	
220.00	-55.704	79.406	
221.00	-55.883	51.196	
222.00	-56.874	48.591	
223.00	-58.896	33.848	
224.00	-62.045	30.056	
225.00	-66.922	14.545	
226.00	-73.051	39.466	
227.00	-79.057	78.013	
228.00	-74.423	107.099	
229.00	-72.560	103.819	
230.00	-72.298	77.058	
231.00	-72.771	48.225	
232.00	-73.755	15.346	
233.00	-75.031	-6.892	
234.00	-76.310	-42.299	
235.00	-76.900	-82.232	
236.00	-76.741	-110.060	
237.00	-75.750	-168.364	
238.00	-74.413	164.868	
239.00	-73.566	128.889	
240.00	-75.203	102.736	
241.00	-73.455	84.082	
242.00	-74.410	66.345	
243.00	-74.364	78.131	
244.00	-75.992	43.896	
245.00	-74.888	56.908	
246.00	-74.865	37.264	
247.00	-74.872	31.745	
248.00	-74.507	18.630	
249.00	-74.970	-14.830	
250.00	-74.728	-39.274	
251.00	-73.884	-63.947	
252.00	-74.043	-87.548	
253.00	-74.841	-117.195	
254.00	-73.574	-144.630	
255.00	-74.226	-179.574	
256.00	-75.239	147.684	
257.00	-76.743	139.571	
258.00	-77.369	103.426	
259.00	-79.648	82.935	
260.00	-82.706	40.914	
261.00	-83.484	-27.991	
262.00	-96.842	-62.949	
263.00	-85.893	-94.949	
264.00	-86.030	-149.094	
265.00	-87.184	168.282	
266.00	-87.550	170.317	
267.00	-85.607	84.051	
268.00	-89.979	12.646	
269.00	-85.170	-20.037	
270.00	-83.715	-54.502	
271.00	-82.016	-127.834	
272.00	-79.900	-142.210	
273.00	-80.050	-166.456	
274.00	-81.424	177.474	
275.00	-81.054	121.137	
276.00	-82.502	111.157	
277.00	-82.756	68.257	
278.00	-89.160	2.995	
279.00	-91.617	-54.364	
280.00	-83.519	-105.702	
281.00	-83.809	-111.858	
282.00	-82.683	-141.362	
283.00	-83.636	-171.882	
284.00	-85.351	150.370	
285.00	-88.893	92.797	
286.00	-94.931	-25.408	
287.00	-91.163	-34.345	
288.00	-84.621	-116.199	
289.00	-83.017	-148.050	
290.00	-79.758	159.040	
291.00	-79.014	127.215	
292.00	-78.889	106.300	
293.00	-78.448	83.793	
294.00	-79.448	51.541	
295.00	-80.389	36.584	
296.00	-83.412	1.964	
297.00	-83.736	-8.451	
298.00	-96.704	68.377	
299.00	-91.428	127.202	
300.00	-88.235	117.361	
301.00	-84.929	137.831	
302.00	-80.692	122.257	
303.00	-77.748	90.807	
304.00	-75.184	95.812	
305.00	-75.467	60.550	
306.00	-74.916	48.591	
307.00	-76.357	29.363	
308.00	-80.204	-0.865	
309.00	-81.076	21.241	
310.00	-83.930	25.258	
311.00	-81.438	35.254	
312.00	-81.513	35.822	
313.00	-83.102	-15.221	
314.00	-86.423	-51.495	
315.00	-88.340	-141.648	
316.00	-86.647	169.546	
317.00	-82.388	125.705	
318.00	-83.471	105.017	
319.00	-80.671	89.119	
320.00	-81.404	85.499	
321.00	-80.513	83.177	
322.00	-80.459	68.679	
323.00	-80.901	59.813	
324.00	-81.431	13.136	
325.00	-81.712	-9.985	
326.00	-83.878	-33.280	
327.00	-82.732	-80.621	
328.00	-81.265	-86.002	
329.00	-78.709	-116.483	
330.00	-76.525	-124.600	
331.00	-75.693	-155.227	
332.00	-76.690	-151.057	
333.00	-75.602	-175.906	
334.00	-75.781	-179.722	
335.00	-77.747	168.834	
336.00	-78.990	140.490	
337.00	-79.586	99.296	
338.00	-80.839	127.733	
339.00	-84.347	101.991	
340.00	-90.232	81.956	
341.00	-87.988	120.070	
342.00	-83.103	117.950	
343.00	-84.107	71.204	
344.00	-85.214	37.224	
345.00	-81.758	-4.735	
346.00	-84.196	-21.329	
347.00	-82.807	-60.721	
348.00	-81.982	-79.906	
349.00	-83.237	-96.564	
350.00	-88.692	-84.149	
351.00	-93.598	-140.481	
352.00	-92.055	-94.550	
353.00	-94.938	-127.457	
354.00	-86.701	-82.188	
355.00	-89.110	-103.659	
356.00	-87.481	-107.959	
357.00	-82.196	-129.861	
358.00	-76.767	142.420	
359.00	-75.835	121.329	
Frequency	3700.00	MHz	
Channel	test		
Scan Axis name	Azimuth  [deg]		
Scan Axis	Amplitude	Phase	
			
0.00	-77.669	-131.194	
1.00	-75.430	-120.634	
2.00	-75.076	-104.030	
3.00	-77.230	-136.833	
4.00	-76.088	-114.302	
5.00	-78.558	-100.638	
6.00	-78.640	-120.372	
7.00	-80.290	-113.267	
8.00	-81.476	-123.626	
9.00	-78.209	-101.551	
10.00	-76.847	-90.080	
11.00	-75.265	-88.540	
12.00	-75.313	-82.226	
13.00	-75.846	-72.002	
14.00	-73.429	-57.146	
15.00	-74.440	-30.966	
16.00	-75.285	-32.483	
17.00	-75.495	-43.958	
18.00	-74.988	-41.776	
19.00	-76.600	-50.515	
20.00	-77.866	-63.181	
21.00	-81.053	-56.810	
22.00	-80.175	-33.719	
23.00	-78.387	-36.186	
24.00	-78.272	-5.783	
25.00	-83.702	-36.794	
26.00	-84.699	-12.079	
27.00	-86.560	11.390	
28.00	-96.334	-145.037	
29.00	-85.799	164.049	
30.00	-81.783	-157.230	
31.00	-83.756	-158.400	
32.00	-82.383	-110.418	
33.00	-87.829	-84.413	
34.00	-99.934	-116.037	
35.00	-87.024	165.999	
36.00	-87.356	-136.720	
37.00	-84.980	-123.095	
38.00	-88.340	-76.855	
39.00	-90.655	26.593	
40.00	-84.721	24.288	
41.00	-79.334	36.271	
42.00	-78.180	94.498	
43.00	-74.436	87.597	
44.00	-74.346	123.390	
45.00	-75.478	142.705	
46.00	-77.666	-173.329	
47.00	-81.311	-136.720	
48.00	-83.300	-87.431	
49.00	-86.207	-80.735	
50.00	-87.761	-32.445	
51.00	-92.259	95.744	
52.00	-87.231	134.766	
53.00	-80.975	-177.023	
54.00	-75.635	-170.206	
55.00	-72.830	-130.460	
56.00	-73.682	-108.878	
57.00	-73.068	-89.689	
58.00	-74.055	-59.094	
59.00	-74.857	-38.196	
60.00	-79.199	6.401	
61.00	-78.315	108.394	
62.00	-76.839	150.494	
63.00	-75.181	-170.465	
64.00	-73.458	-147.612	
65.00	-72.183	-132.778	
66.00	-74.154	-131.157	
67.00	-75.351	-103.476	
68.00	-77.195	-78.486	
69.00	-78.606	-80.942	
70.00	-84.454	-62.345	
71.00	-86.606	-33.482	
72.00	-87.993	7.835	
73.00	-84.896	133.743	
74.00	-80.216	117.894	
75.00	-75.355	-179.435	
76.00	-75.325	-172.014	
77.00	-74.493	-137.370	
78.00	-73.119	-123.498	
79.00	-75.021	-105.632	
80.00	-76.928	-60.023	
81.00	-80.790	-19.686	
82.00	-81.197	10.026	
83.00	-78.009	43.927	
84.00	-75.950	79.862	
85.00	-77.439	149.745	
86.00	-75.244	-130.752	
87.00	-74.601	-172.129	
88.00	-77.079	-106.186	
89.00	-76.977	-99.226	
90.00	-79.509	-40.531	
91.00	-79.365	-17.155	
92.00	-78.421	51.110	
93.00	-76.710	66.859	
94.00	-75.386	75.708	
95.00	-73.251	122.254	
96.00	-72.060	124.513	
97.00	-71.497	-179.573	
98.00	-70.560	-179.577	
99.00	-69.716	-140.388	
100.00	-68.200	-121.652	
101.00	-68.258	-91.246	
102.00	-67.730	-58.121	
103.00	-68.032	-26.992	
104.00	-67.698	-2.159	
105.00	-67.758	11.507	
106.00	-67.822	55.752	
107.00	-68.825	69.894	
108.00	-69.839	116.981	
109.00	-69.889	-167.439	
110.00	-69.979	-146.234	
111.00	-72.187	-114.029	
112.00	-76.748	-34.361	
113.00	-88.651	-13.037	
114.00	-79.683	170.961	
115.00	-71.675	-157.857	
116.00	-67.955	-152.546	
117.00	-65.363	-113.471	
118.00	-64.315	-99.859	
119.00	-63.653	-54.362	
120.00	-64.237	-37.289	
121.00	-64.779	-20.562	
122.00	-65.753	4.213	
123.00	-67.573	4.275	
124.00	-68.398	31.380	
125.00	-70.403	17.271	
126.00	-71.855	18.412	
127.00	-75.044	23.309	
128.00	-75.701	4.303	
129.00	-71.761	-8.643	
130.00	-67.662	-17.145	
131.00	-64.859	-12.008	
132.00	-62.777	0.357	
133.00	-62.567	17.457	
134.00	-63.539	40.249	
135.00	-66.217	33.866	
136.00	-69.991	34.259	
137.00	-67.706	-2.489	
138.00	-63.107	16.275	
139.00	-60.840	32.399	
140.00	-59.744	56.335	
141.00	-61.027	81.789	
142.00	-64.496	110.476	
143.00	-77.114	161.595	
144.00	-66.361	-52.075	
145.00	-59.172	-34.445	
146.00	-55.671	-12.914	
147.00	-53.977	-2.872	
148.00	-53.691	0.198	
149.00	-54.408	51.830	
150.00	-56.084	53.963	
151.00	-59.673	66.811	
152.00	-65.823	90.307	
153.00	-81.635	152.104	
154.00	-67.774	-100.519	
155.00	-63.032	-109.078	
156.00	-62.107	-84.630	
157.00	-62.719	-92.448	
158.00	-67.620	-81.632	
159.00	-83.623	133.477	
160.00	-64.377	96.797	
161.00	-59.827	79.026	
162.00	-56.968	124.031	
163.00	-56.398	114.925	
164.00	-56.442	172.213	
165.00	-58.124	152.448	
166.00	-60.466	164.741	
167.00	-61.129	100.996	
168.00	-60.034	90.099	
169.00	-59.642	98.108	
170.00	-61.644	39.427	
171.00	-62.926	0.536	
172.00	-56.735	-94.084	
173.00	-50.447	-117.940	
174.00	-46.343	-116.341	
175.00	-43.157	-122.226	
176.00	-40.405	-62.093	
177.00	-38.633	-76.237	
178.00	-37.368	-55.802	
179.00	-36.735	-66.292	
180.00	-36.661	-55.710	
181.00	-37.174	-85.310	
182.00	-38.300	-66.873	
183.00	-40.098	-72.507	
184.00	-42.747	-73.856	
185.00	-46.327	-77.801	
186.00	-51.723	-85.877	
187.00	-59.892	-72.419	
188.00	-66.208	-65.611	
189.00	-61.161	45.656	
190.00	-58.669	51.907	
191.00	-59.283	66.488	
192.00	-62.638	53.429	
193.00	-71.322	95.655	
194.00	-63.996	178.014	
195.00	-57.639	179.709	
196.00	-54.578	174.933	
197.00	-53.357	-179.412	
198.00	-53.654	-176.699	
199.00	-55.602	170.880	
200.00	-60.350	167.660	
201.00	-73.517	106.603	
202.00	-64.870	-14.117	
203.00	-58.992	-36.340	
204.00	-57.532	-34.548	
205.00	-58.422	-42.315	
206.00	-61.883	-49.738	
207.00	-70.806	-19.390	
208.00	-65.050	68.564	
209.00	-58.992	93.064	
210.00	-56.363	77.292	
211.00	-55.556	78.364	
212.00	-56.230	89.779	
213.00	-58.435	70.262	
214.00	-62.110	38.226	
215.00	-63.855	-15.651	
216.00	-60.931	-64.001	
217.00	-57.739	-111.998	
218.00	-56.116	-134.966	
219.00	-55.690	-157.472	
220.00	-56.280	-168.179	
221.00	-57.691	161.231	
222.00	-59.738	150.296	
223.00	-62.145	127.111	
224.00	-65.126	115.577	
225.00	-69.208	84.149	
226.00	-73.058	96.738	
227.00	-78.771	66.977	
228.00	-78.749	119.975	
229.00	-74.504	139.069	
230.00	-72.214	128.527	
231.00	-71.250	109.676	
232.00	-71.503	95.162	
233.00	-72.317	89.996	
234.00	-74.735	63.177	
235.00	-76.453	38.077	
236.00	-80.834	-5.355	
237.00	-79.530	-63.983	
238.00	-78.292	-92.694	
239.00	-76.736	-134.283	
240.00	-73.615	-144.963	
241.00	-75.296	-164.749	
242.00	-75.007	-171.405	
243.00	-73.163	-151.902	
244.00	-74.983	168.196	
245.00	-74.575	177.421	
246.00	-74.750	152.175	
247.00	-75.297	145.090	
248.00	-77.424	123.735	
249.00	-77.601	85.074	
250.00	-75.556	41.643	
251.00	-74.403	10.525	
252.00	-72.775	-18.578	
253.00	-72.024	-32.570	
254.00	-71.365	-52.686	
255.00	-71.316	-68.905	
256.00	-72.952	-90.539	
257.00	-73.901	-102.841	
258.00	-74.933	-111.706	
259.00	-78.568	-125.020	
260.00	-79.596	-107.872	
261.00	-82.675	-116.549	
262.00	-81.406	-106.325	
263.00	-81.657	-96.368	
264.00	-82.832	-113.707	
265.00	-81.273	-110.280	
266.00	-81.559	-101.207	
267.00	-85.424	-81.318	
268.00	-85.613	-66.767	
269.00	-81.919	-67.158	
270.00	-78.311	-67.259	
271.00	-76.585	-91.104	
272.00	-75.757	-99.121	
273.00	-75.473	-116.056	
274.00	-76.820	-133.612	
275.00	-77.230	-145.807	
276.00	-81.097	-174.003	
277.00	-83.230	-168.022	
278.00	-90.066	9.380	
279.00	-82.894	1.141	
280.00	-78.503	-39.251	
281.00	-77.501	-53.717	
282.00	-77.697	-74.033	
283.00	-78.773	-85.789	
284.00	-78.903	-114.594	
285.00	-80.761	-116.415	
286.00	-90.637	-162.836	
287.00	-96.415	-6.814	
288.00	-83.668	-25.358	
289.00	-79.364	-49.648	
290.00	-77.730	-74.780	
291.00	-78.940	-89.800	
292.00	-76.953	-130.016	
293.00	-81.694	-150.880	
294.00	-83.476	172.308	
295.00	-84.160	129.915	
296.00	-79.832	57.475	
297.00	-77.702	38.844	
298.00	-76.816	12.330	
299.00	-75.736	-11.464	
300.00	-76.453	-37.293	
301.00	-74.345	-74.448	
302.00	-74.645	-93.653	
303.00	-74.939	-131.862	
304.00	-76.243	-153.807	
305.00	-79.411	161.178	
306.00	-81.822	138.877	
307.00	-88.862	101.462	
308.00	-85.087	16.906	
309.00	-98.019	-35.315	
310.00	-90.680	1.931	
311.00	-88.705	39.631	
312.00	-80.727	10.290	
313.00	-77.494	-35.412	
314.00	-78.560	-79.390	
315.00	-78.586	-129.002	
316.00	-83.683	-144.609	
317.00	-88.257	176.892	
318.00	-90.395	173.007	
319.00	-89.977	-140.930	
320.00	-81.894	-146.239	
321.00	-79.484	171.229	
322.00	-77.053	151.415	
323.00	-78.039	126.118	
324.00	-78.453	76.214	
325.00	-80.049	43.438	
326.00	-81.694	9.233	
327.00	-86.389	-19.717	
328.00	-93.437	-25.520	
329.00	-86.533	-32.253	
330.00	-81.690	-69.170	
331.00	-78.013	-96.641	
332.00	-75.253	-104.585	
333.00	-75.359	-140.340	
334.00	-75.742	-138.387	
335.00	-75.577	-143.993	
336.00	-78.238	-176.670	
337.00	-81.804	156.995	
338.00	-79.655	163.267	
339.00	-86.819	115.684	
340.00	-93.285	70.665	
341.00	-91.827	-155.842	
342.00	-83.301	-179.017	
343.00	-84.165	145.926	
344.00	-80.065	119.446	
345.00	-86.349	76.326	
346.00	-87.926	46.722	
347.00	-83.604	-37.141	
348.00	-77.556	-70.719	
349.00	-80.913	-88.620	
350.00	-85.502	-75.547	
351.00	-86.293	-19.216	
352.00	-80.180	-31.187	
353.00	-76.660	-41.422	
354.00	-77.462	-46.325	
355.00	-79.305	-54.410	
356.00	-77.932	-80.684	
357.00	-77.328	-93.504	
358.00	-78.926	-138.684	
359.00	-79.804	-170.524	
Frequency	3750.00	MHz	
Channel	test		
Scan Axis name	Azimuth  [deg]		
Scan Axis	Amplitude	Phase	
			
0.00	-81.737	-41.277	
1.00	-83.102	-66.108	
2.00	-83.720	-50.302	
3.00	-88.850	-37.977	
4.00	-82.467	-22.379	
5.00	-80.887	-9.442	
6.00	-83.576	-9.554	
7.00	-87.871	2.108	
8.00	-93.564	-69.861	
9.00	-90.230	-125.967	
10.00	-91.147	-25.582	
11.00	-89.407	-28.938	
12.00	-86.036	27.801	
13.00	-81.226	26.178	
14.00	-78.897	18.221	
15.00	-76.881	42.721	
16.00	-76.584	54.239	
17.00	-77.447	58.012	
18.00	-78.748	59.896	
19.00	-81.395	67.435	
20.00	-87.815	85.608	
21.00	-92.527	82.517	
22.00	-86.291	87.586	
23.00	-82.122	66.785	
24.00	-79.689	62.886	
25.00	-77.483	41.480	
26.00	-78.704	60.742	
27.00	-84.167	49.531	
28.00	-82.736	92.554	
29.00	-83.875	113.692	
30.00	-82.841	173.252	
31.00	-88.074	-160.465	
32.00	-95.094	-155.524	
33.00	-98.256	174.973	
34.00	-90.409	-166.329	
35.00	-88.000	-170.881	
36.00	-92.597	-154.449	
37.00	-86.638	-135.308	
38.00	-88.407	-139.205	
39.00	-101.776	96.960	
40.00	-90.251	149.466	
41.00	-80.896	135.062	
42.00	-77.684	143.143	
43.00	-76.768	156.386	
44.00	-76.730	173.361	
45.00	-76.939	-174.732	
46.00	-83.524	-155.283	
47.00	-81.830	-155.949	
48.00	-84.464	-151.301	
49.00	-88.739	-140.874	
50.00	-86.531	170.692	
51.00	-83.323	-174.908	
52.00	-79.751	-174.907	
53.00	-77.804	-120.538	
54.00	-76.429	-98.921	
55.00	-76.086	-64.436	
56.00	-75.269	-25.222	
57.00	-74.294	2.719	
58.00	-75.019	30.502	
59.00	-75.121	61.329	
60.00	-77.122	93.171	
61.00	-78.018	164.680	
62.00	-78.502	-161.024	
63.00	-80.461	-103.689	
64.00	-80.541	-79.617	
65.00	-85.811	-61.720	
66.00	-86.940	-58.545	
67.00	-89.214	37.072	
68.00	-95.520	-61.893	
69.00	-93.831	12.801	
70.00	-98.631	80.360	
71.00	-94.912	-119.634	
72.00	-85.394	-146.645	
73.00	-86.725	-65.663	
74.00	-82.690	-120.377	
75.00	-79.187	-43.117	
76.00	-77.814	-39.084	
77.00	-75.582	-13.884	
78.00	-75.051	16.387	
79.00	-73.418	35.052	
80.00	-73.370	77.770	
81.00	-73.392	108.408	
82.00	-73.092	115.889	
83.00	-72.881	138.913	
84.00	-74.705	-179.596	
85.00	-76.397	-118.111	
86.00	-74.231	-11.624	
87.00	-77.586	-34.154	
88.00	-74.918	31.025	
89.00	-73.952	42.967	
90.00	-72.677	78.150	
91.00	-72.903	88.650	
92.00	-73.510	145.759	
93.00	-73.442	156.816	
94.00	-74.284	-178.413	
95.00	-74.419	-134.919	
96.00	-72.991	-118.777	
97.00	-72.512	-57.885	
98.00	-71.022	-49.894	
99.00	-69.295	-2.864	
100.00	-68.128	7.943	
101.00	-67.247	45.515	
102.00	-67.060	74.903	
103.00	-66.847	107.087	
104.00	-66.817	136.271	
105.00	-67.120	145.225	
106.00	-67.375	-175.877	
107.00	-68.470	-152.477	
108.00	-69.419	-110.133	
109.00	-70.041	-40.536	
110.00	-71.646	-28.464	
111.00	-74.183	-5.230	
112.00	-73.889	35.441	
113.00	-73.925	5.792	
114.00	-71.477	0.259	
115.00	-68.042	19.264	
116.00	-67.781	20.229	
117.00	-66.943	46.139	
118.00	-66.950	51.456	
119.00	-67.335	90.497	
120.00	-67.627	92.384	
121.00	-66.857	91.881	
122.00	-65.781	103.681	
123.00	-64.233	100.571	
124.00	-63.571	135.266	
125.00	-63.066	131.199	
126.00	-63.882	153.356	
127.00	-65.771	-164.814	
128.00	-70.718	-134.378	
129.00	-77.384	-21.012	
130.00	-67.856	51.304	
131.00	-62.999	82.001	
132.00	-60.641	103.213	
133.00	-60.194	132.179	
134.00	-61.498	159.723	
135.00	-65.587	170.358	
136.00	-83.889	-122.504	
137.00	-66.708	61.980	
138.00	-60.169	103.042	
139.00	-57.496	126.611	
140.00	-56.466	156.377	
141.00	-57.234	-174.981	
142.00	-59.817	-148.411	
143.00	-67.490	-136.343	
144.00	-70.619	90.531	
145.00	-59.237	90.832	
146.00	-55.090	108.788	
147.00	-52.990	118.794	
148.00	-52.426	122.168	
149.00	-52.914	174.087	
150.00	-54.315	175.580	
151.00	-57.114	-173.199	
152.00	-61.410	-156.877	
153.00	-68.628	178.054	
154.00	-87.570	-67.457	
155.00	-68.600	-4.504	
156.00	-63.910	19.939	
157.00	-63.187	14.426	
158.00	-63.886	34.139	
159.00	-69.614	46.260	
160.00	-70.725	146.531	
161.00	-63.787	162.094	
162.00	-58.712	-143.280	
163.00	-56.871	-145.445	
164.00	-56.196	-80.721	
165.00	-57.421	-92.381	
166.00	-60.628	-65.647	
167.00	-64.804	-140.268	
168.00	-61.537	-165.527	
169.00	-59.217	-160.569	
170.00	-59.234	155.588	
171.00	-62.896	152.215	
172.00	-60.017	23.995	
173.00	-51.541	-5.342	
174.00	-46.554	-5.280	
175.00	-43.103	-6.229	
176.00	-40.242	56.090	
177.00	-38.490	42.898	
178.00	-37.285	64.023	
179.00	-36.767	53.680	
180.00	-36.774	63.344	
181.00	-37.389	32.706	
182.00	-38.567	51.191	
183.00	-40.456	43.377	
184.00	-43.062	41.480	
185.00	-46.614	35.770	
186.00	-51.973	26.303	
187.00	-60.668	31.968	
188.00	-70.396	43.419	
189.00	-61.827	174.131	
190.00	-58.251	179.604	
191.00	-58.538	-158.797	
192.00	-60.506	-156.447	
193.00	-61.539	-115.252	
194.00	-58.411	-87.246	
195.00	-55.305	-80.032	
196.00	-53.629	-78.197	
197.00	-53.334	-69.502	
198.00	-54.701	-64.801	
199.00	-57.950	-78.032	
200.00	-65.612	-92.402	
201.00	-67.931	146.403	
202.00	-61.530	115.394	
203.00	-59.478	96.267	
204.00	-60.363	98.531	
205.00	-64.953	96.164	
206.00	-73.388	167.870	
207.00	-63.617	-129.036	
208.00	-58.576	-143.322	
209.00	-56.382	-134.288	
210.00	-55.746	-153.412	
211.00	-56.556	-155.309	
212.00	-58.957	-148.848	
213.00	-62.928	178.938	
214.00	-65.566	116.368	
215.00	-62.263	69.148	
216.00	-59.589	38.651	
217.00	-57.806	-5.324	
218.00	-57.190	-31.042	
219.00	-57.126	-60.604	
220.00	-57.645	-78.544	
221.00	-58.440	-116.653	
222.00	-59.105	-132.276	
223.00	-60.119	-156.587	
224.00	-61.387	-166.197	
225.00	-63.479	168.270	
226.00	-66.683	-170.795	
227.00	-71.247	170.381	
228.00	-73.317	-141.905	
229.00	-70.142	-115.516	
230.00	-67.969	-131.095	
231.00	-66.394	-135.023	
232.00	-66.095	-147.938	
233.00	-66.809	-139.219	
234.00	-68.035	-144.002	
235.00	-69.698	-148.258	
236.00	-70.931	-146.332	
237.00	-71.667	-142.882	
238.00	-71.655	-145.353	
239.00	-70.906	-143.161	
240.00	-70.031	-154.524	
241.00	-71.668	-165.842	
242.00	-73.538	-178.982	
243.00	-75.723	-166.389	
244.00	-80.622	160.049	
245.00	-84.582	174.424	
246.00	-87.591	-164.614	
247.00	-83.706	-126.320	
248.00	-81.659	-150.154	
249.00	-77.412	-162.071	
250.00	-77.234	-179.627	
251.00	-76.640	157.613	
252.00	-75.792	131.664	
253.00	-76.669	118.176	
254.00	-77.330	95.836	
255.00	-78.761	61.728	
256.00	-81.211	38.525	
257.00	-80.140	27.688	
258.00	-79.940	3.627	
259.00	-79.530	-18.813	
260.00	-78.777	-35.732	
261.00	-77.098	-54.624	
262.00	-78.797	-62.906	
263.00	-79.245	-99.276	
264.00	-78.834	-124.124	
265.00	-81.891	-141.950	
266.00	-80.194	158.014	
267.00	-82.381	118.518	
268.00	-79.490	66.277	
269.00	-79.069	31.676	
270.00	-76.811	5.669	
271.00	-76.378	-48.840	
272.00	-76.488	-73.109	
273.00	-75.650	-91.697	
274.00	-76.677	-127.816	
275.00	-76.458	-163.972	
276.00	-77.530	167.588	
277.00	-80.976	132.167	
278.00	-81.555	59.302	
279.00	-78.441	34.588	
280.00	-79.809	-21.589	
281.00	-79.009	-21.321	
282.00	-81.479	-60.476	
283.00	-81.769	-95.913	
284.00	-80.725	-136.103	
285.00	-83.983	-178.399	
286.00	-81.871	126.537	
287.00	-82.996	122.510	
288.00	-86.202	79.551	
289.00	-84.890	56.315	
290.00	-84.659	28.991	
291.00	-83.410	27.413	
292.00	-80.613	5.962	
293.00	-81.724	-45.552	
294.00	-81.251	-62.760	
295.00	-83.845	-90.911	
296.00	-82.287	-156.811	
297.00	-82.242	166.144	
298.00	-81.683	124.907	
299.00	-79.588	71.538	
300.00	-77.614	35.107	
301.00	-76.785	-1.221	
302.00	-76.053	-28.158	
303.00	-77.932	-82.163	
304.00	-79.472	-87.147	
305.00	-80.227	-149.116	
306.00	-81.154	-173.820	
307.00	-82.588	152.984	
308.00	-84.963	122.933	
309.00	-89.081	126.181	
310.00	-87.535	91.510	
311.00	-92.023	92.548	
312.00	-88.744	60.167	
313.00	-85.361	41.548	
314.00	-85.190	-23.835	
315.00	-94.117	-90.206	
316.00	-96.971	141.907	
317.00	-85.794	124.950	
318.00	-83.558	76.494	
319.00	-82.386	45.662	
320.00	-89.368	10.422	
321.00	-87.060	-69.969	
322.00	-84.801	-136.075	
323.00	-82.875	177.988	
324.00	-81.911	113.247	
325.00	-88.564	83.446	
326.00	-90.943	106.729	
327.00	-86.095	149.141	
328.00	-85.437	161.440	
329.00	-80.847	132.124	
330.00	-80.076	98.641	
331.00	-82.523	57.377	
332.00	-85.503	10.083	
333.00	-81.921	-99.389	
334.00	-79.932	-121.804	
335.00	-80.746	-146.194	
336.00	-81.971	148.008	
337.00	-85.057	128.157	
338.00	-86.566	154.356	
339.00	-90.984	141.804	
340.00	-88.387	107.479	
341.00	-84.265	133.217	
342.00	-83.956	150.675	
343.00	-79.320	128.035	
344.00	-80.167	116.444	
345.00	-79.771	88.865	
346.00	-81.490	84.015	
347.00	-83.150	43.909	
348.00	-84.024	13.983	
349.00	-92.219	-18.604	
350.00	-86.691	-8.036	
351.00	-83.411	37.204	
352.00	-78.332	50.696	
353.00	-76.735	40.227	
354.00	-74.610	25.859	
355.00	-76.121	17.394	
356.00	-76.260	0.083	
357.00	-77.918	-13.131	
358.00	-81.624	-66.087	
359.00	-85.810	-77.791	
Frequency	3800.00	MHz	
Channel	test		
Scan Axis name	Azimuth  [deg]		
Scan Axis	Amplitude	Phase	
			
0.00	-81.747	18.011	
1.00	-90.076	27.317	
2.00	-87.674	47.065	
3.00	-90.386	10.197	
4.00	-87.137	42.897	
5.00	-89.312	-0.995	
6.00	-87.828	8.850	
7.00	-89.353	29.884	
8.00	-91.174	-29.190	
9.00	-95.639	-36.489	
10.00	-91.104	-31.854	
11.00	-85.705	38.102	
12.00	-83.431	63.519	
13.00	-83.561	63.454	
14.00	-81.692	66.884	
15.00	-80.877	102.757	
16.00	-80.010	110.227	
17.00	-79.101	122.705	
18.00	-83.749	124.984	
19.00	-83.476	142.619	
20.00	-85.070	130.146	
21.00	-93.441	91.083	
22.00	-87.951	95.484	
23.00	-87.509	75.020	
24.00	-81.277	102.547	
25.00	-78.390	88.095	
26.00	-79.670	105.893	
27.00	-79.399	112.151	
28.00	-80.244	141.520	
29.00	-79.915	148.071	
30.00	-81.715	166.104	
31.00	-86.558	-179.010	
32.00	-81.797	163.891	
33.00	-87.132	148.224	
34.00	-87.514	103.541	
35.00	-87.996	121.343	
36.00	-88.849	108.785	
37.00	-88.342	110.187	
38.00	-86.097	110.725	
39.00	-91.128	174.175	
40.00	-93.731	142.156	
41.00	-84.366	163.680	
42.00	-87.910	-119.277	
43.00	-80.372	-106.820	
44.00	-79.129	-79.959	
45.00	-78.839	-80.182	
46.00	-82.917	-55.361	
47.00	-90.162	-128.683	
48.00	-86.367	-159.664	
49.00	-81.730	-169.512	
50.00	-81.611	-156.629	
51.00	-81.953	-145.336	
52.00	-83.658	-129.040	
53.00	-84.400	-120.611	
54.00	-85.689	-70.454	
55.00	-91.797	51.069	
56.00	-95.614	26.895	
57.00	-83.828	122.048	
58.00	-79.031	154.167	
59.00	-76.601	176.135	
60.00	-76.959	-149.550	
61.00	-77.116	-114.925	
62.00	-79.049	-79.173	
63.00	-85.816	-47.829	
64.00	-86.647	49.191	
65.00	-86.768	84.029	
66.00	-86.833	143.383	
67.00	-90.493	-165.371	
68.00	-85.197	-153.206	
69.00	-87.476	-135.964	
70.00	-91.443	-95.211	
71.00	-93.188	-34.228	
72.00	-87.896	-47.404	
73.00	-80.636	14.385	
74.00	-79.027	10.040	
75.00	-75.563	62.860	
76.00	-75.358	68.054	
77.00	-76.064	102.711	
78.00	-74.647	137.948	
79.00	-75.470	155.146	
80.00	-75.435	-142.288	
81.00	-74.998	-101.840	
82.00	-74.491	-85.399	
83.00	-72.646	-54.856	
84.00	-72.879	-6.634	
85.00	-73.786	53.659	
86.00	-71.354	141.603	
87.00	-72.798	119.120	
88.00	-72.288	178.805	
89.00	-71.480	-150.580	
90.00	-72.938	-103.966	
91.00	-70.700	-82.903	
92.00	-70.062	-27.804	
93.00	-69.330	-11.586	
94.00	-69.247	3.771	
95.00	-68.725	36.856	
96.00	-69.224	44.001	
97.00	-68.700	97.713	
98.00	-68.936	98.858	
99.00	-68.129	139.423	
100.00	-68.450	150.136	
101.00	-68.845	-176.770	
102.00	-67.959	-151.846	
103.00	-67.831	-126.296	
104.00	-68.057	-105.090	
105.00	-68.149	-96.946	
106.00	-68.622	-70.847	
107.00	-68.998	-59.981	
108.00	-70.226	-33.180	
109.00	-69.746	29.105	
110.00	-69.202	24.139	
111.00	-68.522	43.942	
112.00	-67.010	96.112	
113.00	-66.517	98.430	
114.00	-66.770	120.028	
115.00	-67.167	139.687	
116.00	-67.898	136.373	
117.00	-69.789	152.981	
118.00	-69.577	137.940	
119.00	-67.902	164.709	
120.00	-64.996	165.730	
121.00	-62.625	-179.737	
122.00	-61.077	-152.257	
123.00	-60.302	-141.007	
124.00	-60.377	-94.932	
125.00	-60.762	-95.376	
126.00	-62.364	-65.932	
127.00	-64.545	-22.042	
128.00	-69.317	29.324	
129.00	-70.903	126.680	
130.00	-65.542	-178.882	
131.00	-62.634	-141.339	
132.00	-61.448	-114.820	
133.00	-62.514	-84.046	
134.00	-65.220	-49.411	
135.00	-70.591	-18.312	
136.00	-72.454	113.358	
137.00	-65.846	174.563	
138.00	-61.862	-138.740	
139.00	-60.743	-111.817	
140.00	-60.385	-81.418	
141.00	-61.785	-52.316	
142.00	-65.462	-34.473	
143.00	-74.815	-58.713	
144.00	-67.984	-135.887	
145.00	-61.076	-141.753	
146.00	-57.483	-129.519	
147.00	-55.378	-124.520	
148.00	-54.310	-125.784	
149.00	-54.020	-75.893	
150.00	-54.379	-77.719	
151.00	-55.369	-63.578	
152.00	-56.989	-46.858	
153.00	-60.050	-62.384	
154.00	-64.362	-13.745	
155.00	-68.284	33.162	
156.00	-64.593	107.902	
157.00	-62.250	120.348	
158.00	-62.078	148.544	
159.00	-65.258	159.632	
160.00	-69.683	-143.269	
161.00	-66.823	-90.850	
162.00	-59.715	-27.418	
163.00	-57.324	-20.051	
164.00	-56.245	47.254	
165.00	-57.638	43.471	
166.00	-62.123	78.454	
167.00	-71.436	-18.390	
168.00	-61.435	-55.030	
169.00	-57.340	-37.195	
170.00	-57.010	-71.972	
171.00	-61.565	-43.438	
172.00	-67.470	111.708	
173.00	-52.757	103.795	
174.00	-46.909	108.674	
175.00	-43.281	113.021	
176.00	-40.485	175.914	
177.00	-38.910	162.681	
178.00	-37.872	-176.285	
179.00	-37.418	172.670	
180.00	-37.406	-178.776	
181.00	-37.914	149.981	
182.00	-38.979	169.827	
183.00	-40.712	161.893	
184.00	-43.287	163.032	
185.00	-47.088	160.178	
186.00	-53.184	157.716	
187.00	-63.141	-167.753	
188.00	-64.089	-131.200	
189.00	-57.825	-56.219	
190.00	-56.141	-49.545	
191.00	-57.301	-28.491	
192.00	-60.232	-29.801	
193.00	-63.688	2.288	
194.00	-62.877	35.229	
195.00	-59.955	42.342	
196.00	-58.320	39.934	
197.00	-57.779	41.866	
198.00	-58.848	36.634	
199.00	-61.262	14.462	
200.00	-65.941	-9.711	
201.00	-67.405	-80.610	
202.00	-64.721	-123.507	
203.00	-63.431	-157.109	
204.00	-65.638	-169.623	
205.00	-71.536	153.252	
206.00	-71.483	27.798	
207.00	-63.934	1.703	
208.00	-59.738	-31.701	
209.00	-57.062	-29.974	
210.00	-55.899	-56.171	
211.00	-55.853	-58.549	
212.00	-56.967	-50.789	
213.00	-59.759	-69.013	
214.00	-65.288	-105.855	
215.00	-66.375	170.224	
216.00	-60.569	124.688	
217.00	-57.436	81.647	
218.00	-55.755	58.933	
219.00	-55.204	36.252	
220.00	-55.717	23.086	
221.00	-56.706	-7.501	
222.00	-58.397	-15.688	
223.00	-60.869	-32.009	
224.00	-64.562	-33.959	
225.00	-69.674	-41.968	
226.00	-73.067	42.518	
227.00	-68.830	38.954	
228.00	-66.039	53.134	
229.00	-65.020	49.703	
230.00	-65.293	24.396	
231.00	-66.208	13.913	
232.00	-68.272	2.076	
233.00	-71.205	5.430	
234.00	-74.959	8.440	
235.00	-78.673	42.136	
236.00	-78.237	68.286	
237.00	-75.594	67.444	
238.00	-74.236	67.103	
239.00	-74.748	50.087	
240.00	-76.652	50.366	
241.00	-77.795	52.894	
242.00	-78.247	56.005	
243.00	-74.183	82.594	
244.00	-73.317	54.827	
245.00	-72.009	68.125	
246.00	-71.012	34.237	
247.00	-69.545	37.292	
248.00	-68.787	15.464	
249.00	-69.129	-4.993	
250.00	-69.311	-30.489	
251.00	-68.613	-52.859	
252.00	-68.549	-67.619	
253.00	-68.579	-86.513	
254.00	-69.260	-103.061	
255.00	-69.731	-123.829	
256.00	-70.175	-145.985	
257.00	-70.428	-157.239	
258.00	-70.541	175.985	
259.00	-71.156	150.545	
260.00	-71.549	128.914	
261.00	-70.649	92.002	
262.00	-71.115	83.138	
263.00	-71.823	45.384	
264.00	-71.307	17.191	
265.00	-72.769	-3.917	
266.00	-73.567	-40.935	
267.00	-74.763	-77.224	
268.00	-74.414	-106.506	
269.00	-75.802	-145.263	
270.00	-76.646	175.390	
271.00	-76.930	112.119	
272.00	-77.504	73.396	
273.00	-76.365	37.806	
274.00	-77.101	9.388	
275.00	-78.805	-41.014	
276.00	-78.872	-75.637	
277.00	-80.756	-114.776	
278.00	-76.476	-175.368	
279.00	-76.613	141.997	
280.00	-75.978	103.185	
281.00	-77.447	98.369	
282.00	-77.287	50.206	
283.00	-80.124	16.027	
284.00	-81.301	-34.804	
285.00	-81.274	-83.675	
286.00	-78.415	-147.601	
287.00	-79.557	-157.715	
288.00	-79.538	151.708	
289.00	-79.783	136.123	
290.00	-80.559	109.640	
291.00	-81.454	104.466	
292.00	-84.785	95.351	
293.00	-81.424	87.404	
294.00	-81.349	52.160	
295.00	-81.284	36.816	
296.00	-82.602	-20.603	
297.00	-79.873	-56.476	
298.00	-81.036	-128.677	
299.00	-78.855	-159.331	
300.00	-76.980	164.017	
301.00	-78.423	112.082	
302.00	-78.929	75.556	
303.00	-79.975	15.866	
304.00	-81.557	-17.337	
305.00	-82.673	-69.452	
306.00	-88.482	-50.090	
307.00	-90.967	-107.850	
308.00	-85.408	-97.833	
309.00	-84.166	-126.905	
310.00	-83.163	-166.468	
311.00	-84.435	134.892	
312.00	-82.526	98.101	
313.00	-87.313	30.678	
314.00	-89.405	-51.707	
315.00	-90.329	-144.140	
316.00	-98.128	-164.016	
317.00	-91.860	155.408	
318.00	-92.207	87.676	
319.00	-85.219	103.904	
320.00	-81.479	63.701	
321.00	-80.013	28.518	
322.00	-80.455	-12.792	
323.00	-80.694	-54.347	
324.00	-83.847	-119.102	
325.00	-87.967	168.785	
326.00	-102.408	174.103	
327.00	-91.354	-121.581	
328.00	-84.476	-116.679	
329.00	-79.253	-166.511	
330.00	-80.312	-170.818	
331.00	-77.949	164.441	
332.00	-77.752	140.494	
333.00	-82.386	103.332	
334.00	-88.059	54.391	
335.00	-88.852	-27.922	
336.00	-90.986	-125.084	
337.00	-83.296	-175.835	
338.00	-86.206	-178.539	
339.00	-87.813	94.054	
340.00	-85.882	53.444	
341.00	-85.670	11.910	
342.00	-85.485	-1.192	
343.00	-85.525	-91.928	
344.00	-82.933	-128.430	
345.00	-79.495	176.518	
346.00	-78.331	149.778	
347.00	-77.648	108.516	
348.00	-80.965	100.172	
349.00	-88.757	50.624	
350.00	-85.692	86.010	
351.00	-87.134	133.157	
352.00	-84.690	118.026	
353.00	-79.843	81.263	
354.00	-77.463	69.231	
355.00	-78.681	56.283	
356.00	-79.659	31.856	
357.00	-79.740	37.978	
358.00	-82.486	-28.923	
359.00	-83.883	-28.990	
Frequency	3850.00	MHz	
Channel	test		
Scan Axis name	Azimuth  [deg]		
Scan Axis	Amplitude	Phase	
			
0.00	-95.346	20.365	
1.00	-86.131	-6.612	
2.00	-92.517	-83.611	
3.00	-92.650	12.485	
4.00	-95.866	-20.537	
5.00	-92.181	-17.602	
6.00	-86.991	-7.955	
7.00	-92.923	7.711	
8.00	-85.599	-82.283	
9.00	-84.466	-37.754	
10.00	-99.104	-18.890	
11.00	-98.785	-57.713	
12.00	-91.613	142.324	
13.00	-87.587	153.410	
14.00	-87.447	151.216	
15.00	-81.029	163.932	
16.00	-85.508	-169.400	
17.00	-86.690	-173.888	
18.00	-90.621	-129.782	
19.00	-95.342	-61.866	
20.00	-90.199	-18.725	
21.00	-89.110	40.869	
22.00	-98.726	65.940	
23.00	-89.884	178.105	
24.00	-84.623	-172.708	
25.00	-86.561	120.098	
26.00	-92.317	178.973	
27.00	-92.348	-167.537	
28.00	-86.952	-117.209	
29.00	-82.983	-112.998	
30.00	-86.222	-131.111	
31.00	-83.898	-137.001	
32.00	-83.359	-131.365	
33.00	-82.854	-128.042	
34.00	-83.903	-120.013	
35.00	-86.402	-143.097	
36.00	-91.398	-118.516	
37.00	-87.139	-152.335	
38.00	-83.413	-142.633	
39.00	-80.548	-119.855	
40.00	-78.445	-128.264	
41.00	-79.080	-108.428	
42.00	-78.035	-81.994	
43.00	-78.004	-62.763	
44.00	-82.182	-26.259	
45.00	-83.133	-2.756	
46.00	-86.503	52.174	
47.00	-88.389	72.266	
48.00	-91.412	-167.920	
49.00	-85.468	-88.826	
50.00	-82.292	-59.501	
51.00	-80.455	-61.743	
52.00	-78.999	-45.702	
53.00	-80.595	-32.007	
54.00	-82.968	3.962	
55.00	-85.545	21.253	
56.00	-104.206	59.433	
57.00	-87.066	-79.164	
58.00	-83.035	-97.452	
59.00	-78.818	-71.703	
60.00	-77.454	-55.243	
61.00	-77.951	-20.314	
62.00	-78.203	10.147	
63.00	-84.798	17.464	
64.00	-100.003	134.811	
65.00	-85.958	-148.139	
66.00	-85.382	-111.362	
67.00	-82.878	-70.716	
68.00	-88.710	23.540	
69.00	-86.571	-47.078	
70.00	-85.033	-33.989	
71.00	-85.975	-25.032	
72.00	-85.103	12.875	
73.00	-78.387	105.620	
74.00	-79.681	95.560	
75.00	-76.517	176.639	
76.00	-75.808	-172.278	
77.00	-73.712	-119.567	
78.00	-71.979	-102.874	
79.00	-70.981	-60.959	
80.00	-70.333	-19.902	
81.00	-69.218	2.073	
82.00	-69.862	19.410	
83.00	-70.273	39.568	
84.00	-70.147	101.795	
85.00	-72.400	172.950	
86.00	-69.233	-95.550	
87.00	-68.927	-108.482	
88.00	-66.932	-43.310	
89.00	-66.461	-26.906	
90.00	-66.355	17.238	
91.00	-65.254	28.057	
92.00	-66.259	83.171	
93.00	-66.431	101.846	
94.00	-66.778	121.442	
95.00	-66.640	166.944	
96.00	-68.033	-179.763	
97.00	-67.635	-122.394	
98.00	-67.513	-113.626	
99.00	-67.630	-76.001	
100.00	-67.893	-66.887	
101.00	-68.794	-45.859	
102.00	-69.924	-23.002	
103.00	-70.580	-6.125	
104.00	-71.518	-2.448	
105.00	-71.973	-12.452	
106.00	-70.645	12.865	
107.00	-69.421	19.248	
108.00	-69.387	47.712	
109.00	-68.790	116.311	
110.00	-67.496	125.393	
111.00	-66.352	161.490	
112.00	-65.050	-131.571	
113.00	-65.119	-121.786	
114.00	-66.441	-94.550	
115.00	-68.292	-62.957	
116.00	-73.067	-52.700	
117.00	-87.699	0.093	
118.00	-75.138	-176.070	
119.00	-67.186	-125.996	
120.00	-63.456	-104.119	
121.00	-60.630	-80.285	
122.00	-59.358	-49.036	
123.00	-58.470	-33.955	
124.00	-58.505	15.033	
125.00	-58.810	13.651	
126.00	-60.154	43.353	
127.00	-62.546	84.461	
128.00	-67.588	124.081	
129.00	-74.981	-132.964	
130.00	-67.631	-54.886	
131.00	-63.287	-17.038	
132.00	-61.900	4.736	
133.00	-62.679	36.352	
134.00	-64.717	66.587	
135.00	-70.958	84.483	
136.00	-86.828	-99.916	
137.00	-68.677	-28.834	
138.00	-64.102	11.339	
139.00	-62.106	36.182	
140.00	-61.967	62.914	
141.00	-63.349	81.146	
142.00	-66.637	87.491	
143.00	-70.754	59.810	
144.00	-68.744	16.488	
145.00	-63.915	-6.861	
146.00	-60.033	-7.591	
147.00	-57.125	-12.485	
148.00	-55.185	-17.313	
149.00	-54.084	31.637	
150.00	-53.616	29.436	
151.00	-54.044	48.281	
152.00	-55.564	66.668	
153.00	-58.767	53.116	
154.00	-64.553	102.336	
155.00	-69.530	169.407	
156.00	-64.463	-117.556	
157.00	-62.603	-112.252	
158.00	-63.352	-92.161	
159.00	-67.786	-89.230	
160.00	-83.007	-8.330	
161.00	-67.809	67.461	
162.00	-61.888	111.990	
163.00	-59.360	114.117	
164.00	-58.200	176.127	
165.00	-60.174	167.454	
166.00	-64.741	-164.981	
167.00	-70.869	68.908	
168.00	-61.214	57.666	
169.00	-57.518	75.808	
170.00	-57.016	41.125	
171.00	-61.634	62.887	
172.00	-66.814	-111.150	
173.00	-53.416	-133.508	
174.00	-47.692	-133.239	
175.00	-44.075	-127.413	
176.00	-41.195	-66.320	
177.00	-39.512	-80.770	
178.00	-38.378	-60.874	
179.00	-37.791	-71.990	
180.00	-37.687	-64.060	
181.00	-38.156	-94.862	
182.00	-39.183	-73.815	
183.00	-41.017	-81.951	
184.00	-43.856	-78.740	
185.00	-48.030	-80.847	
186.00	-55.325	-78.606	
187.00	-65.101	-15.260	
188.00	-61.660	9.424	
189.00	-57.801	69.120	
190.00	-58.042	72.688	
191.00	-61.797	91.941	
192.00	-70.541	85.867	
193.00	-73.117	-147.769	
194.00	-66.724	-144.104	
195.00	-65.412	-169.718	
196.00	-62.876	155.469	
197.00	-60.237	145.744	
198.00	-59.229	140.224	
199.00	-59.830	126.575	
200.00	-63.248	125.413	
201.00	-75.051	99.666	
202.00	-71.406	-68.212	
203.00	-63.854	-82.398	
204.00	-62.818	-84.821	
205.00	-65.541	-91.432	
206.00	-78.806	-100.382	
207.00	-67.363	78.695	
208.00	-60.377	55.028	
209.00	-57.014	68.134	
210.00	-55.985	47.212	
211.00	-56.611	52.825	
212.00	-58.928	64.925	
213.00	-66.158	51.523	
214.00	-72.769	-109.043	
215.00	-60.680	-126.696	
216.00	-56.411	-141.947	
217.00	-54.706	-174.313	
218.00	-54.219	169.104	
219.00	-54.920	148.388	
220.00	-56.625	136.217	
221.00	-59.262	104.938	
222.00	-63.042	89.889	
223.00	-67.154	59.120	
224.00	-72.704	27.508	
225.00	-77.382	-51.778	
226.00	-75.367	-105.827	
227.00	-74.135	-168.585	
228.00	-72.947	176.081	
229.00	-73.198	140.537	
230.00	-75.350	90.485	
231.00	-75.914	40.367	
232.00	-76.264	-7.347	
233.00	-74.934	-34.846	
234.00	-72.500	-68.572	
235.00	-71.759	-90.949	
236.00	-71.508	-116.541	
237.00	-71.353	-155.210	
238.00	-72.816	-177.972	
239.00	-74.897	146.003	
240.00	-77.182	94.445	
241.00	-79.768	53.853	
242.00	-81.443	-0.685	
243.00	-78.339	-31.253	
244.00	-78.366	-97.598	
245.00	-77.969	-106.066	
246.00	-78.740	-154.522	
247.00	-77.923	-174.152	
248.00	-78.102	152.832	
249.00	-76.449	109.929	
250.00	-75.713	94.942	
251.00	-74.291	60.767	
252.00	-73.779	46.865	
253.00	-72.805	34.481	
254.00	-72.252	25.548	
255.00	-71.798	6.590	
256.00	-71.288	-2.622	
257.00	-71.702	-18.550	
258.00	-70.901	-38.610	
259.00	-70.952	-50.522	
260.00	-71.578	-74.352	
261.00	-72.827	-101.552	
262.00	-74.419	-117.218	
263.00	-75.122	-151.767	
264.00	-76.902	170.556	
265.00	-77.385	129.842	
266.00	-76.566	88.706	
267.00	-76.166	46.969	
268.00	-75.108	24.101	
269.00	-73.920	-5.328	
270.00	-74.049	-35.463	
271.00	-75.642	-78.551	
272.00	-75.278	-99.975	
273.00	-79.949	-114.321	
274.00	-83.529	-134.839	
275.00	-87.382	153.549	
276.00	-98.327	120.248	
277.00	-90.036	-2.481	
278.00	-83.408	-46.953	
279.00	-84.785	-80.112	
280.00	-82.047	-101.894	
281.00	-86.325	-119.758	
282.00	-85.977	-117.124	
283.00	-87.254	178.381	
284.00	-100.385	-80.880	
285.00	-92.096	105.490	
286.00	-87.614	-22.617	
287.00	-87.144	-50.845	
288.00	-84.028	-50.514	
289.00	-84.782	-63.902	
290.00	-82.816	-90.912	
291.00	-81.514	-109.475	
292.00	-78.619	-133.813	
293.00	-78.988	-157.126	
294.00	-83.915	161.828	
295.00	-84.647	147.882	
296.00	-84.047	44.300	
297.00	-81.124	12.627	
298.00	-78.745	-40.518	
299.00	-76.867	-65.752	
300.00	-77.472	-79.902	
301.00	-80.339	-110.455	
302.00	-84.836	-147.725	
303.00	-101.063	-126.243	
304.00	-92.510	-10.778	
305.00	-86.083	-45.670	
306.00	-87.066	-48.942	
307.00	-87.944	-60.384	
308.00	-83.327	-44.037	
309.00	-80.665	-42.979	
310.00	-78.553	-75.876	
311.00	-78.811	-109.763	
312.00	-83.115	-151.009	
313.00	-101.247	-140.149	
314.00	-86.540	-53.635	
315.00	-83.083	-58.967	
316.00	-80.401	-76.131	
317.00	-80.200	-71.043	
318.00	-82.175	-90.559	
319.00	-83.755	-87.964	
320.00	-83.600	-146.466	
321.00	-89.320	125.919	
322.00	-84.820	31.281	
323.00	-82.199	19.635	
324.00	-81.898	-45.744	
325.00	-85.872	-53.017	
326.00	-92.469	-2.912	
327.00	-84.832	-10.407	
328.00	-81.312	-25.333	
329.00	-78.261	-79.219	
330.00	-79.846	-84.872	
331.00	-82.257	-127.228	
332.00	-80.834	-143.825	
333.00	-85.502	-160.144	
334.00	-88.159	134.386	
335.00	-92.837	53.444	
336.00	-86.216	-18.293	
337.00	-83.570	-28.637	
338.00	-80.107	-64.604	
339.00	-82.172	-101.386	
340.00	-86.329	-118.688	
341.00	-99.835	-137.026	
342.00	-88.519	-26.013	
343.00	-80.647	-23.998	
344.00	-77.482	-52.788	
345.00	-79.248	-63.908	
346.00	-78.730	-112.308	
347.00	-86.426	176.406	
348.00	-85.512	94.449	
349.00	-84.117	15.593	
350.00	-85.535	-5.551	
351.00	-86.517	-51.079	
352.00	-84.202	-117.722	
353.00	-85.970	-160.083	
354.00	-83.325	153.831	
355.00	-86.014	117.509	
356.00	-87.223	84.589	
357.00	-92.344	111.783	
358.00	-85.110	21.518	
359.00	-81.586	14.184	
Frequency	3900.00	MHz	
Channel	test		
Scan Axis name	Azimuth  [deg]		
Scan Axis	Amplitude	Phase	
			
0.00	-88.337	108.839	
1.00	-92.777	-159.288	
2.00	-94.456	177.449	
3.00	-86.328	149.240	
4.00	-86.827	157.651	
5.00	-84.784	118.143	
6.00	-84.976	117.677	
7.00	-90.441	77.120	
8.00	-92.064	27.382	
9.00	-89.925	59.267	
10.00	-86.566	70.378	
11.00	-95.685	-169.522	
12.00	-97.466	-89.267	
13.00	-88.283	-166.635	
14.00	-82.472	-138.429	
15.00	-83.506	-158.514	
16.00	-81.206	-160.783	
17.00	-83.950	-161.199	
18.00	-82.407	-172.641	
19.00	-88.738	-141.548	
20.00	-87.814	146.694	
21.00	-92.324	173.583	
22.00	-90.907	175.541	
23.00	-86.028	-179.688	
24.00	-80.543	-163.439	
25.00	-81.224	171.670	
26.00	-82.864	-165.534	
27.00	-86.478	-175.315	
28.00	-85.849	-151.351	
29.00	-85.972	-133.371	
30.00	-86.012	-88.917	
31.00	-88.185	-94.768	
32.00	-84.403	-82.592	
33.00	-92.984	-112.459	
34.00	-83.368	-144.101	
35.00	-86.694	174.558	
36.00	-90.077	-152.171	
37.00	-83.685	-174.826	
38.00	-79.205	-143.262	
39.00	-77.468	-139.590	
40.00	-78.558	-112.430	
41.00	-84.370	-101.912	
42.00	-100.990	-102.938	
43.00	-106.180	81.006	
44.00	-89.467	92.702	
45.00	-87.825	128.029	
46.00	-82.267	138.058	
47.00	-85.595	148.306	
48.00	-90.886	-139.574	
49.00	-90.661	-94.791	
50.00	-87.961	6.789	
51.00	-87.337	100.343	
52.00	-85.925	102.189	
53.00	-84.253	131.666	
54.00	-82.133	150.782	
55.00	-83.416	128.293	
56.00	-87.465	179.642	
57.00	-84.162	176.244	
58.00	-92.961	-79.452	
59.00	-92.700	1.764	
60.00	-84.157	30.546	
61.00	-81.076	91.875	
62.00	-79.781	140.652	
63.00	-80.308	158.589	
64.00	-82.274	-161.107	
65.00	-84.795	-130.097	
66.00	-89.252	-92.267	
67.00	-92.897	-83.276	
68.00	-92.244	-3.730	
69.00	-89.388	46.802	
70.00	-86.168	47.365	
71.00	-80.856	45.103	
72.00	-79.926	79.986	
73.00	-78.031	151.047	
74.00	-76.951	156.459	
75.00	-79.224	-105.152	
76.00	-76.827	-79.619	
77.00	-73.736	-18.540	
78.00	-71.998	2.284	
79.00	-69.981	45.951	
80.00	-67.861	88.484	
81.00	-66.991	122.122	
82.00	-67.179	135.046	
83.00	-66.070	160.118	
84.00	-65.679	-148.075	
85.00	-66.634	-74.731	
86.00	-64.268	18.139	
87.00	-63.513	-6.384	
88.00	-62.147	57.190	
89.00	-61.853	71.288	
90.00	-61.735	117.054	
91.00	-61.410	126.964	
92.00	-61.772	-174.560	
93.00	-61.555	-155.633	
94.00	-61.965	-131.399	
95.00	-61.927	-92.743	
96.00	-62.320	-73.501	
97.00	-61.901	-18.849	
98.00	-62.479	-15.165	
99.00	-62.853	27.751	
100.00	-63.633	38.548	
101.00	-64.658	68.434	
102.00	-66.121	94.724	
103.00	-68.456	120.087	
104.00	-69.783	130.482	
105.00	-71.685	124.138	
106.00	-71.043	131.767	
107.00	-70.250	143.791	
108.00	-68.467	165.082	
109.00	-67.239	-136.054	
110.00	-64.793	-135.182	
111.00	-64.431	-91.974	
112.00	-63.560	-22.289	
113.00	-63.583	-10.191	
114.00	-64.761	27.070	
115.00	-66.433	63.494	
116.00	-68.989	85.352	
117.00	-73.774	125.742	
118.00	-79.778	-134.588	
119.00	-72.193	-22.477	
120.00	-65.555	3.534	
121.00	-62.855	29.771	
122.00	-60.987	61.619	
123.00	-60.111	75.204	
124.00	-59.753	119.152	
125.00	-59.997	113.235	
126.00	-61.310	134.580	
127.00	-63.397	159.419	
128.00	-66.921	172.768	
129.00	-72.329	155.142	
130.00	-71.646	121.682	
131.00	-69.197	112.559	
132.00	-68.504	107.246	
133.00	-68.293	116.918	
134.00	-68.688	113.052	
135.00	-67.199	99.014	
136.00	-65.172	124.031	
137.00	-64.399	137.267	
138.00	-63.601	156.294	
139.00	-63.248	162.713	
140.00	-63.173	164.983	
141.00	-62.336	172.547	
142.00	-61.663	174.948	
143.00	-61.886	177.483	
144.00	-63.691	-172.925	
145.00	-67.164	150.590	
146.00	-64.221	111.165	
147.00	-58.278	98.116	
148.00	-54.989	99.329	
149.00	-53.220	153.123	
150.00	-52.442	155.026	
151.00	-53.262	178.160	
152.00	-54.965	-161.328	
153.00	-58.772	-170.023	
154.00	-65.866	-121.500	
155.00	-72.955	-40.372	
156.00	-66.064	47.211	
157.00	-65.122	55.047	
158.00	-67.071	85.764	
159.00	-74.739	129.083	
160.00	-69.164	-164.272	
161.00	-64.182	-157.139	
162.00	-61.336	-113.061	
163.00	-60.159	-117.435	
164.00	-59.213	-64.117	
165.00	-59.695	-82.604	
166.00	-60.743	-60.935	
167.00	-62.919	-120.866	
168.00	-62.671	-134.916	
169.00	-61.367	-143.459	
170.00	-60.334	161.348	
171.00	-61.407	165.323	
172.00	-62.960	47.656	
173.00	-54.790	3.110	
174.00	-49.210	-9.709	
175.00	-45.196	-5.769	
176.00	-41.915	53.193	
177.00	-39.887	38.374	
178.00	-38.518	58.701	
179.00	-37.860	48.862	
180.00	-37.820	56.829	
181.00	-38.418	26.681	
182.00	-39.639	48.325	
183.00	-41.684	38.138	
184.00	-44.650	39.693	
185.00	-48.934	33.665	
186.00	-56.286	29.628	
187.00	-70.489	77.342	
188.00	-65.485	136.728	
189.00	-59.691	-171.495	
190.00	-58.956	-171.906	
191.00	-61.362	-149.388	
192.00	-65.696	-136.587	
193.00	-64.626	-82.686	
194.00	-59.988	-66.644	
195.00	-57.426	-73.972	
196.00	-56.072	-80.263	
197.00	-56.291	-75.805	
198.00	-57.973	-75.960	
199.00	-62.112	-87.983	
200.00	-78.243	-84.905	
201.00	-66.840	81.324	
202.00	-61.479	69.877	
203.00	-60.820	57.479	
204.00	-63.561	62.825	
205.00	-75.674	86.989	
206.00	-65.876	-164.966	
207.00	-59.417	-149.987	
208.00	-56.515	-170.519	
209.00	-55.938	-158.027	
210.00	-57.203	178.683	
211.00	-60.794	-176.420	
212.00	-70.593	-174.648	
213.00	-67.559	17.068	
214.00	-59.461	-2.055	
215.00	-55.992	-8.221	
216.00	-54.526	-24.131	
217.00	-54.244	-60.040	
218.00	-54.965	-79.343	
219.00	-56.651	-102.564	
220.00	-59.449	-119.150	
221.00	-63.213	-159.035	
222.00	-66.944	165.464	
223.00	-68.770	118.743	
224.00	-68.666	85.131	
225.00	-70.064	47.361	
226.00	-72.029	41.255	
227.00	-75.204	-17.221	
228.00	-77.585	-25.155	
229.00	-84.018	-25.827	
230.00	-82.826	15.722	
231.00	-78.077	17.220	
232.00	-73.909	0.483	
233.00	-71.707	-0.108	
234.00	-69.755	-24.561	
235.00	-68.928	-40.554	
236.00	-68.139	-69.792	
237.00	-68.466	-94.771	
238.00	-69.199	-127.744	
239.00	-70.800	-168.652	
240.00	-72.656	146.254	
241.00	-70.680	105.013	
242.00	-69.793	73.154	
243.00	-69.277	71.788	
244.00	-69.425	16.474	
245.00	-68.875	20.262	
246.00	-69.987	-20.912	
247.00	-70.593	-20.300	
248.00	-71.323	-35.181	
249.00	-71.818	-59.806	
250.00	-72.703	-78.167	
251.00	-72.839	-97.475	
252.00	-73.596	-109.715	
253.00	-72.342	-143.150	
254.00	-72.604	-163.504	
255.00	-71.095	174.599	
256.00	-70.955	143.153	
257.00	-70.477	131.854	
258.00	-69.663	103.511	
259.00	-69.661	80.078	
260.00	-69.767	62.355	
261.00	-70.333	23.017	
262.00	-71.848	9.143	
263.00	-74.027	-32.776	
264.00	-75.698	-58.040	
265.00	-79.484	-98.820	
266.00	-78.463	-151.674	
267.00	-75.948	160.987	
268.00	-76.134	137.192	
269.00	-76.148	95.334	
270.00	-77.217	59.809	
271.00	-75.491	14.684	
272.00	-76.754	-9.536	
273.00	-79.586	-50.856	
274.00	-81.336	-75.147	
275.00	-82.643	-135.775	
276.00	-84.154	-173.675	
277.00	-82.153	146.735	
278.00	-83.117	84.389	
279.00	-84.276	60.490	
280.00	-82.327	0.965	
281.00	-85.105	-40.132	
282.00	-84.404	-89.915	
283.00	-83.086	-117.985	
284.00	-82.186	179.500	
285.00	-81.693	159.209	
286.00	-82.909	131.546	
287.00	-82.480	119.416	
288.00	-82.288	80.276	
289.00	-85.842	36.966	
290.00	-86.011	-8.828	
291.00	-87.934	-47.237	
292.00	-87.919	-92.736	
293.00	-81.315	-117.234	
294.00	-79.965	-150.854	
295.00	-79.983	-168.509	
296.00	-79.162	153.345	
297.00	-78.020	134.224	
298.00	-78.748	103.272	
299.00	-78.496	66.968	
300.00	-82.231	45.230	
301.00	-83.200	-7.114	
302.00	-82.232	-76.405	
303.00	-80.389	-133.415	
304.00	-84.993	-164.721	
305.00	-82.998	-173.994	
306.00	-83.637	155.509	
307.00	-84.163	125.606	
308.00	-88.622	122.763	
309.00	-96.052	26.815	
310.00	-90.067	-38.226	
311.00	-90.185	-108.783	
312.00	-84.596	-163.059	
313.00	-81.156	165.126	
314.00	-81.707	115.955	
315.00	-82.507	83.729	
316.00	-82.303	81.451	
317.00	-87.687	58.015	
318.00	-87.434	3.247	
319.00	-86.663	-78.473	
320.00	-84.452	-158.185	
321.00	-81.440	175.187	
322.00	-78.575	157.403	
323.00	-78.581	135.872	
324.00	-78.834	97.969	
325.00	-81.738	112.208	
326.00	-79.741	114.891	
327.00	-77.436	106.539	
328.00	-78.365	86.348	
329.00	-79.762	63.030	
330.00	-83.580	58.874	
331.00	-88.940	46.422	
332.00	-96.003	97.961	
333.00	-100.689	142.024	
334.00	-89.141	173.429	
335.00	-95.857	129.726	
336.00	-85.653	133.212	
337.00	-89.214	166.116	
338.00	-91.687	163.998	
339.00	-91.132	124.408	
340.00	-99.668	126.482	
341.00	-86.140	120.874	
342.00	-80.651	118.323	
343.00	-79.084	84.625	
344.00	-79.552	81.475	
345.00	-81.745	64.854	
346.00	-89.842	62.168	
347.00	-95.216	128.269	
348.00	-98.456	65.599	
349.00	-89.998	112.335	
350.00	-84.689	88.934	
351.00	-88.302	86.951	
352.00	-92.835	64.493	
353.00	-93.286	-153.198	
354.00	-82.012	172.851	
355.00	-79.421	148.148	
356.00	-79.820	133.165	
357.00	-82.907	140.067	
358.00	-82.510	86.915	
359.00	-82.902	69.227	
Frequency	3950.00	MHz	
Channel	test		
Scan Axis name	Azimuth  [deg]		
Scan Axis	Amplitude	Phase	
			
0.00	-95.368	-100.455	
1.00	-88.180	-84.744	
2.00	-89.511	-78.681	
3.00	-88.803	-97.271	
4.00	-89.666	-58.541	
5.00	-102.509	36.854	
6.00	-88.091	112.373	
7.00	-86.993	133.746	
8.00	-86.000	109.089	
9.00	-80.833	144.093	
10.00	-81.363	158.175	
11.00	-81.670	168.905	
12.00	-87.925	142.761	
13.00	-94.587	-106.813	
14.00	-86.008	-51.365	
15.00	-84.259	-45.739	
16.00	-86.205	-77.380	
17.00	-85.700	-129.759	
18.00	-84.241	-148.982	
19.00	-83.745	-170.493	
20.00	-81.994	-172.275	
21.00	-87.647	-152.823	
22.00	-86.005	-105.631	
23.00	-90.345	-97.947	
24.00	-95.991	-97.423	
25.00	-102.974	-137.764	
26.00	-97.021	169.552	
27.00	-89.535	-146.235	
28.00	-89.411	-163.125	
29.00	-83.170	-152.247	
30.00	-81.867	-149.163	
31.00	-90.221	-97.394	
32.00	-93.315	-107.031	
33.00	-90.442	142.661	
34.00	-86.339	140.523	
35.00	-83.764	169.572	
36.00	-85.714	-176.057	
37.00	-81.114	-147.728	
38.00	-80.431	-127.095	
39.00	-81.717	-84.096	
40.00	-81.962	-44.446	
41.00	-87.370	4.282	
42.00	-84.372	170.085	
43.00	-85.071	-174.238	
44.00	-87.667	-134.832	
45.00	-87.801	-124.914	
46.00	-86.247	-156.621	
47.00	-84.713	-157.478	
48.00	-98.686	-106.013	
49.00	-89.379	74.394	
50.00	-83.005	105.792	
51.00	-82.101	156.634	
52.00	-83.623	167.700	
53.00	-86.485	-141.139	
54.00	-86.957	-57.567	
55.00	-90.817	6.305	
56.00	-90.077	40.875	
57.00	-97.938	-6.169	
58.00	-92.042	51.681	
59.00	-91.412	65.902	
60.00	-88.732	106.426	
61.00	-88.312	113.708	
62.00	-94.764	-158.636	
63.00	-96.595	-117.868	
64.00	-85.408	21.338	
65.00	-90.059	85.684	
66.00	-89.432	82.231	
67.00	-87.916	68.944	
68.00	-83.657	57.960	
69.00	-87.002	58.733	
70.00	-83.727	91.475	
71.00	-80.929	114.840	
72.00	-84.525	162.106	
73.00	-81.583	-92.547	
74.00	-80.774	-92.362	
75.00	-74.931	15.576	
76.00	-72.727	36.076	
77.00	-69.979	86.065	
78.00	-68.376	99.457	
79.00	-66.896	141.652	
80.00	-66.008	-171.946	
81.00	-65.328	-139.795	
82.00	-64.892	-125.724	
83.00	-63.761	-98.216	
84.00	-62.395	-45.091	
85.00	-63.187	27.268	
86.00	-60.988	111.008	
87.00	-60.826	86.716	
88.00	-60.415	152.065	
89.00	-60.166	166.727	
90.00	-60.418	-144.117	
91.00	-59.979	-132.125	
92.00	-60.331	-67.015	
93.00	-59.750	-51.884	
94.00	-59.950	-23.841	
95.00	-59.716	11.845	
96.00	-59.738	31.058	
97.00	-59.544	83.221	
98.00	-60.266	86.194	
99.00	-61.042	130.981	
100.00	-62.127	144.295	
101.00	-63.740	-178.135	
102.00	-65.598	-152.067	
103.00	-68.960	-116.676	
104.00	-71.569	-100.447	
105.00	-77.110	-101.824	
106.00	-79.176	-114.702	
107.00	-74.491	-128.387	
108.00	-70.693	-104.540	
109.00	-68.508	-41.834	
110.00	-65.962	-37.720	
111.00	-65.227	6.958	
112.00	-64.094	69.342	
113.00	-64.873	87.372	
114.00	-66.275	119.989	
115.00	-67.896	157.740	
116.00	-71.257	164.698	
117.00	-78.643	-142.699	
118.00	-83.971	41.257	
119.00	-73.038	98.256	
120.00	-68.428	111.764	
121.00	-65.478	133.466	
122.00	-63.634	157.448	
123.00	-62.815	168.225	
124.00	-62.140	-148.366	
125.00	-61.617	-159.490	
126.00	-61.707	-136.924	
127.00	-61.865	-108.778	
128.00	-62.806	-83.803	
129.00	-64.215	-55.406	
130.00	-67.666	-31.350	
131.00	-73.800	11.954	
132.00	-75.907	90.069	
133.00	-72.728	161.900	
134.00	-70.620	-160.582	
135.00	-70.108	-133.695	
136.00	-71.318	-84.208	
137.00	-75.965	-65.623	
138.00	-79.567	-108.720	
139.00	-69.147	-133.342	
140.00	-64.022	-112.310	
141.00	-61.474	-83.809	
142.00	-60.427	-63.504	
143.00	-61.452	-47.450	
144.00	-65.182	-23.363	
145.00	-77.996	-58.037	
146.00	-65.319	-149.847	
147.00	-58.639	-145.962	
148.00	-55.450	-138.991	
149.00	-53.800	-80.713	
150.00	-53.356	-80.906	
151.00	-54.278	-58.493	
152.00	-56.224	-45.436	
153.00	-59.775	-65.102	
154.00	-66.135	-35.983	
155.00	-78.906	-106.905	
156.00	-70.801	-178.283	
157.00	-67.716	163.653	
158.00	-68.694	172.170	
159.00	-72.322	156.201	
160.00	-89.791	107.471	
161.00	-74.985	-39.447	
162.00	-66.063	-8.873	
163.00	-62.340	-14.543	
164.00	-59.434	38.053	
165.00	-58.466	25.225	
166.00	-59.184	53.910	
167.00	-61.479	4.373	
168.00	-63.649	-4.736	
169.00	-62.836	-31.574	
170.00	-60.482	-88.877	
171.00	-60.468	-79.221	
172.00	-62.331	176.590	
173.00	-56.045	127.026	
174.00	-50.043	108.171	
175.00	-45.817	114.590	
176.00	-42.516	173.173	
177.00	-40.553	159.243	
178.00	-39.330	-179.818	
179.00	-38.809	170.939	
180.00	-38.926	177.957	
181.00	-39.694	147.541	
182.00	-41.085	169.068	
183.00	-43.289	156.370	
184.00	-46.395	156.489	
185.00	-50.773	147.876	
186.00	-58.300	142.509	
187.00	-74.545	-169.999	
188.00	-66.546	-109.102	
189.00	-60.176	-57.554	
190.00	-59.005	-58.727	
191.00	-60.213	-32.936	
192.00	-62.405	-20.907	
193.00	-61.143	18.455	
194.00	-58.175	38.279	
195.00	-56.437	37.615	
196.00	-56.222	38.140	
197.00	-57.819	46.941	
198.00	-61.721	48.712	
199.00	-71.640	30.465	
200.00	-70.240	-137.138	
201.00	-63.626	-146.614	
202.00	-62.638	-160.747	
203.00	-65.060	-174.755	
204.00	-73.758	-179.559	
205.00	-71.893	-3.457	
206.00	-63.328	-23.083	
207.00	-60.470	-18.420	
208.00	-59.655	-46.504	
209.00	-60.313	-41.651	
210.00	-63.063	-75.767	
211.00	-67.692	-96.385	
212.00	-70.299	-161.629	
213.00	-64.309	150.307	
214.00	-60.584	120.572	
215.00	-58.315	106.210	
216.00	-57.131	85.765	
217.00	-56.764	45.612	
218.00	-57.025	24.767	
219.00	-58.052	4.976	
220.00	-60.553	-5.442	
221.00	-64.066	-29.663	
222.00	-71.076	-25.485	
223.00	-79.198	54.444	
224.00	-71.149	87.333	
225.00	-67.412	73.348	
226.00	-65.730	86.692	
227.00	-65.691	49.464	
228.00	-65.786	58.874	
229.00	-66.773	60.456	
230.00	-68.086	48.919	
231.00	-68.599	62.335	
232.00	-68.418	60.370	
233.00	-67.567	70.777	
234.00	-66.961	58.485	
235.00	-66.206	52.347	
236.00	-66.661	29.608	
237.00	-67.529	5.403	
238.00	-68.437	-12.125	
239.00	-70.941	-40.235	
240.00	-73.243	-80.302	
241.00	-75.640	-129.023	
242.00	-74.438	-179.019	
243.00	-74.536	166.199	
244.00	-72.635	106.085	
245.00	-72.308	107.677	
246.00	-72.065	65.012	
247.00	-72.047	68.517	
248.00	-73.102	49.551	
249.00	-73.412	31.712	
250.00	-73.409	15.541	
251.00	-73.321	2.553	
252.00	-75.298	-9.041	
253.00	-75.321	-28.828	
254.00	-75.047	-48.660	
255.00	-73.853	-83.481	
256.00	-75.813	-112.125	
257.00	-73.128	-141.233	
258.00	-72.649	-173.256	
259.00	-72.290	162.249	
260.00	-70.716	134.189	
261.00	-70.776	98.558	
262.00	-71.136	79.811	
263.00	-72.578	47.084	
264.00	-72.394	27.628	
265.00	-73.206	-4.660	
266.00	-74.471	-50.514	
267.00	-75.547	-88.962	
268.00	-75.422	-132.116	
269.00	-74.003	-171.442	
270.00	-72.944	145.465	
271.00	-74.110	86.023	
272.00	-73.755	67.983	
273.00	-73.721	26.391	
274.00	-74.768	0.851	
275.00	-76.138	-35.687	
276.00	-74.960	-76.528	
277.00	-77.732	-109.604	
278.00	-78.590	179.956	
279.00	-78.457	143.535	
280.00	-79.355	106.810	
281.00	-77.054	88.315	
282.00	-78.354	39.552	
283.00	-80.074	-4.551	
284.00	-81.804	-43.958	
285.00	-82.293	-94.652	
286.00	-84.118	-140.113	
287.00	-86.604	-158.689	
288.00	-90.125	141.785	
289.00	-87.493	40.534	
290.00	-111.712	141.314	
291.00	-100.015	-8.471	
292.00	-96.343	1.566	
293.00	-97.187	-114.859	
294.00	-92.882	-65.088	
295.00	-86.733	-90.992	
296.00	-85.811	-127.369	
297.00	-83.663	-139.323	
298.00	-82.766	-163.368	
299.00	-91.905	146.494	
300.00	-91.445	156.952	
301.00	-92.250	75.006	
302.00	-88.833	-21.628	
303.00	-88.302	-46.476	
304.00	-104.527	-66.949	
305.00	-90.274	-84.474	
306.00	-86.494	-93.830	
307.00	-85.110	-111.820	
308.00	-83.979	-150.045	
309.00	-84.835	-172.075	
310.00	-89.063	131.991	
311.00	-89.438	63.639	
312.00	-94.049	-16.325	
313.00	-92.086	-150.125	
314.00	-86.097	-175.361	
315.00	-87.669	179.112	
316.00	-85.555	-129.820	
317.00	-90.440	-178.328	
318.00	-89.204	152.600	
319.00	-90.622	124.083	
320.00	-87.671	-132.493	
321.00	-81.591	-134.741	
322.00	-80.403	176.138	
323.00	-82.586	162.338	
324.00	-86.920	120.868	
325.00	-87.520	-141.897	
326.00	-79.291	-178.780	
327.00	-77.936	161.491	
328.00	-77.435	143.776	
329.00	-79.286	128.363	
330.00	-84.030	117.561	
331.00	-88.527	86.962	
332.00	-91.950	-169.306	
333.00	-87.305	-112.815	
334.00	-84.569	-138.189	
335.00	-83.633	-173.448	
336.00	-85.835	132.786	
337.00	-88.474	116.706	
338.00	-96.089	149.519	
339.00	-90.339	144.658	
340.00	-87.716	-177.015	
341.00	-81.429	153.811	
342.00	-82.306	129.297	
343.00	-81.683	92.052	
344.00	-82.288	116.217	
345.00	-90.457	66.281	
346.00	-89.050	-170.101	
347.00	-82.861	167.547	
348.00	-83.757	166.040	
349.00	-82.234	154.917	
350.00	-81.454	164.872	
351.00	-82.114	132.325	
352.00	-81.922	111.560	
353.00	-83.121	113.556	
354.00	-94.830	169.358	
355.00	-108.214	43.261	
356.00	-90.610	-174.772	
357.00	-83.648	-162.635	
358.00	-83.456	137.056	
359.00	-87.676	128.482	
Frequency	4000.00	MHz	
Channel	test		
Scan Axis name	Azimuth  [deg]		
Scan Axis	Amplitude	Phase	
			
0.00	-89.231	-147.144	
1.00	-91.026	121.874	
2.00	-91.326	22.752	
3.00	-82.109	-29.305	
4.00	-83.672	5.272	
5.00	-83.215	-2.724	
6.00	-89.599	19.655	
7.00	-88.576	45.768	
8.00	-85.603	68.270	
9.00	-91.697	126.585	
10.00	-88.738	-115.942	
11.00	-89.298	-96.720	
12.00	-86.334	-71.042	
13.00	-83.922	-40.234	
14.00	-81.836	-25.395	
15.00	-81.250	-16.489	
16.00	-84.430	36.943	
17.00	-86.090	59.120	
18.00	-87.395	32.663	
19.00	-88.105	42.735	
20.00	-89.051	2.291	
21.00	-82.756	-63.447	
22.00	-79.078	-39.565	
23.00	-80.505	-47.402	
24.00	-80.837	-48.422	
25.00	-84.972	-110.915	
26.00	-92.140	-100.293	
27.00	-93.952	179.441	
28.00	-91.247	-150.337	
29.00	-85.431	-148.094	
30.00	-82.331	-90.184	
31.00	-79.737	-55.919	
32.00	-82.385	-36.110	
33.00	-83.824	-78.262	
34.00	-81.972	-107.170	
35.00	-81.207	-91.256	
36.00	-81.524	-72.918	
37.00	-83.411	-87.322	
38.00	-78.886	-50.187	
39.00	-81.114	-16.925	
40.00	-82.302	32.606	
41.00	-80.949	126.251	
42.00	-84.000	-167.013	
43.00	-84.660	-138.556	
44.00	-83.695	-89.353	
45.00	-93.070	-77.183	
46.00	-92.312	-36.703	
47.00	-87.250	-14.876	
48.00	-84.174	22.747	
49.00	-84.928	40.617	
50.00	-88.313	162.461	
51.00	-83.355	-133.492	
52.00	-83.303	-79.968	
53.00	-79.681	-28.293	
54.00	-78.690	10.858	
55.00	-81.120	57.480	
56.00	-84.506	69.535	
57.00	-89.187	14.706	
58.00	-93.387	30.310	
59.00	-93.981	39.724	
60.00	-87.258	4.252	
61.00	-91.087	2.583	
62.00	-90.796	19.265	
63.00	-85.741	66.261	
64.00	-84.905	102.660	
65.00	-89.977	29.033	
66.00	-88.358	-25.052	
67.00	-86.080	31.959	
68.00	-85.098	57.774	
69.00	-81.740	86.409	
70.00	-81.050	147.298	
71.00	-83.316	-164.217	
72.00	-80.347	-99.466	
73.00	-74.777	-24.287	
74.00	-72.645	-13.645	
75.00	-70.112	65.097	
76.00	-69.717	88.489	
77.00	-67.968	152.846	
78.00	-66.783	173.671	
79.00	-65.747	-137.184	
80.00	-64.276	-89.818	
81.00	-63.043	-56.502	
82.00	-62.702	-41.618	
83.00	-61.348	-14.233	
84.00	-60.391	37.272	
85.00	-61.908	114.367	
86.00	-59.366	-163.154	
87.00	-59.394	175.249	
88.00	-58.980	-116.277	
89.00	-58.612	-100.017	
90.00	-58.314	-44.940	
91.00	-57.700	-34.690	
92.00	-57.699	31.740	
93.00	-56.979	43.994	
94.00	-57.031	71.912	
95.00	-56.817	107.838	
96.00	-57.169	127.613	
97.00	-57.075	-178.376	
98.00	-57.711	-171.684	
99.00	-58.364	-121.062	
100.00	-58.988	-107.549	
101.00	-59.993	-60.018	
102.00	-60.389	-25.436	
103.00	-61.635	17.672	
104.00	-62.615	40.657	
105.00	-64.882	62.059	
106.00	-66.770	94.416	
107.00	-72.567	114.632	
108.00	-83.214	109.172	
109.00	-75.275	57.968	
110.00	-69.981	50.897	
111.00	-66.969	102.462	
112.00	-65.952	173.624	
113.00	-66.293	-167.955	
114.00	-66.080	-123.812	
115.00	-65.653	-85.652	
116.00	-66.792	-68.910	
117.00	-67.268	-26.475	
118.00	-69.767	-7.793	
119.00	-74.077	60.205	
120.00	-77.207	89.929	
121.00	-78.802	173.084	
122.00	-74.883	-122.636	
123.00	-70.623	-105.329	
124.00	-66.877	-57.218	
125.00	-64.366	-64.487	
126.00	-62.380	-35.193	
127.00	-61.198	-4.458	
128.00	-61.096	25.572	
129.00	-62.416	54.777	
130.00	-65.128	81.251	
131.00	-70.280	120.230	
132.00	-79.991	-167.854	
133.00	-73.279	-38.374	
134.00	-68.636	6.963	
135.00	-66.636	33.039	
136.00	-67.199	84.936	
137.00	-73.736	120.611	
138.00	-77.613	-59.001	
139.00	-65.729	-8.812	
140.00	-61.130	20.983	
141.00	-59.339	53.909	
142.00	-59.290	75.972	
143.00	-61.227	93.452	
144.00	-66.659	111.697	
145.00	-75.715	34.313	
146.00	-63.518	-4.085	
147.00	-58.769	-4.298	
148.00	-56.416	-2.035	
149.00	-55.578	47.153	
150.00	-55.356	36.460	
151.00	-55.595	49.595	
152.00	-56.069	51.333	
153.00	-57.270	29.217	
154.00	-59.452	57.423	
155.00	-64.615	54.475	
156.00	-76.116	130.690	
157.00	-68.458	-136.105	
158.00	-64.097	-107.215	
159.00	-64.297	-101.888	
160.00	-67.817	-96.409	
161.00	-75.959	-58.693	
162.00	-66.886	68.840	
163.00	-61.610	90.053	
164.00	-58.099	147.631	
165.00	-57.297	140.078	
166.00	-58.499	176.473	
167.00	-61.557	123.868	
168.00	-64.396	105.478	
169.00	-61.064	77.276	
170.00	-58.263	30.158	
171.00	-59.498	46.149	
172.00	-64.497	-60.305	
173.00	-55.984	-121.156	
174.00	-49.377	-137.534	
175.00	-45.149	-125.797	
176.00	-41.822	-67.624	
177.00	-39.971	-80.867	
178.00	-38.868	-60.499	
179.00	-38.458	-69.752	
180.00	-38.643	-64.108	
181.00	-39.436	-95.292	
182.00	-40.721	-73.178	
183.00	-42.789	-86.318	
184.00	-45.822	-83.314	
185.00	-50.273	-88.266	
186.00	-58.530	-78.632	
187.00	-64.655	2.081	
188.00	-60.283	10.631	
189.00	-56.709	67.984	
190.00	-56.882	76.481	
191.00	-59.238	108.928	
192.00	-61.267	126.404	
193.00	-60.627	155.829	
194.00	-59.018	167.777	
195.00	-58.420	162.844	
196.00	-59.579	158.333	
197.00	-62.059	153.501	
198.00	-66.452	128.377	
199.00	-69.390	71.318	
200.00	-69.434	12.727	
201.00	-67.441	-31.705	
202.00	-67.768	-65.677	
203.00	-67.922	-110.967	
204.00	-69.345	-143.889	
205.00	-69.969	160.106	
206.00	-66.503	96.977	
207.00	-63.554	79.604	
208.00	-61.645	39.722	
209.00	-61.065	42.083	
210.00	-62.549	6.314	
211.00	-65.829	-5.296	
212.00	-67.614	-59.224	
213.00	-62.723	-109.350	
214.00	-58.958	-135.585	
215.00	-56.411	-146.691	
216.00	-55.413	-165.960	
217.00	-55.199	158.985	
218.00	-56.228	142.167	
219.00	-57.936	127.614	
220.00	-60.883	125.593	
221.00	-64.957	116.119	
222.00	-67.528	151.183	
223.00	-66.145	179.602	
224.00	-64.226	-169.483	
225.00	-63.451	175.172	
226.00	-64.026	-163.294	
227.00	-66.473	156.073	
228.00	-69.930	162.963	
229.00	-74.976	162.116	
230.00	-84.820	159.921	
231.00	-84.055	-104.371	
232.00	-79.399	-138.667	
233.00	-77.158	-142.113	
234.00	-78.073	179.661	
235.00	-75.983	137.213	
236.00	-73.478	94.764	
237.00	-69.818	61.927	
238.00	-68.291	38.805	
239.00	-67.216	9.969	
240.00	-66.796	-16.645	
241.00	-67.440	-43.769	
242.00	-68.332	-67.872	
243.00	-68.645	-65.377	
244.00	-69.704	-125.455	
245.00	-71.710	-116.280	
246.00	-72.729	-162.390	
247.00	-73.569	-156.005	
248.00	-73.893	-171.802	
249.00	-74.788	175.150	
250.00	-73.137	146.344	
251.00	-71.910	136.734	
252.00	-70.321	115.296	
253.00	-69.352	97.150	
254.00	-68.065	78.823	
255.00	-67.831	50.962	
256.00	-67.531	26.531	
257.00	-67.526	12.545	
258.00	-68.207	-16.502	
259.00	-69.318	-43.877	
260.00	-70.607	-72.107	
261.00	-71.439	-114.294	
262.00	-71.780	-147.538	
263.00	-71.135	165.407	
264.00	-71.748	130.363	
265.00	-71.682	105.012	
266.00	-71.000	69.422	
267.00	-70.952	37.256	
268.00	-72.489	10.398	
269.00	-72.694	-32.546	
270.00	-74.134	-67.095	
271.00	-77.052	-136.189	
272.00	-76.801	-177.982	
273.00	-77.318	128.784	
274.00	-76.197	93.421	
275.00	-75.071	55.937	
276.00	-74.835	24.061	
277.00	-75.542	-6.880	
278.00	-75.033	-56.777	
279.00	-76.382	-91.726	
280.00	-79.734	-131.612	
281.00	-83.094	-167.119	
282.00	-83.121	135.534	
283.00	-80.936	72.400	
284.00	-78.799	33.297	
285.00	-77.782	-5.235	
286.00	-79.616	-35.047	
287.00	-82.380	-44.976	
288.00	-83.868	-85.187	
289.00	-88.819	-77.432	
290.00	-91.751	-28.927	
291.00	-86.265	-59.916	
292.00	-95.390	-52.496	
293.00	-93.161	-123.074	
294.00	-92.972	142.804	
295.00	-83.408	114.264	
296.00	-80.245	73.797	
297.00	-79.806	56.473	
298.00	-81.235	24.498	
299.00	-80.603	4.700	
300.00	-86.448	-28.156	
301.00	-88.970	-56.440	
302.00	-85.729	18.191	
303.00	-85.497	29.865	
304.00	-83.706	45.069	
305.00	-85.203	35.001	
306.00	-82.105	11.340	
307.00	-81.068	-27.990	
308.00	-79.918	-84.796	
309.00	-79.105	-92.585	
310.00	-80.343	-132.727	
311.00	-83.107	173.650	
312.00	-81.108	81.069	
313.00	-83.979	29.088	
314.00	-88.562	2.678	
315.00	-103.837	-42.558	
316.00	-97.366	-41.060	
317.00	-90.941	-18.799	
318.00	-87.686	-73.903	
319.00	-84.585	-34.348	
320.00	-84.725	-99.883	
321.00	-89.541	-137.862	
322.00	-87.592	179.601	
323.00	-88.157	-164.352	
324.00	-87.348	31.007	
325.00	-99.285	-43.506	
326.00	-85.180	-84.099	
327.00	-86.309	-137.069	
328.00	-84.432	-143.597	
329.00	-87.251	162.117	
330.00	-93.076	-165.789	
331.00	-87.930	-124.174	
332.00	-84.018	-105.591	
333.00	-84.379	-101.625	
334.00	-84.128	-93.714	
335.00	-80.967	-139.451	
336.00	-87.882	174.374	
337.00	-93.791	-161.569	
338.00	-97.263	-84.126	
339.00	-103.317	-32.224	
340.00	-90.706	148.424	
341.00	-87.841	107.451	
342.00	-94.717	135.489	
343.00	-93.419	118.183	
344.00	-90.794	121.820	
345.00	-89.194	166.777	
346.00	-86.011	-170.152	
347.00	-93.477	140.537	
348.00	-91.597	151.506	
349.00	-93.390	-162.325	
350.00	-84.448	-132.987	
351.00	-88.567	170.554	
352.00	-86.860	114.211	
353.00	-88.008	82.568	
354.00	-88.178	40.739	
355.00	-89.914	35.630	
356.00	-84.152	-11.296	
357.00	-82.652	-16.688	
358.00	-89.173	-156.295	
359.00	-89.020	147.164	
Frequency	4050.00	MHz	
Channel	test		
Scan Axis name	Azimuth  [deg]		
Scan Axis	Amplitude	Phase	
			
0.00	-88.853	3.480	
1.00	-89.808	42.394	
2.00	-91.106	-135.924	
3.00	-86.864	163.526	
4.00	-94.317	-13.087	
5.00	-87.175	107.237	
6.00	-85.360	141.315	
7.00	-91.081	-168.896	
8.00	-101.787	179.666	
9.00	-92.389	-168.141	
10.00	-92.009	-135.761	
11.00	-87.493	-0.617	
12.00	-81.667	-25.891	
13.00	-80.084	-46.681	
14.00	-80.546	-50.229	
15.00	-82.833	-64.547	
16.00	-81.821	-98.007	
17.00	-81.744	-96.558	
18.00	-84.575	-110.911	
19.00	-82.349	-84.855	
20.00	-87.008	-105.742	
21.00	-85.741	-75.664	
22.00	-88.747	5.542	
23.00	-86.102	20.117	
24.00	-89.258	-52.375	
25.00	-80.978	-99.315	
26.00	-80.477	-98.400	
27.00	-78.333	-114.877	
28.00	-78.300	-119.529	
29.00	-76.972	-116.634	
30.00	-80.710	-86.347	
31.00	-85.878	-44.137	
32.00	-89.247	-49.295	
33.00	-86.992	-76.862	
34.00	-83.649	-103.359	
35.00	-80.085	-65.521	
36.00	-83.636	-38.333	
37.00	-81.259	-61.528	
38.00	-86.613	-67.379	
39.00	-94.738	4.287	
40.00	-82.107	165.071	
41.00	-77.351	-166.438	
42.00	-76.093	-123.894	
43.00	-79.766	-106.032	
44.00	-88.363	-59.479	
45.00	-89.634	120.973	
46.00	-84.947	-161.182	
47.00	-86.031	170.377	
48.00	-84.555	169.257	
49.00	-82.410	-179.707	
50.00	-79.328	-149.513	
51.00	-84.528	-100.144	
52.00	-83.557	-53.096	
53.00	-88.878	90.866	
54.00	-79.889	126.195	
55.00	-77.604	174.204	
56.00	-80.589	-171.823	
57.00	-83.697	-155.998	
58.00	-86.534	177.368	
59.00	-90.990	-159.412	
60.00	-102.368	88.949	
61.00	-88.556	-157.345	
62.00	-85.213	169.651	
63.00	-85.262	-176.626	
64.00	-83.950	-135.666	
65.00	-82.206	-72.656	
66.00	-83.290	-31.390	
67.00	-80.441	51.851	
68.00	-79.250	117.344	
69.00	-78.279	162.604	
70.00	-78.745	-163.086	
71.00	-79.132	-118.227	
72.00	-78.598	-35.702	
73.00	-76.293	65.733	
74.00	-72.608	74.528	
75.00	-68.991	164.050	
76.00	-66.920	175.518	
77.00	-65.805	-118.702	
78.00	-64.428	-104.964	
79.00	-63.904	-55.847	
80.00	-62.744	-5.446	
81.00	-61.591	28.093	
82.00	-60.979	41.341	
83.00	-60.096	73.153	
84.00	-59.268	123.425	
85.00	-60.682	-155.067	
86.00	-58.430	-72.765	
87.00	-58.016	-94.429	
88.00	-57.542	-22.718	
89.00	-57.113	-7.294	
90.00	-56.912	47.692	
91.00	-56.383	56.380	
92.00	-56.378	124.615	
93.00	-55.532	136.094	
94.00	-55.878	166.940	
95.00	-55.346	-157.177	
96.00	-55.733	-134.638	
97.00	-55.376	-79.710	
98.00	-55.724	-73.208	
99.00	-56.097	-20.947	
100.00	-56.324	-7.077	
101.00	-56.934	42.792	
102.00	-57.175	73.656	
103.00	-57.770	119.152	
104.00	-58.245	140.583	
105.00	-59.316	166.160	
106.00	-60.537	-160.124	
107.00	-63.034	-132.277	
108.00	-66.410	-89.100	
109.00	-71.219	1.143	
110.00	-73.401	53.537	
111.00	-73.690	155.071	
112.00	-69.990	-115.212	
113.00	-69.829	-84.634	
114.00	-68.521	-27.109	
115.00	-66.888	13.185	
116.00	-66.552	29.069	
117.00	-66.252	71.184	
118.00	-67.274	91.590	
119.00	-69.964	142.497	
120.00	-73.260	152.519	
121.00	-81.577	137.968	
122.00	-83.892	46.195	
123.00	-75.203	53.009	
124.00	-69.599	88.468	
125.00	-66.264	72.719	
126.00	-63.997	95.826	
127.00	-62.500	122.384	
128.00	-62.385	146.642	
129.00	-63.741	173.260	
130.00	-66.036	-164.998	
131.00	-70.984	-140.604	
132.00	-80.850	178.922	
133.00	-72.702	141.500	
134.00	-66.389	152.880	
135.00	-64.679	168.959	
136.00	-65.818	-144.391	
137.00	-70.682	-98.766	
138.00	-74.402	51.056	
139.00	-64.822	106.484	
140.00	-60.295	140.394	
141.00	-59.058	173.287	
142.00	-59.702	-163.763	
143.00	-62.610	-147.261	
144.00	-69.106	-143.371	
145.00	-67.958	130.194	
146.00	-60.620	127.679	
147.00	-57.635	125.586	
148.00	-56.808	126.037	
149.00	-56.444	172.540	
150.00	-56.468	152.475	
151.00	-55.880	161.501	
152.00	-55.276	160.755	
153.00	-55.526	143.967	
154.00	-57.014	179.104	
155.00	-60.287	-179.576	
156.00	-66.320	-109.970	
157.00	-66.758	-43.244	
158.00	-62.909	9.094	
159.00	-62.411	25.644	
160.00	-64.116	28.373	
161.00	-69.990	64.005	
162.00	-65.611	-176.943	
163.00	-61.756	-146.492	
164.00	-59.181	-84.360	
165.00	-59.040	-89.055	
166.00	-61.064	-59.472	
167.00	-63.680	-126.340	
168.00	-62.768	-138.240	
169.00	-60.561	-147.629	
170.00	-59.646	171.367	
171.00	-62.945	-175.138	
172.00	-68.980	33.113	
173.00	-56.038	-7.505	
174.00	-49.697	-20.384	
175.00	-45.783	-4.487	
176.00	-42.524	53.335	
177.00	-40.679	40.068	
178.00	-39.491	59.346	
179.00	-39.004	51.059	
180.00	-39.063	55.838	
181.00	-39.719	26.040	
182.00	-40.929	49.949	
183.00	-43.040	37.497	
184.00	-46.176	43.737	
185.00	-50.692	40.001	
186.00	-59.243	52.971	
187.00	-64.690	129.274	
188.00	-61.140	139.551	
189.00	-58.009	-162.297	
190.00	-58.653	-152.840	
191.00	-62.145	-121.216	
192.00	-65.406	-99.248	
193.00	-64.820	-66.721	
194.00	-63.495	-57.930	
195.00	-63.280	-74.724	
196.00	-63.204	-89.753	
197.00	-63.380	-98.548	
198.00	-64.226	-105.303	
199.00	-68.309	-115.939	
200.00	-78.372	-60.756	
201.00	-69.776	23.511	
202.00	-64.852	14.850	
203.00	-64.108	11.612	
204.00	-66.665	14.902	
205.00	-81.559	34.399	
206.00	-68.227	152.907	
207.00	-62.120	169.421	
208.00	-59.564	148.127	
209.00	-60.176	165.221	
210.00	-63.215	143.597	
211.00	-77.279	139.878	
212.00	-65.135	-6.013	
213.00	-58.555	-14.046	
214.00	-55.499	-26.474	
215.00	-54.090	-28.299	
216.00	-54.075	-41.783	
217.00	-54.861	-72.077	
218.00	-56.750	-84.098	
219.00	-59.795	-94.297	
220.00	-64.239	-90.317	
221.00	-68.103	-73.221	
222.00	-68.654	-42.993	
223.00	-67.030	-38.965	
224.00	-67.368	-43.299	
225.00	-68.388	-72.233	
226.00	-71.812	-66.361	
227.00	-77.024	-143.316	
228.00	-74.096	161.610	
229.00	-71.842	131.425	
230.00	-70.320	93.863	
231.00	-71.505	85.877	
232.00	-75.097	74.414	
233.00	-84.023	134.031	
234.00	-76.535	-167.180	
235.00	-71.504	-167.358	
236.00	-67.729	170.696	
237.00	-66.219	149.363	
238.00	-65.692	129.738	
239.00	-65.219	103.849	
240.00	-65.223	75.850	
241.00	-66.100	54.307	
242.00	-67.301	42.282	
243.00	-69.032	47.824	
244.00	-71.396	10.084	
245.00	-73.448	33.047	
246.00	-73.184	12.409	
247.00	-71.897	33.244	
248.00	-70.454	11.058	
249.00	-69.220	-4.947	
250.00	-68.577	-41.193	
251.00	-67.390	-64.869	
252.00	-67.215	-90.639	
253.00	-66.349	-118.470	
254.00	-65.954	-144.247	
255.00	-65.663	-174.357	
256.00	-65.718	152.082	
257.00	-65.469	136.775	
258.00	-65.957	102.112	
259.00	-66.331	73.591	
260.00	-67.397	44.154	
261.00	-68.288	1.042	
262.00	-69.665	-18.598	
263.00	-70.324	-64.253	
264.00	-71.643	-97.771	
265.00	-72.634	-134.674	
266.00	-72.130	-178.323	
267.00	-72.627	138.182	
268.00	-72.384	104.624	
269.00	-73.228	60.573	
270.00	-74.294	34.217	
271.00	-74.002	-28.696	
272.00	-75.402	-60.768	
273.00	-76.375	-109.344	
274.00	-76.136	-145.124	
275.00	-75.037	163.380	
276.00	-75.523	128.552	
277.00	-75.884	84.784	
278.00	-75.373	19.590	
279.00	-75.555	-15.178	
280.00	-75.696	-48.559	
281.00	-76.894	-63.783	
282.00	-78.135	-103.182	
283.00	-78.817	-147.666	
284.00	-82.719	165.881	
285.00	-81.440	108.808	
286.00	-80.619	59.709	
287.00	-79.785	18.846	
288.00	-83.564	-31.688	
289.00	-85.956	-88.504	
290.00	-89.288	-131.227	
291.00	-95.568	15.226	
292.00	-91.705	2.276	
293.00	-85.548	0.962	
294.00	-86.626	-78.540	
295.00	-82.086	-108.864	
296.00	-80.771	-152.189	
297.00	-81.482	-174.468	
298.00	-83.412	120.092	
299.00	-84.851	131.917	
300.00	-97.431	-24.857	
301.00	-89.185	-73.479	
302.00	-83.107	-118.277	
303.00	-88.096	-144.160	
304.00	-85.564	172.294	
305.00	-85.244	135.104	
306.00	-88.944	130.160	
307.00	-104.141	106.257	
308.00	-93.554	-14.225	
309.00	-89.950	-44.305	
310.00	-80.278	-81.698	
311.00	-79.384	-113.624	
312.00	-77.685	-155.540	
313.00	-76.255	171.761	
314.00	-78.375	138.828	
315.00	-81.985	100.782	
316.00	-90.050	100.769	
317.00	-99.795	173.565	
318.00	-90.486	-122.145	
319.00	-84.592	-45.295	
320.00	-85.589	-84.688	
321.00	-80.240	-102.797	
322.00	-78.578	-124.167	
323.00	-83.492	-123.396	
324.00	-89.229	163.182	
325.00	-95.671	104.984	
326.00	-93.234	115.633	
327.00	-94.417	-98.199	
328.00	-86.871	-110.360	
329.00	-85.936	-76.969	
330.00	-83.772	-70.311	
331.00	-85.147	-105.438	
332.00	-83.350	-115.806	
333.00	-85.700	-134.471	
334.00	-89.067	-100.421	
335.00	-85.590	-111.648	
336.00	-90.943	-156.279	
337.00	-90.856	-147.271	
338.00	-90.508	-129.943	
339.00	-90.710	-155.080	
340.00	-93.459	-145.279	
341.00	-85.639	175.559	
342.00	-85.941	173.370	
343.00	-92.755	132.902	
344.00	-105.501	-75.330	
345.00	-91.683	-92.250	
346.00	-85.170	-117.434	
347.00	-90.871	-169.692	
348.00	-94.163	-69.952	
349.00	-92.105	-16.944	
350.00	-85.023	-22.707	
351.00	-83.014	-80.210	
352.00	-86.862	-92.941	
353.00	-86.335	-110.924	
354.00	-89.121	-122.736	
355.00	-92.975	-84.826	
356.00	-90.051	44.966	
357.00	-91.900	85.939	
358.00	-98.004	33.749	
359.00	-92.716	26.728	
Frequency	4100.00	MHz	
Channel	test		
Scan Axis name	Azimuth  [deg]		
Scan Axis	Amplitude	Phase	
			
0.00	-85.356	102.670	
1.00	-80.279	105.001	
2.00	-82.819	106.741	
3.00	-79.900	75.650	
4.00	-82.388	84.428	
5.00	-85.827	103.561	
6.00	-84.636	144.628	
7.00	-83.568	148.192	
8.00	-88.091	155.432	
9.00	-91.891	170.619	
10.00	-94.007	122.585	
11.00	-91.160	103.176	
12.00	-84.169	60.018	
13.00	-81.720	48.343	
14.00	-80.930	47.431	
15.00	-93.800	33.627	
16.00	-88.880	-81.766	
17.00	-84.177	-18.938	
18.00	-85.757	-55.933	
19.00	-82.680	-39.287	
20.00	-86.975	-61.943	
21.00	-88.435	-85.605	
22.00	-99.601	-79.104	
23.00	-96.145	130.556	
24.00	-88.164	165.741	
25.00	-90.829	-111.114	
26.00	-84.368	-70.748	
27.00	-80.715	-77.687	
28.00	-78.468	-65.016	
29.00	-78.825	-45.957	
30.00	-78.162	-29.383	
31.00	-81.471	-2.312	
32.00	-93.546	-19.923	
33.00	-88.719	-47.268	
34.00	-89.224	-32.812	
35.00	-83.384	7.973	
36.00	-91.720	50.658	
37.00	-91.497	-43.090	
38.00	-93.024	104.851	
39.00	-88.649	176.879	
40.00	-81.516	-170.074	
41.00	-82.121	-114.861	
42.00	-88.234	-38.539	
43.00	-91.087	21.806	
44.00	-82.496	123.786	
45.00	-80.852	146.743	
46.00	-83.203	169.742	
47.00	-93.573	133.482	
48.00	-82.891	145.035	
49.00	-86.138	137.116	
50.00	-87.367	124.290	
51.00	-83.406	83.548	
52.00	-78.047	103.271	
53.00	-76.991	140.911	
54.00	-78.910	169.446	
55.00	-79.378	-132.180	
56.00	-85.133	-112.404	
57.00	-96.668	43.107	
58.00	-90.079	73.227	
59.00	-90.178	115.884	
60.00	-88.314	139.501	
61.00	-93.828	145.209	
62.00	-88.340	122.726	
63.00	-88.992	-10.385	
64.00	-84.234	-3.164	
65.00	-77.489	40.301	
66.00	-77.740	59.821	
67.00	-76.778	113.274	
68.00	-76.234	174.702	
69.00	-78.144	-158.237	
70.00	-80.010	-98.900	
71.00	-80.734	-37.522	
72.00	-78.641	37.323	
73.00	-73.749	119.409	
74.00	-71.865	139.987	
75.00	-70.134	-128.515	
76.00	-68.052	-111.613	
77.00	-66.885	-45.181	
78.00	-65.175	-29.990	
79.00	-64.636	24.661	
80.00	-63.201	70.449	
81.00	-62.423	105.336	
82.00	-62.331	118.605	
83.00	-61.307	154.117	
84.00	-60.594	-156.224	
85.00	-61.832	-65.367	
86.00	-59.552	13.107	
87.00	-59.016	-5.118	
88.00	-58.329	65.161	
89.00	-57.885	81.135	
90.00	-57.447	135.520	
91.00	-56.845	144.646	
92.00	-57.021	-145.361	
93.00	-56.394	-136.207	
94.00	-56.303	-102.611	
95.00	-55.875	-67.685	
96.00	-55.900	-42.862	
97.00	-55.370	9.828	
98.00	-55.576	16.038	
99.00	-55.694	68.344	
100.00	-55.665	80.035	
101.00	-56.109	129.410	
102.00	-55.997	157.125	
103.00	-56.544	-156.292	
104.00	-56.511	-137.609	
105.00	-57.403	-111.771	
106.00	-58.099	-78.424	
107.00	-59.669	-52.352	
108.00	-61.505	-9.103	
109.00	-63.621	67.805	
110.00	-65.550	83.435	
111.00	-70.358	147.167	
112.00	-78.867	-128.004	
113.00	-82.149	19.986	
114.00	-70.888	75.080	
115.00	-67.130	106.044	
116.00	-65.507	119.799	
117.00	-64.854	159.414	
118.00	-65.956	-178.051	
119.00	-68.067	-124.743	
120.00	-72.097	-109.436	
121.00	-84.720	-101.812	
122.00	-77.653	140.968	
123.00	-69.100	156.149	
124.00	-65.930	-158.558	
125.00	-63.795	-170.236	
126.00	-63.835	-139.163	
127.00	-63.772	-113.606	
128.00	-65.505	-88.191	
129.00	-68.433	-60.892	
130.00	-72.251	-47.341	
131.00	-74.912	-53.442	
132.00	-74.088	-86.423	
133.00	-71.557	-71.856	
134.00	-70.443	-78.834	
135.00	-70.647	-75.366	
136.00	-74.004	-57.328	
137.00	-77.016	-63.560	
138.00	-75.270	-92.100	
139.00	-69.709	-101.326	
140.00	-66.673	-91.591	
141.00	-64.910	-75.083	
142.00	-64.584	-66.788	
143.00	-65.113	-61.858	
144.00	-64.758	-57.041	
145.00	-64.607	-73.189	
146.00	-64.369	-84.547	
147.00	-63.104	-111.934	
148.00	-60.420	-128.723	
149.00	-57.700	-89.292	
150.00	-55.332	-104.751	
151.00	-54.401	-81.860	
152.00	-53.996	-78.118	
153.00	-54.881	-92.437	
154.00	-57.175	-59.599	
155.00	-61.968	-63.309	
156.00	-72.147	-11.041	
157.00	-72.292	100.149	
158.00	-66.231	143.698	
159.00	-65.977	147.386	
160.00	-70.590	131.127	
161.00	-92.373	82.045	
162.00	-69.218	-19.440	
163.00	-64.066	-9.542	
164.00	-61.298	40.017	
165.00	-60.702	25.850	
166.00	-61.370	49.966	
167.00	-62.493	-10.887	
168.00	-62.857	-8.861	
169.00	-61.856	-24.380	
170.00	-60.442	-74.735	
171.00	-62.122	-60.579	
172.00	-68.982	175.813	
173.00	-58.364	113.199	
174.00	-51.197	94.054	
175.00	-46.714	111.926	
176.00	-43.158	167.932	
177.00	-41.068	155.019	
178.00	-39.695	174.526	
179.00	-39.049	167.316	
180.00	-39.056	171.310	
181.00	-39.735	141.992	
182.00	-41.076	165.803	
183.00	-43.343	150.304	
184.00	-46.649	153.214	
185.00	-51.554	140.334	
186.00	-60.668	126.654	
187.00	-74.269	-21.796	
188.00	-64.510	-68.123	
189.00	-60.746	-37.999	
190.00	-61.099	-40.982	
191.00	-64.701	-21.151	
192.00	-69.636	1.440	
193.00	-66.330	34.338	
194.00	-62.580	42.165	
195.00	-59.884	33.118	
196.00	-58.795	29.222	
197.00	-59.595	38.477	
198.00	-62.506	44.488	
199.00	-68.099	65.985	
200.00	-69.265	137.374	
201.00	-64.640	160.132	
202.00	-63.258	153.083	
203.00	-65.489	150.348	
204.00	-73.166	167.424	
205.00	-71.512	-71.286	
206.00	-64.440	-78.076	
207.00	-62.298	-61.552	
208.00	-62.582	-84.272	
209.00	-67.395	-69.704	
210.00	-95.752	124.420	
211.00	-65.360	109.628	
212.00	-59.664	112.839	
213.00	-56.929	105.915	
214.00	-56.042	90.779	
215.00	-55.891	87.774	
216.00	-56.690	68.854	
217.00	-57.942	32.868	
218.00	-60.235	14.693	
219.00	-63.726	1.804	
220.00	-68.918	3.482	
221.00	-74.730	17.150	
222.00	-73.968	50.861	
223.00	-72.050	60.391	
224.00	-71.477	54.498	
225.00	-72.902	42.002	
226.00	-74.998	48.412	
227.00	-82.790	49.072	
228.00	-82.867	131.380	
229.00	-74.362	139.612	
230.00	-71.299	113.658	
231.00	-70.466	104.226	
232.00	-71.628	76.113	
233.00	-73.109	68.240	
234.00	-73.100	28.529	
235.00	-75.736	-3.100	
236.00	-75.809	-59.135	
237.00	-74.451	-96.218	
238.00	-72.699	-136.097	
239.00	-72.491	-169.098	
240.00	-72.816	160.560	
241.00	-72.731	139.077	
242.00	-73.750	126.312	
243.00	-76.073	134.109	
244.00	-79.171	123.554	
245.00	-75.890	159.356	
246.00	-72.576	134.232	
247.00	-70.553	147.393	
248.00	-68.667	117.342	
249.00	-67.947	96.103	
250.00	-67.176	65.178	
251.00	-67.015	41.773	
252.00	-66.646	14.386	
253.00	-66.614	-16.438	
254.00	-66.265	-47.050	
255.00	-66.410	-81.403	
256.00	-66.674	-112.524	
257.00	-66.869	-139.390	
258.00	-66.626	-177.722	
259.00	-66.701	159.625	
260.00	-67.268	125.537	
261.00	-67.704	85.007	
262.00	-69.311	62.886	
263.00	-69.822	15.951	
264.00	-71.456	-18.293	
265.00	-71.086	-54.585	
266.00	-71.796	-100.733	
267.00	-70.272	-144.057	
268.00	-70.468	-173.065	
269.00	-69.862	144.200	
270.00	-70.828	110.771	
271.00	-71.445	56.831	
272.00	-72.897	26.703	
273.00	-73.679	-23.220	
274.00	-75.408	-68.453	
275.00	-74.869	-118.475	
276.00	-73.040	-160.906	
277.00	-71.917	160.253	
278.00	-71.422	109.470	
279.00	-72.129	76.884	
280.00	-73.907	43.928	
281.00	-74.792	27.127	
282.00	-77.263	-16.043	
283.00	-78.437	-67.070	
284.00	-78.786	-139.883	
285.00	-80.374	-170.824	
286.00	-79.475	141.009	
287.00	-79.735	115.559	
288.00	-83.964	65.444	
289.00	-87.022	18.617	
290.00	-87.930	-68.311	
291.00	-106.939	60.119	
292.00	-96.071	65.614	
293.00	-85.236	52.481	
294.00	-81.729	-7.449	
295.00	-80.924	-21.854	
296.00	-79.723	-90.194	
297.00	-79.121	-112.090	
298.00	-78.904	-174.494	
299.00	-78.210	165.982	
300.00	-82.058	123.215	
301.00	-85.862	67.018	
302.00	-85.915	-9.328	
303.00	-89.531	-97.268	
304.00	-85.081	-98.424	
305.00	-88.531	-162.189	
306.00	-85.655	163.989	
307.00	-88.582	179.665	
308.00	-87.513	155.061	
309.00	-93.820	151.462	
310.00	-89.077	-130.005	
311.00	-91.825	-124.510	
312.00	-84.245	-109.122	
313.00	-80.005	-145.795	
314.00	-78.768	170.623	
315.00	-78.082	141.903	
316.00	-80.250	143.834	
317.00	-84.435	121.050	
318.00	-89.931	104.277	
319.00	-87.127	148.632	
320.00	-98.433	86.443	
321.00	-105.048	39.854	
322.00	-94.228	-145.759	
323.00	-86.481	-118.272	
324.00	-88.247	168.707	
325.00	-85.159	109.584	
326.00	-82.898	67.766	
327.00	-90.356	31.111	
328.00	-92.324	26.415	
329.00	-99.750	156.816	
330.00	-93.879	-24.816	
331.00	-93.849	77.942	
332.00	-99.744	149.380	
333.00	-85.612	67.904	
334.00	-88.193	71.509	
335.00	-91.739	64.905	
336.00	-92.599	2.236	
337.00	-96.805	-3.534	
338.00	-89.726	-116.966	
339.00	-87.513	-106.060	
340.00	-85.645	-127.240	
341.00	-86.439	-160.929	
342.00	-82.326	-143.059	
343.00	-84.518	170.873	
344.00	-84.392	171.579	
345.00	-86.712	118.924	
346.00	-94.088	157.009	
347.00	-92.441	-15.168	
348.00	-88.975	-35.939	
349.00	-95.021	-15.389	
350.00	-93.483	-37.349	
351.00	-85.877	-93.849	
352.00	-94.086	-136.490	
353.00	-89.403	-179.335	
354.00	-89.576	156.462	
355.00	-85.898	157.097	
356.00	-83.249	101.008	
357.00	-89.328	72.332	
358.00	-87.252	58.693	
359.00	-87.731	32.910	
Frequency	4150.00	MHz	
Channel	test		
Scan Axis name	Azimuth  [deg]		
Scan Axis	Amplitude	Phase	
			
0.00	-88.813	106.900	
1.00	-83.038	106.747	
2.00	-87.286	135.906	
3.00	-88.042	98.525	
4.00	-82.083	81.800	
5.00	-79.345	77.980	
6.00	-89.051	84.348	
7.00	-86.600	58.294	
8.00	-85.386	-4.405	
9.00	-87.472	6.579	
10.00	-103.695	-36.286	
11.00	-91.734	131.520	
12.00	-85.091	83.554	
13.00	-83.767	87.407	
14.00	-85.390	83.000	
15.00	-85.851	64.482	
16.00	-87.649	39.622	
17.00	-79.754	18.840	
18.00	-79.514	15.801	
19.00	-78.333	41.055	
20.00	-78.241	4.621	
21.00	-76.968	12.650	
22.00	-78.609	7.059	
23.00	-82.191	-12.625	
24.00	-86.526	-25.737	
25.00	-83.450	-33.675	
26.00	-84.914	-2.094	
27.00	-82.144	-0.456	
28.00	-81.380	16.235	
29.00	-81.138	11.260	
30.00	-80.343	29.193	
31.00	-83.724	81.395	
32.00	-99.712	165.367	
33.00	-87.012	-31.881	
34.00	-84.361	-17.099	
35.00	-82.312	44.220	
36.00	-88.902	91.240	
37.00	-105.834	-19.657	
38.00	-95.930	-72.730	
39.00	-87.590	-91.217	
40.00	-83.215	-55.712	
41.00	-82.222	2.175	
42.00	-77.901	73.433	
43.00	-78.992	94.501	
44.00	-79.884	133.129	
45.00	-87.302	156.871	
46.00	-84.233	-25.734	
47.00	-89.131	25.035	
48.00	-88.053	77.409	
49.00	-86.267	76.928	
50.00	-83.407	93.364	
51.00	-80.938	115.049	
52.00	-80.773	147.398	
53.00	-80.462	-167.244	
54.00	-82.994	-115.064	
55.00	-86.300	-20.093	
56.00	-83.275	28.675	
57.00	-82.561	74.222	
58.00	-81.847	126.248	
59.00	-82.846	148.631	
60.00	-82.962	178.811	
61.00	-86.445	-117.431	
62.00	-82.638	-67.302	
63.00	-81.029	-4.180	
64.00	-83.075	38.040	
65.00	-78.472	83.574	
66.00	-79.882	112.558	
67.00	-82.744	-150.497	
68.00	-79.468	-78.270	
69.00	-78.230	-41.726	
70.00	-76.669	22.479	
71.00	-77.865	50.063	
72.00	-77.506	118.667	
73.00	-77.412	-151.331	
74.00	-73.386	-126.554	
75.00	-71.409	-29.597	
76.00	-69.023	-17.173	
77.00	-67.219	49.015	
78.00	-66.255	59.728	
79.00	-66.218	115.124	
80.00	-65.035	163.324	
81.00	-64.214	-154.777	
82.00	-63.934	-142.741	
83.00	-62.657	-103.064	
84.00	-61.672	-52.489	
85.00	-62.499	38.851	
86.00	-60.436	112.326	
87.00	-60.162	94.416	
88.00	-59.691	168.358	
89.00	-59.360	-175.490	
90.00	-58.987	-116.706	
91.00	-58.264	-107.397	
92.00	-57.783	-35.962	
93.00	-57.279	-28.702	
94.00	-57.394	4.026	
95.00	-56.684	35.822	
96.00	-57.112	60.998	
97.00	-56.811	113.222	
98.00	-57.051	120.357	
99.00	-57.193	173.753	
100.00	-57.064	-175.231	
101.00	-57.131	-124.529	
102.00	-56.822	-100.168	
103.00	-57.051	-53.337	
104.00	-56.849	-40.383	
105.00	-57.322	-14.951	
106.00	-57.601	14.717	
107.00	-58.463	40.104	
108.00	-59.472	78.629	
109.00	-60.682	148.726	
110.00	-61.873	155.410	
111.00	-64.752	-147.543	
112.00	-66.724	-78.703	
113.00	-70.279	-85.523	
114.00	-73.452	-82.980	
115.00	-71.901	-103.963	
116.00	-67.774	-110.463	
117.00	-65.249	-75.413	
118.00	-64.703	-55.678	
119.00	-64.191	-0.152	
120.00	-65.078	17.912	
121.00	-67.279	50.356	
122.00	-72.343	80.426	
123.00	-86.257	160.351	
124.00	-72.107	-64.004	
125.00	-67.328	-69.361	
126.00	-63.907	-33.642	
127.00	-62.571	-10.686	
128.00	-62.684	13.814	
129.00	-62.725	33.442	
130.00	-63.533	51.046	
131.00	-63.972	63.137	
132.00	-64.902	75.153	
133.00	-68.487	96.159	
134.00	-73.966	106.221	
135.00	-80.449	12.185	
136.00	-69.648	11.685	
137.00	-66.145	36.814	
138.00	-65.022	68.418	
139.00	-66.557	91.337	
140.00	-73.143	107.374	
141.00	-75.826	29.272	
142.00	-66.988	23.706	
143.00	-63.235	40.239	
144.00	-61.350	66.001	
145.00	-62.426	70.555	
146.00	-67.673	77.603	
147.00	-71.164	-12.579	
148.00	-61.838	-35.779	
149.00	-56.943	15.622	
150.00	-54.419	10.155	
151.00	-53.685	38.261	
152.00	-53.819	43.433	
153.00	-55.188	32.082	
154.00	-58.002	64.142	
155.00	-63.255	51.408	
156.00	-73.081	69.475	
157.00	-74.382	-66.858	
158.00	-69.066	-62.664	
159.00	-70.195	-69.568	
160.00	-86.745	-126.399	
161.00	-73.554	112.016	
162.00	-66.664	127.644	
163.00	-64.126	134.295	
164.00	-62.557	171.757	
165.00	-61.185	152.689	
166.00	-60.496	176.048	
167.00	-61.036	123.773	
168.00	-62.528	139.641	
169.00	-64.184	110.310	
170.00	-61.736	46.411	
171.00	-60.594	53.092	
172.00	-63.254	-39.536	
173.00	-60.787	-94.326	
174.00	-53.677	-138.038	
175.00	-48.117	-120.816	
176.00	-43.915	-68.477	
177.00	-41.556	-80.734	
178.00	-39.975	-61.691	
179.00	-39.359	-67.790	
180.00	-39.488	-65.093	
181.00	-40.395	-94.743	
182.00	-41.875	-71.479	
183.00	-44.336	-90.054	
184.00	-47.731	-89.075	
185.00	-52.621	-106.224	
186.00	-62.199	-117.094	
187.00	-70.918	52.585	
188.00	-62.526	28.682	
189.00	-58.349	65.186	
190.00	-58.103	65.467	
191.00	-60.671	93.799	
192.00	-63.847	119.514	
193.00	-61.250	159.260	
194.00	-58.208	177.465	
195.00	-57.196	173.806	
196.00	-58.046	175.509	
197.00	-61.230	-169.083	
198.00	-68.156	-152.353	
199.00	-75.868	-45.863	
200.00	-67.522	-12.967	
201.00	-66.422	-13.013	
202.00	-70.369	-7.001	
203.00	-74.291	59.397	
204.00	-67.212	103.458	
205.00	-64.132	110.856	
206.00	-63.693	91.709	
207.00	-66.086	98.958	
208.00	-72.811	69.910	
209.00	-74.023	-62.879	
210.00	-65.330	-110.799	
211.00	-61.480	-96.901	
212.00	-60.030	-99.843	
213.00	-59.799	-114.084	
214.00	-59.672	-140.985	
215.00	-60.087	-157.509	
216.00	-60.856	172.075	
217.00	-61.252	130.681	
218.00	-62.675	111.605	
219.00	-65.644	101.524	
220.00	-70.344	116.741	
221.00	-71.697	156.751	
222.00	-68.047	176.613	
223.00	-65.300	-177.085	
224.00	-64.550	-178.007	
225.00	-65.073	172.371	
226.00	-66.492	-159.600	
227.00	-68.065	176.186	
228.00	-67.969	-147.359	
229.00	-67.493	-143.601	
230.00	-66.478	-160.556	
231.00	-67.238	-165.545	
232.00	-67.977	173.419	
233.00	-70.608	173.068	
234.00	-72.349	131.084	
235.00	-72.433	97.092	
236.00	-71.507	42.108	
237.00	-70.421	15.282	
238.00	-70.931	-15.581	
239.00	-70.538	-46.654	
240.00	-71.038	-78.355	
241.00	-72.626	-110.077	
242.00	-74.126	-122.530	
243.00	-76.758	-121.867	
244.00	-75.840	-150.118	
245.00	-74.331	-111.711	
246.00	-71.290	-140.893	
247.00	-69.132	-129.002	
248.00	-66.626	-157.931	
249.00	-65.050	-176.005	
250.00	-63.757	153.888	
251.00	-62.894	132.109	
252.00	-62.589	108.628	
253.00	-61.912	80.020	
254.00	-62.149	56.472	
255.00	-62.254	23.505	
256.00	-62.310	-6.860	
257.00	-62.727	-29.081	
258.00	-62.876	-68.717	
259.00	-63.030	-94.254	
260.00	-63.952	-128.349	
261.00	-64.404	-167.181	
262.00	-64.925	169.767	
263.00	-65.056	127.240	
264.00	-66.034	98.240	
265.00	-66.873	66.884	
266.00	-67.780	25.879	
267.00	-68.372	-17.230	
268.00	-68.855	-59.613	
269.00	-68.936	-104.362	
270.00	-68.838	-145.941	
271.00	-68.645	151.474	
272.00	-68.433	121.361	
273.00	-69.145	83.694	
274.00	-70.080	56.379	
275.00	-71.152	6.491	
276.00	-72.503	-30.106	
277.00	-73.076	-87.052	
278.00	-72.194	-155.495	
279.00	-71.949	159.234	
280.00	-71.699	122.840	
281.00	-71.387	98.728	
282.00	-71.316	61.535	
283.00	-72.191	24.551	
284.00	-74.917	-26.682	
285.00	-75.707	-61.520	
286.00	-78.005	-137.352	
287.00	-79.170	-173.272	
288.00	-79.058	112.138	
289.00	-77.623	60.293	
290.00	-77.655	14.675	
291.00	-82.318	-32.387	
292.00	-89.397	-84.001	
293.00	-87.236	174.310	
294.00	-85.665	105.582	
295.00	-80.981	57.490	
296.00	-78.932	24.750	
297.00	-79.912	-10.063	
298.00	-85.804	-94.811	
299.00	-83.046	-134.177	
300.00	-80.784	156.780	
301.00	-79.959	102.502	
302.00	-79.530	73.444	
303.00	-83.087	38.446	
304.00	-84.257	32.114	
305.00	-85.475	-11.896	
306.00	-87.740	4.756	
307.00	-86.881	-35.658	
308.00	-86.324	-123.607	
309.00	-89.822	-179.931	
310.00	-87.615	113.248	
311.00	-84.322	79.311	
312.00	-83.254	7.027	
313.00	-84.290	-13.108	
314.00	-84.672	-11.205	
315.00	-86.167	-61.332	
316.00	-88.931	-67.256	
317.00	-86.434	-114.478	
318.00	-85.729	-121.489	
319.00	-86.470	-96.135	
320.00	-87.913	-153.112	
321.00	-94.865	118.070	
322.00	-83.977	87.648	
323.00	-85.012	32.836	
324.00	-87.243	-33.197	
325.00	-90.700	45.352	
326.00	-85.756	-3.783	
327.00	-84.476	-13.611	
328.00	-86.888	-31.418	
329.00	-85.263	-62.030	
330.00	-88.540	-60.078	
331.00	-90.041	-38.616	
332.00	-87.306	-40.217	
333.00	-95.072	142.012	
334.00	-92.841	22.610	
335.00	-84.010	8.615	
336.00	-85.824	-62.121	
337.00	-89.068	-53.978	
338.00	-93.119	-70.575	
339.00	-89.318	-41.050	
340.00	-86.826	-25.920	
341.00	-85.942	-76.716	
342.00	-86.502	-61.701	
343.00	-85.848	-114.442	
344.00	-100.423	-151.767	
345.00	-109.245	-89.973	
346.00	-88.401	17.630	
347.00	-87.554	-60.251	
348.00	-93.612	-47.882	
349.00	-90.964	-8.033	
350.00	-84.888	-19.344	
351.00	-86.970	-40.291	
352.00	-91.096	-88.200	
353.00	-93.575	158.118	
354.00	-82.820	144.333	
355.00	-81.617	113.533	
356.00	-82.035	108.750	
357.00	-84.873	101.932	
358.00	-84.939	35.057	
359.00	-89.702	51.231	
Frequency	4200.00	MHz	
Channel	test		
Scan Axis name	Azimuth  [deg]		
Scan Axis	Amplitude	Phase	
			
0.00	-84.490	139.365	
1.00	-82.915	129.189	
2.00	-90.836	162.961	
3.00	-90.893	177.074	
4.00	-87.531	-179.284	
5.00	-83.928	177.681	
6.00	-84.604	-175.368	
7.00	-87.304	-141.887	
8.00	-99.612	152.338	
9.00	-101.959	78.626	
10.00	-84.954	114.016	
11.00	-83.517	105.549	
12.00	-83.589	123.022	
13.00	-84.406	151.827	
14.00	-89.013	-170.825	
15.00	-89.242	-119.262	
16.00	-91.996	-23.247	
17.00	-87.007	46.610	
18.00	-83.784	78.079	
19.00	-86.613	108.322	
20.00	-82.954	108.897	
21.00	-85.137	95.457	
22.00	-89.207	104.083	
23.00	-92.799	39.936	
24.00	-86.155	-2.650	
25.00	-82.808	-25.879	
26.00	-83.892	22.372	
27.00	-86.802	-2.285	
28.00	-97.566	85.989	
29.00	-89.093	167.136	
30.00	-85.269	171.073	
31.00	-80.031	-159.776	
32.00	-81.962	-149.090	
33.00	-88.079	172.738	
34.00	-85.026	98.171	
35.00	-82.763	139.868	
36.00	-86.866	151.850	
37.00	-88.420	-135.704	
38.00	-89.198	-133.107	
39.00	-94.126	-57.715	
40.00	-93.951	40.375	
41.00	-83.538	89.468	
42.00	-78.246	155.092	
43.00	-76.195	166.931	
44.00	-78.747	-150.275	
45.00	-82.898	-98.072	
46.00	-87.374	-29.650	
47.00	-87.518	24.686	
48.00	-83.840	83.240	
49.00	-81.426	97.253	
50.00	-81.237	140.384	
51.00	-81.310	-171.416	
52.00	-81.118	-150.873	
53.00	-80.743	-70.050	
54.00	-79.739	-6.572	
55.00	-78.662	64.371	
56.00	-77.044	102.977	
57.00	-76.165	129.104	
58.00	-79.963	146.711	
59.00	-82.543	-167.686	
60.00	-82.687	-155.338	
61.00	-88.628	-93.261	
62.00	-86.910	-4.227	
63.00	-85.002	33.598	
64.00	-82.606	124.388	
65.00	-80.377	163.802	
66.00	-79.606	-169.194	
67.00	-79.279	-90.012	
68.00	-79.121	-20.088	
69.00	-77.105	26.495	
70.00	-78.450	102.929	
71.00	-78.648	116.511	
72.00	-81.630	-178.779	
73.00	-76.943	-84.754	
74.00	-75.850	-47.517	
75.00	-71.024	51.144	
76.00	-69.654	64.324	
77.00	-67.887	131.279	
78.00	-66.304	148.492	
79.00	-65.646	-153.510	
80.00	-64.955	-107.083	
81.00	-63.657	-71.172	
82.00	-63.629	-58.284	
83.00	-63.047	-19.364	
84.00	-61.678	32.582	
85.00	-63.054	129.175	
86.00	-60.771	-158.482	
87.00	-60.031	-175.079	
88.00	-59.355	-100.587	
89.00	-58.736	-85.857	
90.00	-58.271	-27.093	
91.00	-57.770	-18.925	
92.00	-57.640	53.483	
93.00	-57.003	58.836	
94.00	-57.067	96.681	
95.00	-56.747	128.607	
96.00	-56.864	157.391	
97.00	-56.312	-152.002	
98.00	-56.290	-144.169	
99.00	-56.372	-92.016	
100.00	-56.143	-82.893	
101.00	-56.739	-32.525	
102.00	-56.370	-8.154	
103.00	-56.923	41.268	
104.00	-56.809	51.368	
105.00	-57.011	79.749	
106.00	-57.070	109.031	
107.00	-57.791	138.136	
108.00	-58.830	176.784	
109.00	-59.459	-111.026	
110.00	-60.119	-105.966	
111.00	-61.913	-42.567	
112.00	-63.507	25.206	
113.00	-67.096	37.672	
114.00	-74.176	74.797	
115.00	-89.868	-25.886	
116.00	-70.492	-49.927	
117.00	-66.277	-10.559	
118.00	-63.887	17.288	
119.00	-62.630	78.708	
120.00	-62.463	93.898	
121.00	-63.512	127.073	
122.00	-65.299	161.548	
123.00	-69.135	-171.122	
124.00	-75.776	-89.302	
125.00	-72.113	-34.433	
126.00	-66.984	32.032	
127.00	-63.859	62.537	
128.00	-61.930	94.833	
129.00	-61.364	122.393	
130.00	-61.408	147.800	
131.00	-61.283	172.896	
132.00	-62.172	-168.552	
133.00	-64.846	-132.595	
134.00	-70.239	-104.927	
135.00	-85.338	1.251	
136.00	-70.379	113.058	
137.00	-65.708	154.432	
138.00	-63.763	-167.982	
139.00	-65.077	-135.548	
140.00	-68.918	-99.067	
141.00	-89.443	-128.415	
142.00	-68.812	146.089	
143.00	-62.351	172.372	
144.00	-60.654	-158.298	
145.00	-62.149	-144.172	
146.00	-68.012	-116.513	
147.00	-72.948	33.712	
148.00	-61.932	70.625	
149.00	-57.407	131.693	
150.00	-55.300	126.393	
151.00	-54.839	155.805	
152.00	-55.143	152.445	
153.00	-56.228	135.746	
154.00	-58.204	158.324	
155.00	-61.244	142.031	
156.00	-66.010	158.031	
157.00	-74.307	103.932	
158.00	-70.276	31.752	
159.00	-68.343	20.237	
160.00	-71.074	-0.914	
161.00	-85.260	45.737	
162.00	-68.109	-169.990	
163.00	-62.420	-141.504	
164.00	-58.588	-89.959	
165.00	-57.333	-94.723	
166.00	-58.013	-61.725	
167.00	-59.819	-113.067	
168.00	-62.440	-106.982	
169.00	-62.288	-141.654	
170.00	-59.987	161.962	
171.00	-60.258	168.496	
172.00	-62.270	61.606	
173.00	-57.869	20.210	
174.00	-51.804	-17.529	
175.00	-47.207	-0.351	
176.00	-43.524	49.227	
177.00	-41.386	36.321	
178.00	-39.990	52.625	
179.00	-39.464	45.714	
180.00	-39.639	45.782	
181.00	-40.552	16.007	
182.00	-42.036	39.982	
183.00	-44.610	21.977	
184.00	-48.504	26.710	
185.00	-54.722	17.603	
186.00	-70.341	72.312	
187.00	-60.345	140.685	
188.00	-57.351	130.765	
189.00	-55.681	177.598	
190.00	-57.121	-175.327	
191.00	-60.526	-133.586	
192.00	-61.707	-95.621	
193.00	-58.410	-71.658	
194.00	-56.912	-61.102	
195.00	-57.479	-70.431	
196.00	-60.116	-74.737	
197.00	-64.969	-79.352	
198.00	-71.987	-127.472	
199.00	-70.212	154.003	
200.00	-68.587	130.273	
201.00	-72.569	110.110	
202.00	-85.999	-2.697	
203.00	-73.235	-70.481	
204.00	-67.895	-85.512	
205.00	-67.435	-89.799	
206.00	-71.178	-110.218	
207.00	-86.534	-97.832	
208.00	-72.806	35.037	
209.00	-66.847	43.401	
210.00	-64.768	3.118	
211.00	-63.341	8.606	
212.00	-61.662	-2.387	
213.00	-60.689	-22.345	
214.00	-60.090	-48.949	
215.00	-59.947	-57.941	
216.00	-60.902	-81.352	
217.00	-62.487	-113.896	
218.00	-65.951	-123.300	
219.00	-70.684	-110.775	
220.00	-69.591	-59.789	
221.00	-65.864	-47.671	
222.00	-63.642	-45.138	
223.00	-62.949	-43.375	
224.00	-63.875	-43.629	
225.00	-66.037	-47.389	
226.00	-67.863	-13.418	
227.00	-69.060	-31.862	
228.00	-68.731	1.395	
229.00	-68.284	0.722	
230.00	-69.669	-16.638	
231.00	-71.766	-25.452	
232.00	-78.779	-61.215	
233.00	-82.341	-171.902	
234.00	-70.904	150.899	
235.00	-66.692	142.428	
236.00	-65.384	113.772	
237.00	-64.822	97.018	
238.00	-65.473	79.061	
239.00	-66.378	54.232	
240.00	-68.102	26.359	
241.00	-71.419	6.816	
242.00	-74.697	1.595	
243.00	-74.880	34.129	
244.00	-72.448	11.264	
245.00	-68.550	35.770	
246.00	-65.723	-11.471	
247.00	-64.497	-7.798	
248.00	-63.012	-42.680	
249.00	-61.566	-62.001	
250.00	-61.044	-98.835	
251.00	-60.286	-122.030	
252.00	-60.044	-151.344	
253.00	-59.713	-177.885	
254.00	-59.756	155.144	
255.00	-59.832	125.525	
256.00	-60.101	94.666	
257.00	-60.628	72.682	
258.00	-61.410	29.943	
259.00	-62.138	5.473	
260.00	-63.032	-33.844	
261.00	-63.154	-75.041	
262.00	-63.662	-101.117	
263.00	-64.238	-142.886	
264.00	-64.294	-174.100	
265.00	-65.329	157.578	
266.00	-66.441	115.323	
267.00	-67.232	74.140	
268.00	-68.940	36.586	
269.00	-69.334	-14.657	
270.00	-69.099	-61.972	
271.00	-68.896	-124.834	
272.00	-68.147	-157.193	
273.00	-68.591	163.746	
274.00	-68.577	138.011	
275.00	-70.804	90.030	
276.00	-71.495	57.400	
277.00	-73.393	-3.410	
278.00	-72.018	-71.308	
279.00	-72.266	-110.715	
280.00	-71.319	-150.068	
281.00	-72.879	-169.796	
282.00	-72.235	145.680	
283.00	-73.943	101.590	
284.00	-74.785	56.825	
285.00	-75.805	11.057	
286.00	-76.997	-38.303	
287.00	-77.914	-92.563	
288.00	-78.926	-146.265	
289.00	-79.491	151.223	
290.00	-80.943	96.945	
291.00	-81.997	49.990	
292.00	-82.990	-4.960	
293.00	-84.306	-64.924	
294.00	-83.489	-152.289	
295.00	-84.520	-162.320	
296.00	-87.387	110.782	
297.00	-90.085	6.225	
298.00	-82.510	-41.950	
299.00	-84.983	-80.766	
300.00	-84.214	-121.423	
301.00	-81.436	-179.562	
302.00	-84.337	141.837	
303.00	-90.389	44.284	
304.00	-96.808	-26.258	
305.00	-101.141	127.754	
306.00	-102.232	117.853	
307.00	-88.944	-35.292	
308.00	-85.253	-30.961	
309.00	-81.039	-42.579	
310.00	-81.262	-78.203	
311.00	-87.532	-146.037	
312.00	-90.593	-173.045	
313.00	-91.111	110.956	
314.00	-86.316	-51.960	
315.00	-84.746	-88.160	
316.00	-87.153	-102.261	
317.00	-91.872	-164.602	
318.00	-90.954	-120.701	
319.00	-85.897	-92.585	
320.00	-81.287	-112.790	
321.00	-80.226	-158.503	
322.00	-84.283	165.352	
323.00	-82.976	144.509	
324.00	-88.774	125.808	
325.00	-88.918	123.637	
326.00	-86.359	106.711	
327.00	-87.546	66.441	
328.00	-91.548	133.645	
329.00	-94.545	160.341	
330.00	-92.881	142.236	
331.00	-90.893	61.442	
332.00	-91.149	-55.845	
333.00	-82.819	-135.754	
334.00	-80.929	-146.734	
335.00	-86.508	170.204	
336.00	-106.336	-14.113	
337.00	-101.567	-114.196	
338.00	-88.937	-55.425	
339.00	-92.375	-42.428	
340.00	-92.809	-10.833	
341.00	-92.742	-19.006	
342.00	-85.419	-23.189	
343.00	-81.595	-94.488	
344.00	-86.817	-128.844	
345.00	-98.310	-90.391	
346.00	-93.495	-63.748	
347.00	-89.619	-87.434	
348.00	-88.804	-146.599	
349.00	-88.129	158.717	
350.00	-91.155	146.481	
351.00	-89.591	39.185	
352.00	-88.516	-0.842	
353.00	-90.570	-55.332	
354.00	-90.004	-102.397	
355.00	-87.692	171.676	
356.00	-82.720	155.115	
357.00	-82.584	132.752	
358.00	-84.342	106.556	
359.00	-84.826	67.313	
