Test Title:	Alpha Wireless Indoor Range						
Date:	28/12/2017						
Time:	10:06						
Operator Name:	FL						
Comment:	1deg downtilt						
Caib. File Name:	C:\Program Files\Midas 2.01d\Calibration Files\test sigma 180900.cal						
							
[Scan Axis] Name: 	Azimuth  [deg]Start: 	0.000000	Stop	359.000000	Increment	1.000000[Step Axis] Name: 	Start: 	0.000000	Stop	0.000000	Increment	0.000000[Tert] Name: 	None [Forth] Name: 	None  [ Freq.]  (List) 	MHz.	2300.000000	2350.000000	2400.000000	2450.000000	2500.000000	2550.000000	2600.000000	2650.000000	2700.000000
 [Switch]  	None [Channel]  	test			 [ Beam] 	None			
Database:			
First Question			
2nd			
3rd			
4th			
			
Frequency	2300.00	MHz	
Channel	test		
Scan Axis name	Azimuth  [deg]		
Scan Axis	Amplitude	Phase	
			
0.00	-38.041	144.432	
1.00	-37.725	142.401	
2.00	-37.485	140.751	
3.00	-37.298	139.522	
4.00	-37.168	138.681	
5.00	-37.145	138.248	
6.00	-37.219	138.211	
7.00	-37.379	138.717	
8.00	-37.733	139.269	
9.00	-38.189	141.006	
10.00	-38.830	143.718	
11.00	-39.583	146.836	
12.00	-40.505	151.742	
13.00	-41.585	158.894	
14.00	-42.751	169.176	
15.00	-43.691	-176.601	
16.00	-44.106	-158.828	
17.00	-43.530	-140.548	
18.00	-42.285	-124.580	
19.00	-40.727	-113.070	
20.00	-39.209	-105.032	
21.00	-37.756	-99.090	
22.00	-36.471	-94.806	
23.00	-35.320	-91.585	
24.00	-34.261	-89.345	
25.00	-33.340	-87.385	
26.00	-32.512	-85.866	
27.00	-31.758	-84.725	
28.00	-31.061	-83.693	
29.00	-30.438	-82.737	
30.00	-29.872	-81.992	
31.00	-29.348	-81.239	
32.00	-28.858	-80.530	
33.00	-28.414	-79.788	
34.00	-27.997	-79.064	
35.00	-27.606	-78.275	
36.00	-27.252	-77.453	
37.00	-26.914	-76.618	
38.00	-26.603	-75.722	
39.00	-26.326	-74.781	
40.00	-26.069	-73.843	
41.00	-25.845	-72.832	
42.00	-25.641	-71.847	
43.00	-25.472	-70.920	
44.00	-25.328	-69.953	
45.00	-25.228	-68.957	
46.00	-25.146	-67.984	
47.00	-25.091	-67.072	
48.00	-25.079	-66.225	
49.00	-25.103	-65.388	
50.00	-25.160	-64.667	
51.00	-25.252	-63.936	
52.00	-25.389	-63.333	
53.00	-25.561	-62.693	
54.00	-25.771	-62.181	
55.00	-26.025	-61.698	
56.00	-26.323	-61.388	
57.00	-26.670	-61.187	
58.00	-27.064	-61.079	
59.00	-27.504	-61.144	
60.00	-27.986	-61.371	
61.00	-28.531	-61.796	
62.00	-29.136	-62.516	
63.00	-29.787	-63.355	
64.00	-30.504	-64.619	
65.00	-31.289	-66.428	
66.00	-32.155	-68.667	
67.00	-33.061	-71.526	
68.00	-34.041	-75.227	
69.00	-35.059	-80.038	
70.00	-36.093	-86.087	
71.00	-37.094	-93.522	
72.00	-37.932	-102.475	
73.00	-38.522	-112.935	
74.00	-38.819	-124.219	
75.00	-38.768	-134.941	
76.00	-38.431	-144.730	
77.00	-37.921	-153.023	
78.00	-37.341	-159.703	
79.00	-36.758	-165.206	
80.00	-36.194	-169.395	
81.00	-35.692	-172.646	
82.00	-35.250	-175.362	
83.00	-34.863	-177.425	
84.00	-34.541	-178.930	
85.00	-34.283	179.847	
86.00	-34.122	179.086	
87.00	-33.976	178.604	
88.00	-33.905	178.494	
89.00	-33.883	178.589	
90.00	-33.919	179.034	
91.00	-34.025	179.868	
92.00	-34.169	-179.106	
93.00	-34.357	-177.400	
94.00	-34.584	-175.358	
95.00	-34.847	-172.835	
96.00	-35.117	-169.793	
97.00	-35.432	-166.018	
98.00	-35.741	-161.506	
99.00	-35.999	-156.273	
100.00	-36.168	-150.263	
101.00	-36.265	-143.486	
102.00	-36.231	-136.460	
103.00	-36.036	-129.134	
104.00	-35.701	-121.915	
105.00	-35.224	-115.218	
106.00	-34.653	-109.030	
107.00	-33.997	-103.579	
108.00	-33.323	-98.825	
109.00	-32.624	-94.839	
110.00	-31.956	-91.364	
111.00	-31.293	-88.391	
112.00	-30.655	-85.916	
113.00	-30.071	-83.866	
114.00	-29.523	-82.061	
115.00	-29.004	-80.512	
116.00	-28.523	-79.181	
117.00	-28.079	-77.966	
118.00	-27.675	-77.000	
119.00	-27.301	-76.169	
120.00	-26.969	-75.310	
121.00	-26.673	-74.648	
122.00	-26.400	-74.040	
123.00	-26.162	-73.451	
124.00	-25.954	-72.863	
125.00	-25.763	-72.380	
126.00	-25.611	-71.846	
127.00	-25.477	-71.368	
128.00	-25.368	-70.856	
129.00	-25.265	-70.359	
130.00	-25.191	-69.806	
131.00	-25.134	-69.267	
132.00	-25.095	-68.732	
133.00	-25.060	-68.150	
134.00	-25.041	-67.597	
135.00	-25.023	-67.061	
136.00	-25.022	-66.505	
137.00	-25.018	-65.947	
138.00	-25.029	-65.390	
139.00	-25.052	-64.883	
140.00	-25.073	-64.403	
141.00	-25.102	-64.040	
142.00	-25.139	-63.707	
143.00	-25.194	-63.442	
144.00	-25.265	-63.275	
145.00	-25.344	-63.124	
146.00	-25.444	-63.049	
147.00	-25.572	-63.101	
148.00	-25.714	-63.254	
149.00	-25.895	-63.531	
150.00	-26.097	-63.869	
151.00	-26.323	-64.392	
152.00	-26.592	-64.972	
153.00	-26.891	-65.802	
154.00	-27.244	-66.736	
155.00	-27.636	-67.883	
156.00	-28.044	-69.201	
157.00	-28.531	-70.817	
158.00	-29.032	-72.637	
159.00	-29.584	-74.665	
160.00	-30.175	-77.131	
161.00	-30.794	-79.956	
162.00	-31.454	-83.239	
163.00	-32.125	-86.896	
164.00	-32.820	-91.042	
165.00	-33.495	-95.772	
166.00	-34.156	-100.923	
167.00	-34.745	-106.491	
168.00	-35.270	-112.414	
169.00	-35.715	-118.413	
170.00	-36.053	-124.355	
171.00	-36.313	-130.020	
172.00	-36.490	-135.302	
173.00	-36.584	-139.879	
174.00	-36.702	-143.825	
175.00	-36.768	-147.267	
176.00	-36.825	-150.034	
177.00	-36.904	-151.986	
178.00	-37.027	-153.544	
179.00	-37.146	-154.587	
180.00	-37.311	-155.117	
181.00	-37.483	-155.054	
182.00	-37.675	-154.428	
183.00	-37.889	-153.400	
184.00	-38.071	-151.985	
185.00	-38.241	-149.740	
186.00	-38.387	-147.288	
187.00	-38.453	-144.292	
188.00	-38.443	-140.771	
189.00	-38.321	-137.066	
190.00	-38.134	-133.342	
191.00	-37.807	-129.358	
192.00	-37.399	-125.535	
193.00	-36.888	-122.045	
194.00	-36.321	-118.690	
195.00	-35.680	-115.422	
196.00	-35.007	-112.603	
197.00	-34.340	-109.863	
198.00	-33.620	-107.525	
199.00	-32.923	-105.301	
200.00	-32.221	-103.293	
201.00	-31.513	-101.504	
202.00	-30.838	-99.794	
203.00	-30.174	-98.276	
204.00	-29.526	-96.872	
205.00	-28.918	-95.580	
206.00	-28.332	-94.476	
207.00	-27.770	-93.595	
208.00	-27.244	-92.653	
209.00	-26.752	-91.845	
210.00	-26.293	-91.195	
211.00	-25.883	-90.641	
212.00	-25.496	-90.189	
213.00	-25.148	-89.826	
214.00	-24.830	-89.512	
215.00	-24.541	-89.318	
216.00	-24.291	-89.165	
217.00	-24.071	-89.137	
218.00	-23.885	-89.135	
219.00	-23.733	-89.200	
220.00	-23.601	-89.348	
221.00	-23.504	-89.529	
222.00	-23.430	-89.796	
223.00	-23.384	-90.097	
224.00	-23.366	-90.512	
225.00	-23.363	-90.898	
226.00	-23.386	-91.317	
227.00	-23.431	-91.769	
228.00	-23.486	-92.306	
229.00	-23.567	-92.885	
230.00	-23.658	-93.429	
231.00	-23.766	-93.999	
232.00	-23.884	-94.630	
233.00	-24.016	-95.262	
234.00	-24.155	-95.942	
235.00	-24.311	-96.614	
236.00	-24.473	-97.314	
237.00	-24.656	-98.058	
238.00	-24.845	-98.808	
239.00	-25.047	-99.607	
240.00	-25.260	-100.430	
241.00	-25.491	-101.297	
242.00	-25.727	-102.164	
243.00	-25.978	-103.080	
244.00	-26.253	-104.032	
245.00	-26.535	-105.080	
246.00	-26.840	-106.168	
247.00	-27.165	-107.298	
248.00	-27.504	-108.497	
249.00	-27.862	-109.798	
250.00	-28.256	-111.147	
251.00	-28.655	-112.600	
252.00	-29.070	-114.134	
253.00	-29.512	-115.859	
254.00	-29.982	-117.614	
255.00	-30.468	-119.616	
256.00	-30.972	-121.775	
257.00	-31.478	-124.032	
258.00	-32.023	-126.547	
259.00	-32.567	-129.205	
260.00	-33.099	-131.986	
261.00	-33.668	-135.091	
262.00	-34.221	-138.361	
263.00	-34.741	-141.843	
264.00	-35.280	-145.495	
265.00	-35.777	-149.136	
266.00	-36.245	-152.880	
267.00	-36.680	-156.685	
268.00	-37.091	-160.236	
269.00	-37.467	-163.366	
270.00	-37.825	-166.511	
271.00	-38.156	-169.067	
272.00	-38.470	-171.136	
273.00	-38.791	-172.572	
274.00	-39.080	-173.290	
275.00	-39.396	-173.400	
276.00	-39.746	-172.405	
277.00	-40.026	-170.413	
278.00	-40.317	-167.638	
279.00	-40.538	-163.402	
280.00	-40.637	-158.451	
281.00	-40.633	-152.362	
282.00	-40.451	-145.758	
283.00	-40.072	-138.981	
284.00	-39.540	-132.315	
285.00	-38.827	-126.112	
286.00	-38.010	-120.677	
287.00	-37.182	-116.072	
288.00	-36.303	-112.095	
289.00	-35.421	-108.834	
290.00	-34.579	-106.183	
291.00	-33.768	-103.946	
292.00	-32.994	-102.130	
293.00	-32.254	-100.625	
294.00	-31.563	-99.383	
295.00	-30.890	-98.272	
296.00	-30.274	-97.468	
297.00	-29.706	-96.774	
298.00	-29.160	-96.174	
299.00	-28.661	-95.643	
300.00	-28.191	-95.269	
301.00	-27.762	-94.937	
302.00	-27.359	-94.681	
303.00	-26.998	-94.441	
304.00	-26.652	-94.221	
305.00	-26.341	-94.094	
306.00	-26.060	-93.964	
307.00	-25.797	-93.854	
308.00	-25.559	-93.795	
309.00	-25.361	-93.730	
310.00	-25.182	-93.698	
311.00	-25.020	-93.688	
312.00	-24.882	-93.672	
313.00	-24.773	-93.672	
314.00	-24.680	-93.636	
315.00	-24.612	-93.664	
316.00	-24.567	-93.678	
317.00	-24.547	-93.666	
318.00	-24.541	-93.667	
319.00	-24.570	-93.586	
320.00	-24.620	-93.596	
321.00	-24.694	-93.589	
322.00	-24.805	-93.544	
323.00	-24.933	-93.551	
324.00	-25.087	-93.540	
325.00	-25.282	-93.576	
326.00	-25.500	-93.593	
327.00	-25.748	-93.654	
328.00	-26.033	-93.754	
329.00	-26.352	-93.913	
330.00	-26.705	-94.142	
331.00	-27.084	-94.412	
332.00	-27.511	-94.796	
333.00	-27.958	-95.280	
334.00	-28.459	-95.906	
335.00	-28.987	-96.745	
336.00	-29.558	-97.662	
337.00	-30.164	-98.943	
338.00	-30.807	-100.417	
339.00	-31.471	-102.138	
340.00	-32.172	-104.368	
341.00	-32.895	-106.807	
342.00	-33.611	-109.779	
343.00	-34.351	-113.077	
344.00	-35.078	-117.138	
345.00	-35.764	-121.594	
346.00	-36.417	-126.430	
347.00	-37.012	-131.827	
348.00	-37.550	-137.521	
349.00	-37.965	-143.523	
350.00	-38.325	-149.759	
351.00	-38.598	-155.898	
352.00	-38.760	-162.272	
353.00	-38.837	-168.290	
354.00	-38.881	-173.970	
355.00	-38.816	-179.647	
356.00	-38.720	174.995	
357.00	-38.566	169.989	
358.00	-38.409	165.515	
359.00	-38.228	161.707	
Frequency	2350.00	MHz	
Channel	test		
Scan Axis name	Azimuth  [deg]		
Scan Axis	Amplitude	Phase	
			
0.00	-37.036	-75.132	
1.00	-37.061	-74.522	
2.00	-37.166	-74.018	
3.00	-37.397	-73.253	
4.00	-37.711	-72.271	
5.00	-38.147	-71.102	
6.00	-38.724	-69.493	
7.00	-39.433	-66.894	
8.00	-40.424	-63.539	
9.00	-41.510	-58.227	
10.00	-42.669	-49.797	
11.00	-44.008	-38.082	
12.00	-44.915	-21.356	
13.00	-44.878	-0.834	
14.00	-43.833	18.039	
15.00	-42.188	32.636	
16.00	-40.397	43.044	
17.00	-38.729	50.104	
18.00	-37.228	55.122	
19.00	-35.881	58.994	
20.00	-34.701	62.082	
21.00	-33.645	64.567	
22.00	-32.702	66.759	
23.00	-31.854	68.723	
24.00	-31.105	70.421	
25.00	-30.421	71.992	
26.00	-29.829	73.494	
27.00	-29.288	74.897	
28.00	-28.795	76.163	
29.00	-28.346	77.463	
30.00	-27.944	78.595	
31.00	-27.594	79.702	
32.00	-27.253	80.705	
33.00	-26.967	81.644	
34.00	-26.694	82.462	
35.00	-26.442	83.234	
36.00	-26.227	83.905	
37.00	-26.019	84.454	
38.00	-25.830	84.900	
39.00	-25.672	85.245	
40.00	-25.521	85.468	
41.00	-25.390	85.601	
42.00	-25.275	85.699	
43.00	-25.181	85.594	
44.00	-25.106	85.427	
45.00	-25.041	85.351	
46.00	-24.995	85.174	
47.00	-24.968	84.874	
48.00	-24.965	84.537	
49.00	-24.991	84.131	
50.00	-25.031	83.782	
51.00	-25.094	83.301	
52.00	-25.192	82.769	
53.00	-25.311	82.290	
54.00	-25.449	81.724	
55.00	-25.622	81.188	
56.00	-25.822	80.519	
57.00	-26.052	79.826	
58.00	-26.331	79.075	
59.00	-26.629	78.206	
60.00	-26.956	77.246	
61.00	-27.322	76.177	
62.00	-27.735	74.966	
63.00	-28.176	73.655	
64.00	-28.654	72.082	
65.00	-29.183	70.236	
66.00	-29.726	68.209	
67.00	-30.311	65.729	
68.00	-30.946	62.834	
69.00	-31.586	59.616	
70.00	-32.254	55.738	
71.00	-32.925	51.230	
72.00	-33.554	46.111	
73.00	-34.148	40.257	
74.00	-34.670	33.722	
75.00	-35.080	26.597	
76.00	-35.350	19.216	
77.00	-35.474	11.715	
78.00	-35.440	4.391	
79.00	-35.293	-2.302	
80.00	-35.049	-8.326	
81.00	-34.767	-13.764	
82.00	-34.440	-18.297	
83.00	-34.113	-22.120	
84.00	-33.789	-25.443	
85.00	-33.526	-28.210	
86.00	-33.296	-30.410	
87.00	-33.082	-32.275	
88.00	-32.918	-33.778	
89.00	-32.831	-34.825	
90.00	-32.767	-35.631	
91.00	-32.785	-36.204	
92.00	-32.857	-36.391	
93.00	-32.974	-36.310	
94.00	-33.154	-35.980	
95.00	-33.429	-35.300	
96.00	-33.744	-34.269	
97.00	-34.155	-32.710	
98.00	-34.640	-30.735	
99.00	-35.215	-28.181	
100.00	-35.868	-24.711	
101.00	-36.607	-20.175	
102.00	-37.410	-14.335	
103.00	-38.207	-6.781	
104.00	-38.950	3.057	
105.00	-39.435	15.036	
106.00	-39.527	28.612	
107.00	-39.095	41.759	
108.00	-38.271	53.800	
109.00	-37.199	63.669	
110.00	-36.035	71.188	
111.00	-34.905	76.971	
112.00	-33.818	81.548	
113.00	-32.828	84.944	
114.00	-31.913	87.630	
115.00	-31.077	89.667	
116.00	-30.317	91.269	
117.00	-29.629	92.484	
118.00	-29.000	93.381	
119.00	-28.433	94.115	
120.00	-27.928	94.507	
121.00	-27.477	94.771	
122.00	-27.062	94.919	
123.00	-26.697	94.868	
124.00	-26.371	94.753	
125.00	-26.082	94.517	
126.00	-25.828	94.215	
127.00	-25.610	93.789	
128.00	-25.416	93.341	
129.00	-25.254	92.843	
130.00	-25.116	92.332	
131.00	-25.009	91.743	
132.00	-24.923	91.133	
133.00	-24.864	90.578	
134.00	-24.822	89.951	
135.00	-24.806	89.380	
136.00	-24.815	88.813	
137.00	-24.827	88.297	
138.00	-24.873	87.766	
139.00	-24.939	87.328	
140.00	-25.004	86.981	
141.00	-25.099	86.605	
142.00	-25.212	86.278	
143.00	-25.346	86.061	
144.00	-25.502	85.928	
145.00	-25.679	85.869	
146.00	-25.883	85.900	
147.00	-26.102	86.021	
148.00	-26.352	86.201	
149.00	-26.626	86.412	
150.00	-26.924	86.685	
151.00	-27.243	86.985	
152.00	-27.618	87.314	
153.00	-28.015	87.527	
154.00	-28.453	87.842	
155.00	-28.932	88.084	
156.00	-29.450	88.209	
157.00	-30.006	88.246	
158.00	-30.627	88.031	
159.00	-31.308	87.637	
160.00	-32.036	86.883	
161.00	-32.834	85.863	
162.00	-33.690	84.299	
163.00	-34.602	82.284	
164.00	-35.584	79.286	
165.00	-36.608	75.529	
166.00	-37.676	70.487	
167.00	-38.700	64.312	
168.00	-39.652	56.618	
169.00	-40.389	47.407	
170.00	-40.853	37.713	
171.00	-41.013	27.683	
172.00	-40.892	18.580	
173.00	-40.595	10.640	
174.00	-40.208	3.960	
175.00	-39.761	-1.308	
176.00	-39.356	-5.304	
177.00	-39.013	-8.469	
178.00	-38.701	-11.132	
179.00	-38.462	-13.076	
180.00	-38.296	-14.670	
181.00	-38.171	-15.900	
182.00	-38.141	-16.842	
183.00	-38.124	-17.498	
184.00	-38.166	-17.938	
185.00	-38.278	-17.865	
186.00	-38.377	-17.876	
187.00	-38.550	-17.433	
188.00	-38.747	-16.617	
189.00	-38.971	-15.270	
190.00	-39.188	-13.527	
191.00	-39.463	-10.731	
192.00	-39.671	-7.274	
193.00	-39.907	-2.764	
194.00	-40.060	2.945	
195.00	-40.070	9.921	
196.00	-39.906	17.451	
197.00	-39.507	25.620	
198.00	-38.868	33.910	
199.00	-38.031	41.328	
200.00	-37.068	47.948	
201.00	-35.996	53.577	
202.00	-34.900	58.089	
203.00	-33.838	61.776	
204.00	-32.802	64.777	
205.00	-31.811	66.991	
206.00	-30.904	68.737	
207.00	-30.047	69.991	
208.00	-29.258	71.036	
209.00	-28.550	71.821	
210.00	-27.902	72.364	
211.00	-27.323	72.705	
212.00	-26.786	72.925	
213.00	-26.327	72.959	
214.00	-25.911	72.878	
215.00	-25.540	72.815	
216.00	-25.223	72.627	
217.00	-24.951	72.353	
218.00	-24.725	72.052	
219.00	-24.532	71.723	
220.00	-24.392	71.366	
221.00	-24.278	70.971	
222.00	-24.197	70.585	
223.00	-24.155	70.188	
224.00	-24.137	69.591	
225.00	-24.152	69.251	
226.00	-24.189	68.845	
227.00	-24.254	68.410	
228.00	-24.337	67.981	
229.00	-24.448	67.479	
230.00	-24.572	67.024	
231.00	-24.715	66.600	
232.00	-24.872	66.111	
233.00	-25.045	65.639	
234.00	-25.232	65.083	
235.00	-25.439	64.521	
236.00	-25.655	63.934	
237.00	-25.890	63.296	
238.00	-26.138	62.599	
239.00	-26.393	61.835	
240.00	-26.670	61.037	
241.00	-26.957	60.151	
242.00	-27.274	59.210	
243.00	-27.599	58.137	
244.00	-27.940	56.955	
245.00	-28.314	55.661	
246.00	-28.688	54.189	
247.00	-29.094	52.653	
248.00	-29.516	50.925	
249.00	-29.948	49.002	
250.00	-30.412	46.912	
251.00	-30.878	44.549	
252.00	-31.360	41.884	
253.00	-31.857	39.099	
254.00	-32.344	35.869	
255.00	-32.848	32.388	
256.00	-33.312	28.643	
257.00	-33.779	24.664	
258.00	-34.209	20.327	
259.00	-34.583	15.825	
260.00	-34.909	11.290	
261.00	-35.192	6.707	
262.00	-35.424	2.127	
263.00	-35.590	-2.283	
264.00	-35.706	-6.352	
265.00	-35.800	-10.315	
266.00	-35.861	-13.614	
267.00	-35.899	-16.651	
268.00	-35.909	-19.027	
269.00	-35.939	-20.969	
270.00	-35.997	-22.292	
271.00	-36.052	-23.117	
272.00	-36.110	-23.498	
273.00	-36.182	-23.239	
274.00	-36.313	-22.340	
275.00	-36.427	-20.813	
276.00	-36.545	-18.780	
277.00	-36.681	-15.953	
278.00	-36.800	-12.495	
279.00	-36.830	-8.575	
280.00	-36.860	-3.874	
281.00	-36.820	1.292	
282.00	-36.650	6.767	
283.00	-36.394	12.439	
284.00	-36.062	18.125	
285.00	-35.617	23.668	
286.00	-35.093	28.845	
287.00	-34.516	33.606	
288.00	-33.902	37.911	
289.00	-33.277	41.782	
290.00	-32.645	45.146	
291.00	-32.015	48.219	
292.00	-31.394	50.860	
293.00	-30.802	53.210	
294.00	-30.226	55.225	
295.00	-29.689	57.077	
296.00	-29.175	58.743	
297.00	-28.675	60.152	
298.00	-28.223	61.432	
299.00	-27.791	62.618	
300.00	-27.384	63.666	
301.00	-27.015	64.566	
302.00	-26.660	65.407	
303.00	-26.344	66.190	
304.00	-26.050	66.852	
305.00	-25.773	67.445	
306.00	-25.523	67.970	
307.00	-25.294	68.482	
308.00	-25.094	68.890	
309.00	-24.912	69.247	
310.00	-24.753	69.558	
311.00	-24.620	69.802	
312.00	-24.499	70.016	
313.00	-24.407	70.139	
314.00	-24.334	70.277	
315.00	-24.282	70.295	
316.00	-24.251	70.318	
317.00	-24.242	70.290	
318.00	-24.257	70.281	
319.00	-24.286	70.221	
320.00	-24.343	70.119	
321.00	-24.426	70.016	
322.00	-24.533	69.907	
323.00	-24.661	69.790	
324.00	-24.824	69.671	
325.00	-25.010	69.572	
326.00	-25.223	69.472	
327.00	-25.479	69.371	
328.00	-25.762	69.313	
329.00	-26.085	69.253	
330.00	-26.451	69.285	
331.00	-26.847	69.241	
332.00	-27.296	69.314	
333.00	-27.787	69.452	
334.00	-28.339	69.576	
335.00	-28.950	69.750	
336.00	-29.620	69.924	
337.00	-30.364	70.087	
338.00	-31.194	70.280	
339.00	-32.094	70.423	
340.00	-33.100	70.438	
341.00	-34.222	70.533	
342.00	-35.490	70.155	
343.00	-36.921	69.584	
344.00	-38.579	68.325	
345.00	-40.546	66.352	
346.00	-42.901	62.355	
347.00	-45.754	54.256	
348.00	-49.192	37.188	
349.00	-51.676	2.940	
350.00	-50.241	-33.514	
351.00	-47.487	-52.869	
352.00	-45.020	-62.566	
353.00	-43.202	-67.144	
354.00	-41.748	-70.043	
355.00	-40.622	-71.672	
356.00	-39.765	-72.837	
357.00	-39.066	-73.654	
358.00	-38.562	-74.105	
359.00	-38.211	-74.524	
Frequency	2400.00	MHz	
Channel	test		
Scan Axis name	Azimuth  [deg]		
Scan Axis	Amplitude	Phase	
			
0.00	-39.070	104.672	
1.00	-39.350	102.360	
2.00	-39.639	100.095	
3.00	-40.006	98.043	
4.00	-40.411	96.102	
5.00	-40.865	94.387	
6.00	-41.404	93.052	
7.00	-42.007	92.431	
8.00	-42.962	92.187	
9.00	-43.875	93.806	
10.00	-44.941	96.951	
11.00	-46.427	102.701	
12.00	-47.867	113.795	
13.00	-49.296	131.742	
14.00	-49.742	155.472	
15.00	-48.449	179.534	
16.00	-46.260	-162.933	
17.00	-44.058	-151.860	
18.00	-42.039	-144.843	
19.00	-40.242	-139.917	
20.00	-38.701	-136.244	
21.00	-37.352	-133.459	
22.00	-36.143	-131.213	
23.00	-35.098	-129.231	
24.00	-34.178	-127.706	
25.00	-33.325	-126.314	
26.00	-32.579	-125.147	
27.00	-31.919	-124.174	
28.00	-31.300	-123.398	
29.00	-30.738	-122.735	
30.00	-30.220	-122.259	
31.00	-29.733	-121.929	
32.00	-29.283	-121.769	
33.00	-28.865	-121.668	
34.00	-28.471	-121.690	
35.00	-28.072	-121.877	
36.00	-27.712	-122.084	
37.00	-27.356	-122.361	
38.00	-27.011	-122.676	
39.00	-26.684	-123.050	
40.00	-26.374	-123.372	
41.00	-26.085	-123.663	
42.00	-25.797	-123.874	
43.00	-25.536	-124.127	
44.00	-25.309	-124.339	
45.00	-25.081	-124.296	
46.00	-24.895	-124.283	
47.00	-24.717	-124.145	
48.00	-24.576	-123.997	
49.00	-24.474	-123.793	
50.00	-24.396	-123.491	
51.00	-24.348	-123.154	
52.00	-24.346	-122.774	
53.00	-24.370	-122.403	
54.00	-24.423	-121.849	
55.00	-24.522	-121.358	
56.00	-24.660	-120.875	
57.00	-24.834	-120.343	
58.00	-25.048	-119.791	
59.00	-25.311	-119.303	
60.00	-25.604	-118.832	
61.00	-25.950	-118.400	
62.00	-26.337	-117.988	
63.00	-26.771	-117.658	
64.00	-27.254	-117.465	
65.00	-27.804	-117.310	
66.00	-28.392	-117.288	
67.00	-29.040	-117.469	
68.00	-29.761	-117.855	
69.00	-30.554	-118.461	
70.00	-31.406	-119.406	
71.00	-32.362	-120.758	
72.00	-33.389	-122.676	
73.00	-34.523	-125.339	
74.00	-35.721	-129.019	
75.00	-37.031	-134.207	
76.00	-38.368	-141.108	
77.00	-39.652	-150.399	
78.00	-40.676	-162.515	
79.00	-41.224	-176.459	
80.00	-41.185	169.673	
81.00	-40.678	157.327	
82.00	-39.871	147.687	
83.00	-39.003	140.534	
84.00	-38.140	135.402	
85.00	-37.373	131.514	
86.00	-36.680	128.962	
87.00	-36.105	127.039	
88.00	-35.605	126.034	
89.00	-35.220	125.336	
90.00	-34.888	125.128	
91.00	-34.629	125.216	
92.00	-34.448	125.688	
93.00	-34.323	126.334	
94.00	-34.275	127.300	
95.00	-34.268	128.654	
96.00	-34.315	130.179	
97.00	-34.435	132.002	
98.00	-34.573	134.231	
99.00	-34.775	136.927	
100.00	-35.002	139.811	
101.00	-35.260	143.342	
102.00	-35.550	147.407	
103.00	-35.824	151.960	
104.00	-36.101	157.242	
105.00	-36.321	163.140	
106.00	-36.489	169.511	
107.00	-36.551	176.398	
108.00	-36.495	-176.498	
109.00	-36.316	-169.232	
110.00	-36.022	-162.320	
111.00	-35.570	-155.766	
112.00	-35.060	-149.655	
113.00	-34.476	-144.222	
114.00	-33.883	-139.410	
115.00	-33.261	-135.320	
116.00	-32.624	-131.774	
117.00	-32.003	-128.702	
118.00	-31.401	-126.094	
119.00	-30.808	-123.799	
120.00	-30.243	-121.924	
121.00	-29.717	-120.294	
122.00	-29.198	-119.033	
123.00	-28.716	-117.960	
124.00	-28.252	-117.091	
125.00	-27.800	-116.375	
126.00	-27.381	-115.853	
127.00	-26.987	-115.420	
128.00	-26.609	-115.178	
129.00	-26.255	-115.055	
130.00	-25.930	-115.007	
131.00	-25.621	-115.040	
132.00	-25.342	-115.207	
133.00	-25.089	-115.427	
134.00	-24.850	-115.687	
135.00	-24.641	-116.088	
136.00	-24.453	-116.490	
137.00	-24.285	-116.932	
138.00	-24.155	-117.481	
139.00	-24.053	-117.990	
140.00	-23.971	-118.583	
141.00	-23.909	-119.198	
142.00	-23.880	-119.820	
143.00	-23.889	-120.493	
144.00	-23.928	-121.159	
145.00	-24.002	-121.803	
146.00	-24.118	-122.422	
147.00	-24.265	-123.052	
148.00	-24.455	-123.641	
149.00	-24.682	-124.229	
150.00	-24.954	-124.752	
151.00	-25.259	-125.252	
152.00	-25.621	-125.681	
153.00	-26.026	-126.118	
154.00	-26.491	-126.561	
155.00	-27.007	-126.852	
156.00	-27.579	-127.289	
157.00	-28.201	-127.559	
158.00	-28.899	-127.941	
159.00	-29.665	-128.267	
160.00	-30.493	-128.669	
161.00	-31.401	-129.184	
162.00	-32.404	-129.927	
163.00	-33.493	-130.766	
164.00	-34.682	-131.959	
165.00	-35.970	-133.622	
166.00	-37.396	-136.039	
167.00	-38.943	-139.593	
168.00	-40.606	-144.812	
169.00	-42.300	-152.190	
170.00	-43.863	-162.788	
171.00	-45.015	-176.684	
172.00	-45.512	168.066	
173.00	-45.205	154.238	
174.00	-44.507	143.315	
175.00	-43.629	136.015	
176.00	-42.816	131.228	
177.00	-42.072	128.364	
178.00	-41.489	126.830	
179.00	-41.009	126.405	
180.00	-40.665	126.535	
181.00	-40.360	127.386	
182.00	-40.203	128.623	
183.00	-40.096	130.414	
184.00	-40.078	132.695	
185.00	-40.083	135.396	
186.00	-40.119	138.392	
187.00	-40.199	142.064	
188.00	-40.240	145.959	
189.00	-40.280	150.675	
190.00	-40.216	155.303	
191.00	-40.125	160.377	
192.00	-39.909	165.709	
193.00	-39.599	171.148	
194.00	-39.173	176.545	
195.00	-38.660	-178.572	
196.00	-38.037	-174.043	
197.00	-37.364	-169.833	
198.00	-36.633	-166.141	
199.00	-35.894	-162.985	
200.00	-35.157	-160.121	
201.00	-34.396	-157.561	
202.00	-33.628	-155.458	
203.00	-32.879	-153.525	
204.00	-32.138	-151.835	
205.00	-31.440	-150.286	
206.00	-30.763	-148.981	
207.00	-30.110	-147.830	
208.00	-29.483	-146.732	
209.00	-28.895	-145.794	
210.00	-28.332	-144.960	
211.00	-27.814	-144.232	
212.00	-27.324	-143.534	
213.00	-26.876	-142.979	
214.00	-26.455	-142.446	
215.00	-26.065	-142.036	
216.00	-25.726	-141.669	
217.00	-25.403	-141.315	
218.00	-25.124	-141.075	
219.00	-24.878	-140.872	
220.00	-24.665	-140.719	
221.00	-24.486	-140.627	
222.00	-24.341	-140.636	
223.00	-24.223	-140.646	
224.00	-24.138	-140.771	
225.00	-24.079	-140.871	
226.00	-24.055	-140.974	
227.00	-24.062	-141.182	
228.00	-24.093	-141.493	
229.00	-24.146	-141.749	
230.00	-24.228	-142.114	
231.00	-24.333	-142.481	
232.00	-24.463	-142.957	
233.00	-24.616	-143.461	
234.00	-24.796	-144.025	
235.00	-24.992	-144.639	
236.00	-25.203	-145.316	
237.00	-25.442	-146.077	
238.00	-25.700	-146.928	
239.00	-25.976	-147.829	
240.00	-26.268	-148.776	
241.00	-26.584	-149.795	
242.00	-26.919	-150.969	
243.00	-27.268	-152.160	
244.00	-27.633	-153.483	
245.00	-28.034	-154.952	
246.00	-28.437	-156.531	
247.00	-28.862	-158.127	
248.00	-29.315	-159.978	
249.00	-29.780	-161.901	
250.00	-30.251	-164.039	
251.00	-30.746	-166.293	
252.00	-31.247	-168.754	
253.00	-31.763	-171.361	
254.00	-32.283	-174.233	
255.00	-32.805	-177.307	
256.00	-33.311	179.519	
257.00	-33.826	176.078	
258.00	-34.303	172.478	
259.00	-34.766	168.781	
260.00	-35.189	165.164	
261.00	-35.605	161.391	
262.00	-35.980	157.569	
263.00	-36.303	154.224	
264.00	-36.618	150.823	
265.00	-36.907	147.843	
266.00	-37.176	145.137	
267.00	-37.418	142.921	
268.00	-37.655	141.150	
269.00	-37.889	140.023	
270.00	-38.125	139.465	
271.00	-38.341	139.574	
272.00	-38.563	140.086	
273.00	-38.777	141.794	
274.00	-38.986	143.991	
275.00	-39.120	147.106	
276.00	-39.247	150.964	
277.00	-39.262	155.383	
278.00	-39.183	160.540	
279.00	-38.967	165.806	
280.00	-38.629	171.226	
281.00	-38.202	176.600	
282.00	-37.676	-178.357	
283.00	-37.081	-173.634	
284.00	-36.430	-169.354	
285.00	-35.728	-165.646	
286.00	-35.053	-162.306	
287.00	-34.380	-159.482	
288.00	-33.722	-156.883	
289.00	-33.090	-154.754	
290.00	-32.464	-152.912	
291.00	-31.879	-151.115	
292.00	-31.314	-149.646	
293.00	-30.797	-148.338	
294.00	-30.297	-147.067	
295.00	-29.838	-145.944	
296.00	-29.393	-144.941	
297.00	-28.984	-143.988	
298.00	-28.604	-143.117	
299.00	-28.236	-142.298	
300.00	-27.909	-141.529	
301.00	-27.601	-140.781	
302.00	-27.312	-140.181	
303.00	-27.047	-139.506	
304.00	-26.806	-138.872	
305.00	-26.582	-138.316	
306.00	-26.378	-137.770	
307.00	-26.200	-137.274	
308.00	-26.031	-136.866	
309.00	-25.891	-136.457	
310.00	-25.761	-136.100	
311.00	-25.659	-135.804	
312.00	-25.570	-135.561	
313.00	-25.495	-135.349	
314.00	-25.436	-135.224	
315.00	-25.391	-135.183	
316.00	-25.369	-135.209	
317.00	-25.359	-135.279	
318.00	-25.367	-135.432	
319.00	-25.386	-135.599	
320.00	-25.425	-135.841	
321.00	-25.484	-136.170	
322.00	-25.552	-136.522	
323.00	-25.642	-136.937	
324.00	-25.749	-137.418	
325.00	-25.884	-137.909	
326.00	-26.025	-138.419	
327.00	-26.206	-138.917	
328.00	-26.402	-139.496	
329.00	-26.642	-140.085	
330.00	-26.903	-140.668	
331.00	-27.196	-141.255	
332.00	-27.529	-141.841	
333.00	-27.913	-142.383	
334.00	-28.337	-143.107	
335.00	-28.822	-143.811	
336.00	-29.346	-144.557	
337.00	-29.941	-145.436	
338.00	-30.589	-146.484	
339.00	-31.307	-147.693	
340.00	-32.117	-149.221	
341.00	-32.983	-151.023	
342.00	-33.931	-153.394	
343.00	-34.937	-156.328	
344.00	-36.016	-160.212	
345.00	-37.145	-165.192	
346.00	-38.282	-171.495	
347.00	-39.319	-179.470	
348.00	-40.157	171.014	
349.00	-40.684	160.582	
350.00	-40.903	150.146	
351.00	-40.810	140.686	
352.00	-40.486	132.411	
353.00	-40.111	125.647	
354.00	-39.678	120.371	
355.00	-39.325	116.067	
356.00	-39.003	112.522	
357.00	-38.729	109.632	
358.00	-38.569	107.238	
359.00	-38.481	105.377	
Frequency	2450.00	MHz	
Channel	test		
Scan Axis name	Azimuth  [deg]		
Scan Axis	Amplitude	Phase	
			
0.00	-37.380	-129.143	
1.00	-36.756	-132.776	
2.00	-36.198	-135.329	
3.00	-35.682	-136.831	
4.00	-35.249	-137.498	
5.00	-34.879	-137.248	
6.00	-34.620	-136.604	
7.00	-34.441	-135.342	
8.00	-34.404	-133.740	
9.00	-34.415	-131.435	
10.00	-34.484	-128.885	
11.00	-34.742	-125.606	
12.00	-35.062	-121.719	
13.00	-35.502	-117.337	
14.00	-36.076	-112.356	
15.00	-36.746	-106.021	
16.00	-37.497	-98.452	
17.00	-38.300	-89.290	
18.00	-39.017	-77.673	
19.00	-39.469	-64.112	
20.00	-39.559	-49.480	
21.00	-39.143	-34.613	
22.00	-38.321	-21.527	
23.00	-37.264	-10.981	
24.00	-36.141	-2.580	
25.00	-35.027	3.884	
26.00	-33.997	8.936	
27.00	-33.042	12.781	
28.00	-32.145	15.797	
29.00	-31.328	18.021	
30.00	-30.577	19.838	
31.00	-29.879	21.195	
32.00	-29.229	22.229	
33.00	-28.631	23.038	
34.00	-28.069	23.687	
35.00	-27.533	24.224	
36.00	-27.040	24.663	
37.00	-26.582	25.109	
38.00	-26.152	25.503	
39.00	-25.763	25.969	
40.00	-25.402	26.394	
41.00	-25.074	26.877	
42.00	-24.781	27.443	
43.00	-24.528	28.083	
44.00	-24.315	28.725	
45.00	-24.125	29.504	
46.00	-23.983	30.326	
47.00	-23.872	31.176	
48.00	-23.798	32.083	
49.00	-23.765	32.970	
50.00	-23.766	33.918	
51.00	-23.810	34.829	
52.00	-23.891	35.776	
53.00	-23.999	36.717	
54.00	-24.144	37.736	
55.00	-24.348	38.757	
56.00	-24.577	39.673	
57.00	-24.848	40.604	
58.00	-25.167	41.510	
59.00	-25.530	42.418	
60.00	-25.926	43.240	
61.00	-26.373	43.996	
62.00	-26.871	44.707	
63.00	-27.403	45.384	
64.00	-28.004	46.016	
65.00	-28.669	46.482	
66.00	-29.380	46.873	
67.00	-30.159	47.064	
68.00	-31.033	47.158	
69.00	-31.980	47.049	
70.00	-33.039	46.621	
71.00	-34.195	45.804	
72.00	-35.489	44.621	
73.00	-36.924	42.697	
74.00	-38.581	39.686	
75.00	-40.483	35.132	
76.00	-42.592	27.301	
77.00	-44.884	15.494	
78.00	-46.864	-3.847	
79.00	-47.518	-29.072	
80.00	-46.637	-51.036	
81.00	-45.072	-66.087	
82.00	-43.494	-75.507	
83.00	-42.170	-80.984	
84.00	-41.074	-84.401	
85.00	-40.172	-86.746	
86.00	-39.467	-88.031	
87.00	-38.903	-88.608	
88.00	-38.489	-88.765	
89.00	-38.179	-88.436	
90.00	-37.948	-87.803	
91.00	-37.821	-86.584	
92.00	-37.778	-85.214	
93.00	-37.789	-83.313	
94.00	-37.878	-80.819	
95.00	-37.993	-77.852	
96.00	-38.163	-74.436	
97.00	-38.337	-70.115	
98.00	-38.502	-65.115	
99.00	-38.640	-59.396	
100.00	-38.692	-53.209	
101.00	-38.650	-46.222	
102.00	-38.451	-38.869	
103.00	-38.135	-31.535	
104.00	-37.663	-24.372	
105.00	-37.089	-17.815	
106.00	-36.416	-11.902	
107.00	-35.710	-6.594	
108.00	-34.965	-2.045	
109.00	-34.234	1.897	
110.00	-33.504	5.305	
111.00	-32.806	8.273	
112.00	-32.154	10.812	
113.00	-31.518	12.981	
114.00	-30.926	14.979	
115.00	-30.367	16.714	
116.00	-29.845	18.322	
117.00	-29.357	19.753	
118.00	-28.895	21.082	
119.00	-28.472	22.343	
120.00	-28.076	23.454	
121.00	-27.704	24.603	
122.00	-27.361	25.677	
123.00	-27.047	26.672	
124.00	-26.744	27.647	
125.00	-26.471	28.662	
126.00	-26.222	29.616	
127.00	-25.983	30.492	
128.00	-25.765	31.449	
129.00	-25.558	32.291	
130.00	-25.379	33.118	
131.00	-25.218	33.927	
132.00	-25.070	34.665	
133.00	-24.945	35.316	
134.00	-24.825	35.977	
135.00	-24.733	36.564	
136.00	-24.658	37.040	
137.00	-24.592	37.447	
138.00	-24.545	37.793	
139.00	-24.530	38.013	
140.00	-24.523	38.220	
141.00	-24.524	38.345	
142.00	-24.547	38.356	
143.00	-24.602	38.261	
144.00	-24.679	38.089	
145.00	-24.792	37.830	
146.00	-24.916	37.534	
147.00	-25.067	37.140	
148.00	-25.249	36.732	
149.00	-25.464	36.204	
150.00	-25.698	35.646	
151.00	-25.959	35.095	
152.00	-26.257	34.462	
153.00	-26.583	33.770	
154.00	-26.947	33.047	
155.00	-27.355	32.259	
156.00	-27.794	31.446	
157.00	-28.284	30.469	
158.00	-28.827	29.398	
159.00	-29.416	28.133	
160.00	-30.053	26.551	
161.00	-30.772	24.762	
162.00	-31.547	22.341	
163.00	-32.402	19.543	
164.00	-33.324	16.002	
165.00	-34.333	11.282	
166.00	-35.358	5.268	
167.00	-36.399	-2.296	
168.00	-37.318	-12.013	
169.00	-37.993	-23.165	
170.00	-38.305	-35.388	
171.00	-38.221	-47.554	
172.00	-37.835	-58.418	
173.00	-37.256	-67.242	
174.00	-36.645	-74.548	
175.00	-36.058	-80.245	
176.00	-35.556	-84.541	
177.00	-35.184	-88.132	
178.00	-34.927	-90.753	
179.00	-34.804	-92.810	
180.00	-34.815	-94.339	
181.00	-34.961	-95.398	
182.00	-35.256	-96.037	
183.00	-35.681	-96.194	
184.00	-36.277	-95.658	
185.00	-37.057	-94.666	
186.00	-37.971	-92.480	
187.00	-39.079	-89.322	
188.00	-40.366	-83.988	
189.00	-41.721	-75.940	
190.00	-42.987	-63.902	
191.00	-43.728	-48.111	
192.00	-43.567	-31.320	
193.00	-42.611	-16.936	
194.00	-41.243	-6.657	
195.00	-39.868	0.355	
196.00	-38.517	4.598	
197.00	-37.307	7.338	
198.00	-36.182	8.779	
199.00	-35.182	9.571	
200.00	-34.288	9.789	
201.00	-33.431	9.805	
202.00	-32.616	9.705	
203.00	-31.879	9.426	
204.00	-31.161	9.264	
205.00	-30.481	9.053	
206.00	-29.852	8.979	
207.00	-29.249	8.888	
208.00	-28.667	9.055	
209.00	-28.118	9.164	
210.00	-27.604	9.427	
211.00	-27.115	9.740	
212.00	-26.654	10.100	
213.00	-26.228	10.499	
214.00	-25.831	10.925	
215.00	-25.455	11.395	
216.00	-25.113	11.866	
217.00	-24.803	12.314	
218.00	-24.516	12.720	
219.00	-24.266	13.112	
220.00	-24.047	13.427	
221.00	-23.855	13.709	
222.00	-23.691	13.937	
223.00	-23.561	14.091	
224.00	-23.458	14.131	
225.00	-23.382	14.181	
226.00	-23.330	14.197	
227.00	-23.313	14.053	
228.00	-23.321	13.848	
229.00	-23.353	13.576	
230.00	-23.410	13.232	
231.00	-23.496	12.809	
232.00	-23.602	12.250	
233.00	-23.735	11.641	
234.00	-23.890	10.940	
235.00	-24.065	10.167	
236.00	-24.261	9.286	
237.00	-24.483	8.324	
238.00	-24.724	7.229	
239.00	-24.977	6.125	
240.00	-25.253	4.924	
241.00	-25.546	3.620	
242.00	-25.868	2.226	
243.00	-26.197	0.767	
244.00	-26.548	-0.836	
245.00	-26.927	-2.456	
246.00	-27.316	-4.226	
247.00	-27.726	-6.060	
248.00	-28.164	-8.055	
249.00	-28.617	-10.079	
250.00	-29.098	-12.264	
251.00	-29.602	-14.715	
252.00	-30.122	-17.180	
253.00	-30.664	-19.884	
254.00	-31.220	-22.719	
255.00	-31.798	-25.909	
256.00	-32.419	-29.239	
257.00	-33.021	-32.819	
258.00	-33.654	-36.698	
259.00	-34.261	-40.891	
260.00	-34.872	-45.313	
261.00	-35.475	-49.970	
262.00	-36.068	-55.082	
263.00	-36.630	-60.189	
264.00	-37.154	-65.464	
265.00	-37.646	-70.880	
266.00	-38.103	-76.403	
267.00	-38.517	-81.768	
268.00	-38.902	-86.671	
269.00	-39.273	-91.337	
270.00	-39.661	-95.880	
271.00	-40.049	-99.520	
272.00	-40.495	-102.816	
273.00	-41.010	-105.503	
274.00	-41.577	-107.510	
275.00	-42.283	-108.638	
276.00	-43.110	-109.013	
277.00	-44.119	-108.068	
278.00	-45.300	-105.200	
279.00	-46.750	-99.369	
280.00	-48.270	-89.122	
281.00	-49.517	-71.541	
282.00	-49.588	-49.243	
283.00	-48.286	-28.689	
284.00	-46.209	-14.560	
285.00	-44.040	-5.428	
286.00	-42.113	-0.209	
287.00	-40.399	3.294	
288.00	-38.905	5.524	
289.00	-37.554	6.977	
290.00	-36.352	7.822	
291.00	-35.270	8.446	
292.00	-34.285	8.788	
293.00	-33.396	8.989	
294.00	-32.598	9.132	
295.00	-31.841	9.099	
296.00	-31.157	9.172	
297.00	-30.524	9.142	
298.00	-29.951	9.019	
299.00	-29.416	8.932	
300.00	-28.923	8.855	
301.00	-28.467	8.780	
302.00	-28.048	8.687	
303.00	-27.671	8.585	
304.00	-27.314	8.544	
305.00	-26.984	8.466	
306.00	-26.686	8.392	
307.00	-26.410	8.281	
308.00	-26.152	8.288	
309.00	-25.925	8.203	
310.00	-25.712	8.140	
311.00	-25.528	8.093	
312.00	-25.353	8.041	
313.00	-25.213	8.053	
314.00	-25.078	8.019	
315.00	-24.959	7.987	
316.00	-24.865	7.920	
317.00	-24.784	7.942	
318.00	-24.720	7.970	
319.00	-24.672	7.975	
320.00	-24.640	7.976	
321.00	-24.630	7.948	
322.00	-24.631	7.929	
323.00	-24.657	7.924	
324.00	-24.697	7.865	
325.00	-24.773	7.790	
326.00	-24.860	7.699	
327.00	-24.979	7.540	
328.00	-25.129	7.405	
329.00	-25.314	7.144	
330.00	-25.531	6.846	
331.00	-25.785	6.437	
332.00	-26.078	5.982	
333.00	-26.406	5.414	
334.00	-26.789	4.681	
335.00	-27.220	3.797	
336.00	-27.684	2.765	
337.00	-28.205	1.431	
338.00	-28.766	-0.063	
339.00	-29.376	-1.911	
340.00	-30.024	-4.110	
341.00	-30.723	-6.621	
342.00	-31.443	-9.592	
343.00	-32.188	-12.959	
344.00	-32.952	-16.803	
345.00	-33.721	-21.245	
346.00	-34.479	-26.125	
347.00	-35.204	-31.569	
348.00	-35.884	-37.271	
349.00	-36.544	-43.604	
350.00	-37.111	-50.171	
351.00	-37.628	-57.035	
352.00	-38.041	-64.326	
353.00	-38.354	-71.631	
354.00	-38.576	-79.109	
355.00	-38.644	-86.403	
356.00	-38.613	-93.482	
357.00	-38.469	-100.197	
358.00	-38.213	-106.415	
359.00	-37.914	-110.863	
Frequency	2500.00	MHz	
Channel	test		
Scan Axis name	Azimuth  [deg]		
Scan Axis	Amplitude	Phase	
			
0.00	-31.656	29.562	
1.00	-31.347	30.274	
2.00	-31.138	31.298	
3.00	-30.994	32.682	
4.00	-30.939	34.367	
5.00	-30.959	36.319	
6.00	-31.052	38.479	
7.00	-31.208	40.927	
8.00	-31.432	43.787	
9.00	-31.701	46.929	
10.00	-32.032	50.305	
11.00	-32.405	54.163	
12.00	-32.808	58.374	
13.00	-33.253	63.140	
14.00	-33.685	68.295	
15.00	-34.127	74.258	
16.00	-34.559	80.730	
17.00	-34.918	87.747	
18.00	-35.210	95.441	
19.00	-35.356	103.559	
20.00	-35.358	111.614	
21.00	-35.204	119.955	
22.00	-34.903	127.759	
23.00	-34.474	134.951	
24.00	-33.947	141.483	
25.00	-33.355	147.333	
26.00	-32.705	152.452	
27.00	-32.054	156.875	
28.00	-31.389	160.708	
29.00	-30.742	164.034	
30.00	-30.116	166.814	
31.00	-29.525	169.348	
32.00	-28.958	171.500	
33.00	-28.437	173.296	
34.00	-27.952	174.907	
35.00	-27.504	176.399	
36.00	-27.101	177.549	
37.00	-26.739	178.713	
38.00	-26.403	179.648	
39.00	-26.120	-179.531	
40.00	-25.882	-178.838	
41.00	-25.677	-178.218	
42.00	-25.503	-177.672	
43.00	-25.373	-177.260	
44.00	-25.281	-176.911	
45.00	-25.213	-176.580	
46.00	-25.186	-176.317	
47.00	-25.186	-176.137	
48.00	-25.220	-175.982	
49.00	-25.282	-175.946	
50.00	-25.371	-175.875	
51.00	-25.489	-175.872	
52.00	-25.638	-175.910	
53.00	-25.811	-175.999	
54.00	-26.005	-176.113	
55.00	-26.239	-176.263	
56.00	-26.502	-176.482	
57.00	-26.787	-176.771	
58.00	-27.101	-177.103	
59.00	-27.445	-177.553	
60.00	-27.824	-178.036	
61.00	-28.237	-178.654	
62.00	-28.685	-179.358	
63.00	-29.155	179.746	
64.00	-29.682	178.681	
65.00	-30.251	177.399	
66.00	-30.838	175.913	
67.00	-31.478	173.999	
68.00	-32.169	171.872	
69.00	-32.883	169.240	
70.00	-33.639	165.996	
71.00	-34.402	162.145	
72.00	-35.200	157.645	
73.00	-35.979	152.114	
74.00	-36.713	145.773	
75.00	-37.358	138.271	
76.00	-37.869	130.218	
77.00	-38.180	121.408	
78.00	-38.295	112.689	
79.00	-38.205	104.155	
80.00	-37.947	96.536	
81.00	-37.629	89.630	
82.00	-37.218	83.740	
83.00	-36.815	78.649	
84.00	-36.413	74.500	
85.00	-36.038	70.705	
86.00	-35.715	67.803	
87.00	-35.429	65.171	
88.00	-35.190	63.028	
89.00	-35.029	61.315	
90.00	-34.915	59.685	
91.00	-34.863	58.465	
92.00	-34.876	57.462	
93.00	-34.953	56.928	
94.00	-35.109	56.383	
95.00	-35.337	56.336	
96.00	-35.611	56.462	
97.00	-35.996	57.051	
98.00	-36.476	58.280	
99.00	-37.075	59.693	
100.00	-37.733	62.290	
101.00	-38.548	65.747	
102.00	-39.480	70.541	
103.00	-40.434	77.514	
104.00	-41.417	87.404	
105.00	-42.211	100.336	
106.00	-42.446	116.157	
107.00	-41.995	132.617	
108.00	-40.905	146.654	
109.00	-39.494	157.775	
110.00	-38.058	165.816	
111.00	-36.650	171.862	
112.00	-35.348	176.348	
113.00	-34.192	179.647	
114.00	-33.116	-177.654	
115.00	-32.143	-175.599	
116.00	-31.261	-173.855	
117.00	-30.467	-172.517	
118.00	-29.746	-171.379	
119.00	-29.091	-170.349	
120.00	-28.495	-169.455	
121.00	-27.955	-168.806	
122.00	-27.475	-168.190	
123.00	-27.041	-167.602	
124.00	-26.655	-167.143	
125.00	-26.298	-166.730	
126.00	-25.994	-166.357	
127.00	-25.726	-166.027	
128.00	-25.490	-165.735	
129.00	-25.288	-165.527	
130.00	-25.123	-165.349	
131.00	-24.987	-165.169	
132.00	-24.886	-165.095	
133.00	-24.820	-165.052	
134.00	-24.780	-165.017	
135.00	-24.767	-165.075	
136.00	-24.783	-165.130	
137.00	-24.818	-165.248	
138.00	-24.888	-165.369	
139.00	-24.990	-165.577	
140.00	-25.103	-165.770	
141.00	-25.233	-165.954	
142.00	-25.383	-166.148	
143.00	-25.576	-166.379	
144.00	-25.785	-166.614	
145.00	-26.004	-166.857	
146.00	-26.248	-167.052	
147.00	-26.507	-167.289	
148.00	-26.782	-167.357	
149.00	-27.068	-167.427	
150.00	-27.378	-167.429	
151.00	-27.674	-167.284	
152.00	-27.994	-167.054	
153.00	-28.324	-166.758	
154.00	-28.659	-166.292	
155.00	-28.996	-165.760	
156.00	-29.351	-165.100	
157.00	-29.703	-164.426	
158.00	-30.072	-163.608	
159.00	-30.446	-162.897	
160.00	-30.822	-162.098	
161.00	-31.250	-161.406	
162.00	-31.689	-160.907	
163.00	-32.176	-160.543	
164.00	-32.705	-160.362	
165.00	-33.300	-160.531	
166.00	-33.998	-161.052	
167.00	-34.762	-162.154	
168.00	-35.653	-163.753	
169.00	-36.699	-166.317	
170.00	-37.855	-169.869	
171.00	-39.230	-175.194	
172.00	-40.756	177.152	
173.00	-42.279	166.064	
174.00	-43.603	150.672	
175.00	-44.281	131.332	
176.00	-43.935	112.236	
177.00	-42.994	96.830	
178.00	-41.874	85.538	
179.00	-40.773	77.608	
180.00	-39.930	71.948	
181.00	-39.220	67.548	
182.00	-38.768	64.122	
183.00	-38.494	61.398	
184.00	-38.406	59.231	
185.00	-38.493	57.250	
186.00	-38.779	55.453	
187.00	-39.272	53.872	
188.00	-39.962	52.571	
189.00	-40.932	51.372	
190.00	-42.186	50.497	
191.00	-43.840	50.114	
192.00	-46.078	50.608	
193.00	-49.194	53.764	
194.00	-54.423	67.186	
195.00	-59.920	130.168	
196.00	-53.190	-176.874	
197.00	-48.071	-166.906	
198.00	-44.651	-164.997	
199.00	-42.114	-165.261	
200.00	-40.125	-166.255	
201.00	-38.404	-168.065	
202.00	-36.881	-169.901	
203.00	-35.580	-171.876	
204.00	-34.372	-173.837	
205.00	-33.293	-175.724	
206.00	-32.311	-177.542	
207.00	-31.408	-179.256	
208.00	-30.558	179.307	
209.00	-29.788	177.875	
210.00	-29.082	176.696	
211.00	-28.428	175.650	
212.00	-27.841	174.764	
213.00	-27.300	173.951	
214.00	-26.813	173.367	
215.00	-26.360	172.799	
216.00	-25.961	172.428	
217.00	-25.610	172.120	
218.00	-25.290	171.883	
219.00	-25.012	171.755	
220.00	-24.769	171.656	
221.00	-24.553	171.612	
222.00	-24.373	171.598	
223.00	-24.222	171.609	
224.00	-24.097	171.569	
225.00	-23.995	171.633	
226.00	-23.923	171.641	
227.00	-23.868	171.618	
228.00	-23.841	171.535	
229.00	-23.826	171.378	
230.00	-23.837	171.229	
231.00	-23.864	170.942	
232.00	-23.920	170.577	
233.00	-23.993	170.167	
234.00	-24.088	169.642	
235.00	-24.203	169.059	
236.00	-24.339	168.332	
237.00	-24.500	167.521	
238.00	-24.670	166.655	
239.00	-24.874	165.670	
240.00	-25.098	164.570	
241.00	-25.335	163.418	
242.00	-25.606	162.150	
243.00	-25.885	160.780	
244.00	-26.199	159.336	
245.00	-26.531	157.778	
246.00	-26.896	156.143	
247.00	-27.277	154.409	
248.00	-27.688	152.429	
249.00	-28.121	150.461	
250.00	-28.589	148.348	
251.00	-29.080	145.943	
252.00	-29.606	143.410	
253.00	-30.162	140.713	
254.00	-30.725	137.711	
255.00	-31.325	134.409	
256.00	-31.968	130.917	
257.00	-32.607	127.032	
258.00	-33.256	122.694	
259.00	-33.908	117.941	
260.00	-34.522	112.944	
261.00	-35.126	107.315	
262.00	-35.664	101.152	
263.00	-36.169	95.069	
264.00	-36.575	88.471	
265.00	-36.897	81.780	
266.00	-37.160	75.417	
267.00	-37.330	68.984	
268.00	-37.467	63.190	
269.00	-37.538	57.947	
270.00	-37.567	53.042	
271.00	-37.637	48.722	
272.00	-37.712	44.863	
273.00	-37.815	41.624	
274.00	-37.956	38.979	
275.00	-38.206	36.723	
276.00	-38.457	34.959	
277.00	-38.853	33.677	
278.00	-39.304	32.984	
279.00	-39.922	32.789	
280.00	-40.641	33.496	
281.00	-41.520	35.544	
282.00	-42.582	38.837	
283.00	-43.795	44.326	
284.00	-45.176	53.453	
285.00	-46.411	67.431	
286.00	-46.928	86.309	
287.00	-46.309	107.046	
288.00	-44.701	123.644	
289.00	-42.816	134.968	
290.00	-40.964	142.286	
291.00	-39.244	147.253	
292.00	-37.746	150.519	
293.00	-36.390	152.695	
294.00	-35.164	154.313	
295.00	-34.049	155.581	
296.00	-33.060	156.351	
297.00	-32.136	156.959	
298.00	-31.302	157.428	
299.00	-30.532	157.821	
300.00	-29.824	157.962	
301.00	-29.179	158.189	
302.00	-28.568	158.315	
303.00	-28.024	158.413	
304.00	-27.513	158.528	
305.00	-27.041	158.650	
306.00	-26.612	158.730	
307.00	-26.221	158.824	
308.00	-25.867	158.917	
309.00	-25.552	159.043	
310.00	-25.266	159.194	
311.00	-25.017	159.307	
312.00	-24.806	159.504	
313.00	-24.623	159.697	
314.00	-24.473	159.876	
315.00	-24.355	160.084	
316.00	-24.271	160.301	
317.00	-24.217	160.542	
318.00	-24.194	160.775	
319.00	-24.209	161.052	
320.00	-24.241	161.267	
321.00	-24.313	161.501	
322.00	-24.416	161.725	
323.00	-24.554	161.905	
324.00	-24.712	162.086	
325.00	-24.913	162.203	
326.00	-25.140	162.265	
327.00	-25.392	162.275	
328.00	-25.690	162.250	
329.00	-26.006	162.124	
330.00	-26.366	161.867	
331.00	-26.755	161.600	
332.00	-27.173	161.207	
333.00	-27.621	160.732	
334.00	-28.108	160.123	
335.00	-28.641	159.375	
336.00	-29.200	158.510	
337.00	-29.801	157.484	
338.00	-30.456	156.161	
339.00	-31.150	154.734	
340.00	-31.901	153.012	
341.00	-32.735	150.885	
342.00	-33.620	148.329	
343.00	-34.593	145.215	
344.00	-35.626	141.222	
345.00	-36.782	135.915	
346.00	-37.973	129.097	
347.00	-39.163	119.879	
348.00	-40.173	108.079	
349.00	-40.757	93.421	
350.00	-40.716	78.440	
351.00	-40.038	64.536	
352.00	-38.976	53.834	
353.00	-37.864	46.079	
354.00	-36.750	40.531	
355.00	-35.722	36.708	
356.00	-34.818	34.276	
357.00	-34.050	32.760	
358.00	-33.390	31.988	
359.00	-32.928	31.767	
Frequency	2550.00	MHz	
Channel	test		
Scan Axis name	Azimuth  [deg]		
Scan Axis	Amplitude	Phase	
			
0.00	-34.197	-154.936	
1.00	-34.342	-153.766	
2.00	-34.622	-152.252	
3.00	-35.016	-150.264	
4.00	-35.545	-147.862	
5.00	-36.252	-144.922	
6.00	-37.052	-141.411	
7.00	-38.022	-137.193	
8.00	-39.096	-131.622	
9.00	-40.257	-124.545	
10.00	-41.287	-115.771	
11.00	-42.259	-104.939	
12.00	-42.853	-92.665	
13.00	-42.925	-79.998	
14.00	-42.546	-68.984	
15.00	-41.819	-59.948	
16.00	-40.977	-53.218	
17.00	-40.013	-48.353	
18.00	-39.016	-45.126	
19.00	-38.074	-42.686	
20.00	-37.130	-41.063	
21.00	-36.184	-39.489	
22.00	-35.267	-38.353	
23.00	-34.402	-37.189	
24.00	-33.528	-35.963	
25.00	-32.698	-34.827	
26.00	-31.901	-33.558	
27.00	-31.148	-32.334	
28.00	-30.451	-31.004	
29.00	-29.784	-29.749	
30.00	-29.174	-28.554	
31.00	-28.602	-27.368	
32.00	-28.085	-26.234	
33.00	-27.609	-25.273	
34.00	-27.185	-24.387	
35.00	-26.799	-23.508	
36.00	-26.461	-22.848	
37.00	-26.151	-22.227	
38.00	-25.890	-21.799	
39.00	-25.667	-21.490	
40.00	-25.472	-21.215	
41.00	-25.301	-21.169	
42.00	-25.166	-21.175	
43.00	-25.055	-21.229	
44.00	-24.974	-21.509	
45.00	-24.915	-21.648	
46.00	-24.868	-21.950	
47.00	-24.838	-22.238	
48.00	-24.831	-22.623	
49.00	-24.839	-22.981	
50.00	-24.865	-23.262	
51.00	-24.903	-23.587	
52.00	-24.974	-23.861	
53.00	-25.052	-24.111	
54.00	-25.152	-24.304	
55.00	-25.284	-24.422	
56.00	-25.438	-24.566	
57.00	-25.617	-24.689	
58.00	-25.817	-24.779	
59.00	-26.057	-24.853	
60.00	-26.327	-24.969	
61.00	-26.623	-25.077	
62.00	-26.961	-25.232	
63.00	-27.330	-25.450	
64.00	-27.729	-25.796	
65.00	-28.193	-26.234	
66.00	-28.675	-26.814	
67.00	-29.215	-27.569	
68.00	-29.790	-28.675	
69.00	-30.401	-29.914	
70.00	-31.077	-31.563	
71.00	-31.789	-33.645	
72.00	-32.560	-36.285	
73.00	-33.348	-39.480	
74.00	-34.163	-43.486	
75.00	-34.986	-48.427	
76.00	-35.784	-54.426	
77.00	-36.504	-61.513	
78.00	-37.058	-69.656	
79.00	-37.433	-78.501	
80.00	-37.569	-87.442	
81.00	-37.483	-96.253	
82.00	-37.198	-104.325	
83.00	-36.783	-111.173	
84.00	-36.313	-117.062	
85.00	-35.833	-121.865	
86.00	-35.361	-125.801	
87.00	-34.909	-128.956	
88.00	-34.501	-131.564	
89.00	-34.160	-133.669	
90.00	-33.869	-135.216	
91.00	-33.643	-136.448	
92.00	-33.476	-137.380	
93.00	-33.360	-137.971	
94.00	-33.327	-138.332	
95.00	-33.324	-138.449	
96.00	-33.388	-138.301	
97.00	-33.506	-137.886	
98.00	-33.702	-137.117	
99.00	-33.953	-136.188	
100.00	-34.279	-134.738	
101.00	-34.653	-132.893	
102.00	-35.125	-130.764	
103.00	-35.628	-127.776	
104.00	-36.236	-124.213	
105.00	-36.859	-119.531	
106.00	-37.559	-113.567	
107.00	-38.215	-106.520	
108.00	-38.807	-97.562	
109.00	-39.156	-86.949	
110.00	-39.245	-75.716	
111.00	-38.980	-64.208	
112.00	-38.369	-53.302	
113.00	-37.569	-43.985	
114.00	-36.611	-36.190	
115.00	-35.635	-29.936	
116.00	-34.682	-24.901	
117.00	-33.771	-20.825	
118.00	-32.906	-17.708	
119.00	-32.112	-15.065	
120.00	-31.380	-12.993	
121.00	-30.716	-11.363	
122.00	-30.099	-10.077	
123.00	-29.540	-9.104	
124.00	-29.038	-8.282	
125.00	-28.571	-7.716	
126.00	-28.156	-7.325	
127.00	-27.786	-7.099	
128.00	-27.443	-7.072	
129.00	-27.150	-7.097	
130.00	-26.886	-7.239	
131.00	-26.653	-7.516	
132.00	-26.466	-7.846	
133.00	-26.297	-8.332	
134.00	-26.164	-8.784	
135.00	-26.050	-9.407	
136.00	-25.975	-10.004	
137.00	-25.907	-10.680	
138.00	-25.881	-11.409	
139.00	-25.884	-12.178	
140.00	-25.891	-12.948	
141.00	-25.937	-13.717	
142.00	-26.005	-14.552	
143.00	-26.093	-15.388	
144.00	-26.214	-16.251	
145.00	-26.358	-17.152	
146.00	-26.517	-18.018	
147.00	-26.725	-18.880	
148.00	-26.943	-19.751	
149.00	-27.206	-20.592	
150.00	-27.496	-21.380	
151.00	-27.827	-22.128	
152.00	-28.200	-22.788	
153.00	-28.616	-23.440	
154.00	-29.079	-23.934	
155.00	-29.614	-24.275	
156.00	-30.174	-24.565	
157.00	-30.809	-24.663	
158.00	-31.532	-24.651	
159.00	-32.314	-24.469	
160.00	-33.189	-23.992	
161.00	-34.162	-23.304	
162.00	-35.223	-22.438	
163.00	-36.409	-21.005	
164.00	-37.734	-18.926	
165.00	-39.233	-16.427	
166.00	-40.886	-13.015	
167.00	-42.673	-8.441	
168.00	-44.679	-1.953	
169.00	-46.856	6.414	
170.00	-49.085	17.544	
171.00	-51.300	32.188	
172.00	-53.276	50.239	
173.00	-54.575	70.074	
174.00	-55.752	90.762	
175.00	-56.667	112.105	
176.00	-57.285	136.749	
177.00	-57.388	163.876	
178.00	-55.862	-169.045	
179.00	-53.656	-148.189	
180.00	-51.419	-135.682	
181.00	-49.403	-127.426	
182.00	-47.656	-120.839	
183.00	-46.301	-116.062	
184.00	-45.136	-112.350	
185.00	-44.259	-109.410	
186.00	-43.550	-106.873	
187.00	-42.995	-104.123	
188.00	-42.565	-101.482	
189.00	-42.337	-98.448	
190.00	-42.188	-95.068	
191.00	-42.102	-90.665	
192.00	-42.060	-85.653	
193.00	-41.958	-79.929	
194.00	-41.754	-73.171	
195.00	-41.374	-65.574	
196.00	-40.752	-58.069	
197.00	-39.947	-50.977	
198.00	-38.953	-45.094	
199.00	-37.891	-40.166	
200.00	-36.804	-36.496	
201.00	-35.690	-33.770	
202.00	-34.606	-31.980	
203.00	-33.591	-30.798	
204.00	-32.623	-30.157	
205.00	-31.729	-29.873	
206.00	-30.902	-29.952	
207.00	-30.143	-30.318	
208.00	-29.434	-30.681	
209.00	-28.790	-31.172	
210.00	-28.203	-31.828	
211.00	-27.665	-32.508	
212.00	-27.180	-33.126	
213.00	-26.750	-33.820	
214.00	-26.355	-34.488	
215.00	-26.007	-35.154	
216.00	-25.710	-35.835	
217.00	-25.446	-36.439	
218.00	-25.218	-37.018	
219.00	-25.030	-37.546	
220.00	-24.872	-38.102	
221.00	-24.745	-38.573	
222.00	-24.637	-39.069	
223.00	-24.563	-39.516	
224.00	-24.510	-40.048	
225.00	-24.475	-40.447	
226.00	-24.461	-40.851	
227.00	-24.469	-41.270	
228.00	-24.489	-41.697	
229.00	-24.526	-42.199	
230.00	-24.583	-42.623	
231.00	-24.658	-43.163	
232.00	-24.744	-43.716	
233.00	-24.851	-44.303	
234.00	-24.972	-44.970	
235.00	-25.111	-45.703	
236.00	-25.266	-46.433	
237.00	-25.430	-47.317	
238.00	-25.620	-48.198	
239.00	-25.820	-49.157	
240.00	-26.045	-50.242	
241.00	-26.277	-51.361	
242.00	-26.527	-52.627	
243.00	-26.798	-53.899	
244.00	-27.092	-55.315	
245.00	-27.403	-56.856	
246.00	-27.732	-58.431	
247.00	-28.084	-60.183	
248.00	-28.459	-62.014	
249.00	-28.841	-64.006	
250.00	-29.259	-66.027	
251.00	-29.679	-68.296	
252.00	-30.115	-70.613	
253.00	-30.564	-73.103	
254.00	-31.036	-75.775	
255.00	-31.520	-78.642	
256.00	-31.992	-81.651	
257.00	-32.454	-84.794	
258.00	-32.923	-88.117	
259.00	-33.382	-91.571	
260.00	-33.802	-95.002	
261.00	-34.222	-98.590	
262.00	-34.613	-102.128	
263.00	-34.936	-105.542	
264.00	-35.249	-108.796	
265.00	-35.541	-111.887	
266.00	-35.804	-114.688	
267.00	-36.042	-117.025	
268.00	-36.245	-119.177	
269.00	-36.431	-120.840	
270.00	-36.601	-121.843	
271.00	-36.762	-122.418	
272.00	-36.918	-122.455	
273.00	-37.064	-121.907	
274.00	-37.170	-120.725	
275.00	-37.276	-118.912	
276.00	-37.340	-116.556	
277.00	-37.346	-113.718	
278.00	-37.293	-110.517	
279.00	-37.194	-106.761	
280.00	-37.014	-102.795	
281.00	-36.732	-98.720	
282.00	-36.397	-94.646	
283.00	-35.985	-90.599	
284.00	-35.522	-86.673	
285.00	-35.012	-83.017	
286.00	-34.465	-79.726	
287.00	-33.883	-76.588	
288.00	-33.302	-73.778	
289.00	-32.703	-71.186	
290.00	-32.136	-68.968	
291.00	-31.557	-66.900	
292.00	-30.982	-64.974	
293.00	-30.432	-63.273	
294.00	-29.902	-61.699	
295.00	-29.383	-60.209	
296.00	-28.881	-58.898	
297.00	-28.404	-57.569	
298.00	-27.949	-56.396	
299.00	-27.508	-55.299	
300.00	-27.087	-54.197	
301.00	-26.697	-53.157	
302.00	-26.320	-52.227	
303.00	-25.970	-51.237	
304.00	-25.643	-50.360	
305.00	-25.346	-49.492	
306.00	-25.068	-48.656	
307.00	-24.819	-47.833	
308.00	-24.598	-47.058	
309.00	-24.408	-46.353	
310.00	-24.246	-45.615	
311.00	-24.111	-44.955	
312.00	-24.004	-44.306	
313.00	-23.939	-43.706	
314.00	-23.900	-43.099	
315.00	-23.892	-42.633	
316.00	-23.918	-42.153	
317.00	-23.983	-41.779	
318.00	-24.085	-41.446	
319.00	-24.218	-41.194	
320.00	-24.386	-41.064	
321.00	-24.592	-41.040	
322.00	-24.828	-41.163	
323.00	-25.097	-41.368	
324.00	-25.410	-41.750	
325.00	-25.758	-42.254	
326.00	-26.129	-42.960	
327.00	-26.534	-43.759	
328.00	-26.970	-44.712	
329.00	-27.438	-45.944	
330.00	-27.919	-47.193	
331.00	-28.430	-48.572	
332.00	-28.959	-50.046	
333.00	-29.496	-51.593	
334.00	-30.064	-53.213	
335.00	-30.653	-54.928	
336.00	-31.260	-56.768	
337.00	-31.888	-58.456	
338.00	-32.567	-60.337	
339.00	-33.278	-62.400	
340.00	-34.023	-64.624	
341.00	-34.836	-67.193	
342.00	-35.690	-70.157	
343.00	-36.580	-73.939	
344.00	-37.531	-78.831	
345.00	-38.497	-85.012	
346.00	-39.334	-93.241	
347.00	-39.982	-103.208	
348.00	-40.261	-114.531	
349.00	-40.059	-125.784	
350.00	-39.535	-135.941	
351.00	-38.739	-144.016	
352.00	-37.867	-149.977	
353.00	-37.007	-154.211	
354.00	-36.254	-157.094	
355.00	-35.584	-158.957	
356.00	-35.048	-160.060	
357.00	-34.616	-160.478	
358.00	-34.322	-160.340	
359.00	-34.181	-160.001	
Frequency	2600.00	MHz	
Channel	test		
Scan Axis name	Azimuth  [deg]		
Scan Axis	Amplitude	Phase	
			
0.00	-41.530	-17.916	
1.00	-41.518	-23.563	
2.00	-41.500	-29.026	
3.00	-41.437	-34.508	
4.00	-41.385	-39.429	
5.00	-41.360	-43.999	
6.00	-41.366	-47.907	
7.00	-41.442	-51.645	
8.00	-41.658	-54.172	
9.00	-41.973	-55.891	
10.00	-42.509	-56.887	
11.00	-43.280	-56.700	
12.00	-44.353	-55.528	
13.00	-46.007	-52.226	
14.00	-48.390	-45.492	
15.00	-52.083	-29.665	
16.00	-55.538	14.856	
17.00	-52.232	68.491	
18.00	-47.391	89.181	
19.00	-43.838	99.047	
20.00	-41.165	104.630	
21.00	-39.002	109.063	
22.00	-37.231	112.696	
23.00	-35.777	115.965	
24.00	-34.492	118.858	
25.00	-33.362	121.439	
26.00	-32.388	123.995	
27.00	-31.517	126.280	
28.00	-30.755	128.501	
29.00	-30.082	130.513	
30.00	-29.487	132.306	
31.00	-28.947	133.894	
32.00	-28.476	135.347	
33.00	-28.054	136.559	
34.00	-27.670	137.583	
35.00	-27.317	138.495	
36.00	-27.027	139.207	
37.00	-26.733	139.891	
38.00	-26.487	140.403	
39.00	-26.267	140.762	
40.00	-26.067	141.163	
41.00	-25.881	141.455	
42.00	-25.721	141.704	
43.00	-25.576	141.990	
44.00	-25.450	142.095	
45.00	-25.340	142.458	
46.00	-25.254	142.698	
47.00	-25.190	143.063	
48.00	-25.143	143.404	
49.00	-25.125	143.871	
50.00	-25.143	144.373	
51.00	-25.182	144.906	
52.00	-25.262	145.476	
53.00	-25.355	146.171	
54.00	-25.478	146.903	
55.00	-25.648	147.683	
56.00	-25.849	148.430	
57.00	-26.079	149.195	
58.00	-26.342	149.986	
59.00	-26.662	150.763	
60.00	-27.006	151.549	
61.00	-27.398	152.261	
62.00	-27.823	152.999	
63.00	-28.298	153.626	
64.00	-28.820	154.285	
65.00	-29.409	154.773	
66.00	-30.050	155.098	
67.00	-30.746	155.249	
68.00	-31.499	155.399	
69.00	-32.349	155.256	
70.00	-33.287	154.720	
71.00	-34.319	153.854	
72.00	-35.459	152.409	
73.00	-36.742	150.078	
74.00	-38.182	146.776	
75.00	-39.777	141.381	
76.00	-41.496	133.485	
77.00	-43.228	121.381	
78.00	-44.476	104.706	
79.00	-44.795	84.773	
80.00	-44.035	67.445	
81.00	-42.720	54.605	
82.00	-41.332	45.856	
83.00	-40.056	40.391	
84.00	-38.955	36.919	
85.00	-37.984	34.756	
86.00	-37.180	33.735	
87.00	-36.463	33.171	
88.00	-35.874	33.044	
89.00	-35.363	33.582	
90.00	-34.936	34.362	
91.00	-34.609	35.615	
92.00	-34.313	37.032	
93.00	-34.082	38.669	
94.00	-33.885	40.518	
95.00	-33.727	42.823	
96.00	-33.621	45.215	
97.00	-33.516	47.820	
98.00	-33.443	50.705	
99.00	-33.392	53.685	
100.00	-33.335	57.040	
101.00	-33.271	60.537	
102.00	-33.217	64.224	
103.00	-33.172	68.056	
104.00	-33.083	71.987	
105.00	-32.988	76.153	
106.00	-32.874	80.498	
107.00	-32.744	84.560	
108.00	-32.584	88.916	
109.00	-32.385	93.240	
110.00	-32.172	97.441	
111.00	-31.933	101.601	
112.00	-31.657	105.659	
113.00	-31.377	109.517	
114.00	-31.075	113.387	
115.00	-30.756	116.938	
116.00	-30.407	120.312	
117.00	-30.079	123.589	
118.00	-29.728	126.600	
119.00	-29.381	129.416	
120.00	-29.029	132.009	
121.00	-28.694	134.397	
122.00	-28.354	136.587	
123.00	-28.028	138.578	
124.00	-27.719	140.364	
125.00	-27.414	141.977	
126.00	-27.133	143.406	
127.00	-26.869	144.688	
128.00	-26.624	145.789	
129.00	-26.401	146.796	
130.00	-26.209	147.604	
131.00	-26.029	148.405	
132.00	-25.883	149.051	
133.00	-25.761	149.577	
134.00	-25.667	150.066	
135.00	-25.591	150.475	
136.00	-25.546	150.874	
137.00	-25.514	151.223	
138.00	-25.510	151.527	
139.00	-25.536	151.852	
140.00	-25.571	152.180	
141.00	-25.633	152.588	
142.00	-25.706	152.907	
143.00	-25.800	153.237	
144.00	-25.910	153.589	
145.00	-26.027	153.861	
146.00	-26.167	154.143	
147.00	-26.307	154.419	
148.00	-26.469	154.687	
149.00	-26.649	154.843	
150.00	-26.843	155.028	
151.00	-27.059	155.078	
152.00	-27.298	155.095	
153.00	-27.574	155.026	
154.00	-27.890	154.833	
155.00	-28.250	154.512	
156.00	-28.659	154.112	
157.00	-29.160	153.507	
158.00	-29.729	152.867	
159.00	-30.385	151.974	
160.00	-31.176	150.946	
161.00	-32.114	149.734	
162.00	-33.213	148.108	
163.00	-34.543	146.497	
164.00	-36.171	144.381	
165.00	-38.196	141.482	
166.00	-40.896	137.597	
167.00	-44.638	130.557	
168.00	-50.427	113.229	
169.00	-55.832	37.943	
170.00	-49.280	-12.204	
171.00	-44.867	-25.095	
172.00	-42.218	-30.970	
173.00	-40.542	-35.357	
174.00	-39.414	-38.647	
175.00	-38.716	-41.749	
176.00	-38.373	-44.635	
177.00	-38.337	-47.643	
178.00	-38.571	-50.708	
179.00	-39.086	-54.265	
180.00	-39.867	-58.070	
181.00	-40.948	-62.852	
182.00	-42.412	-68.702	
183.00	-44.302	-76.649	
184.00	-46.656	-89.403	
185.00	-49.320	-110.379	
186.00	-50.813	-145.332	
187.00	-49.456	-179.615	
188.00	-46.831	159.161	
189.00	-44.514	147.013	
190.00	-42.592	139.245	
191.00	-41.059	133.782	
192.00	-39.774	129.702	
193.00	-38.696	126.721	
194.00	-37.747	124.545	
195.00	-36.886	122.863	
196.00	-36.136	121.931	
197.00	-35.395	121.323	
198.00	-34.684	121.031	
199.00	-34.010	120.989	
200.00	-33.335	121.272	
201.00	-32.675	121.636	
202.00	-32.006	122.115	
203.00	-31.374	122.612	
204.00	-30.729	123.197	
205.00	-30.112	123.676	
206.00	-29.532	124.131	
207.00	-28.967	124.430	
208.00	-28.429	124.742	
209.00	-27.930	124.983	
210.00	-27.463	125.092	
211.00	-27.040	125.104	
212.00	-26.651	125.027	
213.00	-26.319	124.799	
214.00	-25.999	124.614	
215.00	-25.735	124.280	
216.00	-25.507	123.876	
217.00	-25.314	123.444	
218.00	-25.166	123.056	
219.00	-25.051	122.536	
220.00	-24.959	122.025	
221.00	-24.898	121.479	
222.00	-24.861	120.904	
223.00	-24.853	120.327	
224.00	-24.861	119.598	
225.00	-24.891	118.991	
226.00	-24.952	118.372	
227.00	-25.029	117.681	
228.00	-25.120	116.997	
229.00	-25.237	116.304	
230.00	-25.366	115.588	
231.00	-25.508	114.954	
232.00	-25.682	114.244	
233.00	-25.868	113.556	
234.00	-26.079	112.823	
235.00	-26.296	112.099	
236.00	-26.542	111.360	
237.00	-26.804	110.534	
238.00	-27.086	109.773	
239.00	-27.388	108.899	
240.00	-27.716	107.972	
241.00	-28.060	107.011	
242.00	-28.427	105.874	
243.00	-28.825	104.847	
244.00	-29.236	103.593	
245.00	-29.686	102.228	
246.00	-30.148	100.760	
247.00	-30.651	99.225	
248.00	-31.175	97.355	
249.00	-31.722	95.410	
250.00	-32.303	93.259	
251.00	-32.909	90.826	
252.00	-33.533	88.142	
253.00	-34.176	85.286	
254.00	-34.830	82.098	
255.00	-35.470	78.327	
256.00	-36.121	74.277	
257.00	-36.777	70.015	
258.00	-37.374	65.381	
259.00	-37.925	60.487	
260.00	-38.407	55.427	
261.00	-38.840	50.334	
262.00	-39.192	45.225	
263.00	-39.459	40.563	
264.00	-39.684	36.265	
265.00	-39.842	32.584	
266.00	-39.969	29.559	
267.00	-40.080	27.150	
268.00	-40.234	25.453	
269.00	-40.287	24.864	
270.00	-40.448	24.952	
271.00	-40.530	25.929	
272.00	-40.667	27.855	
273.00	-40.777	30.363	
274.00	-40.812	33.911	
275.00	-40.839	38.492	
276.00	-40.735	43.455	
277.00	-40.544	49.080	
278.00	-40.213	54.923	
279.00	-39.807	60.905	
280.00	-39.259	66.377	
281.00	-38.638	71.663	
282.00	-37.930	76.352	
283.00	-37.250	80.501	
284.00	-36.496	84.311	
285.00	-35.790	87.563	
286.00	-35.089	90.512	
287.00	-34.405	93.037	
288.00	-33.749	95.243	
289.00	-33.129	97.263	
290.00	-32.526	99.182	
291.00	-31.983	100.846	
292.00	-31.467	102.405	
293.00	-30.967	103.824	
294.00	-30.501	105.271	
295.00	-30.069	106.523	
296.00	-29.659	107.828	
297.00	-29.283	109.074	
298.00	-28.930	110.175	
299.00	-28.596	111.306	
300.00	-28.284	112.418	
301.00	-28.003	113.507	
302.00	-27.734	114.582	
303.00	-27.506	115.588	
304.00	-27.288	116.576	
305.00	-27.094	117.520	
306.00	-26.918	118.472	
307.00	-26.782	119.243	
308.00	-26.663	120.004	
309.00	-26.568	120.723	
310.00	-26.489	121.355	
311.00	-26.453	121.871	
312.00	-26.438	122.348	
313.00	-26.444	122.696	
314.00	-26.475	122.862	
315.00	-26.540	122.974	
316.00	-26.628	122.935	
317.00	-26.739	122.713	
318.00	-26.878	122.354	
319.00	-27.043	121.810	
320.00	-27.224	121.036	
321.00	-27.428	120.110	
322.00	-27.654	118.975	
323.00	-27.887	117.647	
324.00	-28.133	116.121	
325.00	-28.390	114.460	
326.00	-28.663	112.620	
327.00	-28.938	110.656	
328.00	-29.221	108.623	
329.00	-29.502	106.502	
330.00	-29.793	104.486	
331.00	-30.088	102.460	
332.00	-30.405	100.515	
333.00	-30.737	98.671	
334.00	-31.095	96.999	
335.00	-31.488	95.298	
336.00	-31.907	93.704	
337.00	-32.370	92.239	
338.00	-32.898	90.757	
339.00	-33.468	89.181	
340.00	-34.094	87.527	
341.00	-34.775	85.616	
342.00	-35.492	83.315	
343.00	-36.273	80.572	
344.00	-37.063	77.191	
345.00	-37.877	72.877	
346.00	-38.649	67.844	
347.00	-39.351	61.593	
348.00	-39.875	54.507	
349.00	-40.252	46.818	
350.00	-40.415	39.382	
351.00	-40.374	32.063	
352.00	-40.214	25.463	
353.00	-40.003	19.674	
354.00	-39.795	14.650	
355.00	-39.581	10.101	
356.00	-39.451	6.167	
357.00	-39.336	2.268	
358.00	-39.320	-1.334	
359.00	-39.336	-4.322	
Frequency	2650.00	MHz	
Channel	test		
Scan Axis name	Azimuth  [deg]		
Scan Axis	Amplitude	Phase	
			
0.00	-32.520	118.212	
1.00	-32.111	119.607	
2.00	-31.816	121.180	
3.00	-31.617	122.919	
4.00	-31.535	124.911	
5.00	-31.549	127.015	
6.00	-31.669	129.284	
7.00	-31.911	131.838	
8.00	-32.272	134.630	
9.00	-32.756	137.652	
10.00	-33.368	141.121	
11.00	-34.107	145.149	
12.00	-34.970	149.808	
13.00	-35.988	155.496	
14.00	-37.137	162.521	
15.00	-38.355	171.779	
16.00	-39.508	-176.487	
17.00	-40.410	-161.716	
18.00	-40.712	-145.028	
19.00	-40.380	-128.542	
20.00	-39.541	-114.873	
21.00	-38.427	-103.890	
22.00	-37.300	-95.554	
23.00	-36.241	-89.295	
24.00	-35.221	-84.482	
25.00	-34.322	-80.798	
26.00	-33.494	-77.918	
27.00	-32.732	-75.587	
28.00	-32.049	-73.644	
29.00	-31.408	-72.070	
30.00	-30.811	-70.729	
31.00	-30.280	-69.680	
32.00	-29.765	-68.720	
33.00	-29.296	-67.899	
34.00	-28.857	-67.218	
35.00	-28.443	-66.504	
36.00	-28.069	-65.906	
37.00	-27.713	-65.291	
38.00	-27.395	-64.661	
39.00	-27.104	-64.067	
40.00	-26.847	-63.433	
41.00	-26.627	-62.722	
42.00	-26.439	-62.073	
43.00	-26.288	-61.334	
44.00	-26.174	-60.692	
45.00	-26.091	-59.877	
46.00	-26.041	-59.212	
47.00	-26.029	-58.478	
48.00	-26.043	-57.828	
49.00	-26.092	-57.073	
50.00	-26.173	-56.364	
51.00	-26.295	-55.691	
52.00	-26.452	-54.991	
53.00	-26.639	-54.257	
54.00	-26.850	-53.528	
55.00	-27.108	-52.845	
56.00	-27.404	-52.177	
57.00	-27.729	-51.594	
58.00	-28.100	-50.920	
59.00	-28.507	-50.263	
60.00	-28.953	-49.793	
61.00	-29.435	-49.288	
62.00	-29.983	-48.771	
63.00	-30.570	-48.183	
64.00	-31.221	-47.754	
65.00	-31.951	-47.295	
66.00	-32.730	-46.916	
67.00	-33.584	-46.540	
68.00	-34.566	-46.056	
69.00	-35.638	-45.816	
70.00	-36.869	-45.533	
71.00	-38.306	-45.149	
72.00	-39.935	-45.190	
73.00	-41.920	-45.412	
74.00	-44.390	-46.137	
75.00	-47.837	-47.756	
76.00	-53.126	-53.256	
77.00	-64.537	-94.880	
78.00	-56.978	161.335	
79.00	-50.557	150.857	
80.00	-46.963	148.917	
81.00	-44.620	148.239	
82.00	-42.938	148.172	
83.00	-41.665	148.682	
84.00	-40.682	149.513	
85.00	-39.909	149.871	
86.00	-39.343	150.973	
87.00	-38.882	152.320	
88.00	-38.566	153.499	
89.00	-38.372	155.176	
90.00	-38.284	157.180	
91.00	-38.297	158.989	
92.00	-38.396	161.439	
93.00	-38.562	164.263	
94.00	-38.825	167.619	
95.00	-39.165	171.586	
96.00	-39.546	176.534	
97.00	-39.985	-178.009	
98.00	-40.407	-170.952	
99.00	-40.771	-162.993	
100.00	-40.985	-153.876	
101.00	-41.045	-143.842	
102.00	-40.814	-133.600	
103.00	-40.347	-123.286	
104.00	-39.674	-113.846	
105.00	-38.845	-105.621	
106.00	-37.929	-98.486	
107.00	-36.993	-92.827	
108.00	-36.075	-87.718	
109.00	-35.175	-83.401	
110.00	-34.335	-79.727	
111.00	-33.518	-76.694	
112.00	-32.740	-73.978	
113.00	-32.024	-71.557	
114.00	-31.346	-69.443	
115.00	-30.695	-67.431	
116.00	-30.088	-65.756	
117.00	-29.513	-64.104	
118.00	-28.976	-62.699	
119.00	-28.458	-61.341	
120.00	-27.985	-60.002	
121.00	-27.535	-58.859	
122.00	-27.112	-57.794	
123.00	-26.724	-56.788	
124.00	-26.357	-55.866	
125.00	-26.018	-54.963	
126.00	-25.711	-54.187	
127.00	-25.441	-53.506	
128.00	-25.193	-52.854	
129.00	-24.984	-52.251	
130.00	-24.806	-51.724	
131.00	-24.663	-51.257	
132.00	-24.555	-50.890	
133.00	-24.478	-50.576	
134.00	-24.454	-50.314	
135.00	-24.459	-50.091	
136.00	-24.495	-49.857	
137.00	-24.570	-49.740	
138.00	-24.699	-49.621	
139.00	-24.870	-49.521	
140.00	-25.063	-49.384	
141.00	-25.309	-49.233	
142.00	-25.593	-49.023	
143.00	-25.909	-48.744	
144.00	-26.266	-48.377	
145.00	-26.650	-47.904	
146.00	-27.065	-47.259	
147.00	-27.494	-46.385	
148.00	-27.937	-45.326	
149.00	-28.386	-44.121	
150.00	-28.816	-42.701	
151.00	-29.233	-41.113	
152.00	-29.628	-39.351	
153.00	-29.985	-37.603	
154.00	-30.309	-35.827	
155.00	-30.601	-34.228	
156.00	-30.863	-32.749	
157.00	-31.119	-31.619	
158.00	-31.376	-30.801	
159.00	-31.666	-30.571	
160.00	-32.006	-30.614	
161.00	-32.396	-31.232	
162.00	-32.887	-32.299	
163.00	-33.499	-33.871	
164.00	-34.215	-36.081	
165.00	-35.115	-38.938	
166.00	-36.236	-42.782	
167.00	-37.507	-47.688	
168.00	-39.103	-54.391	
169.00	-40.921	-64.054	
170.00	-42.943	-77.989	
171.00	-44.739	-98.337	
172.00	-45.511	-123.593	
173.00	-44.976	-147.903	
174.00	-43.744	-165.952	
175.00	-42.581	-178.334	
176.00	-41.676	172.981	
177.00	-41.108	166.124	
178.00	-40.867	160.331	
179.00	-41.001	156.064	
180.00	-41.545	151.917	
181.00	-42.495	148.109	
182.00	-44.018	144.257	
183.00	-46.310	140.888	
184.00	-50.108	136.372	
185.00	-58.160	128.373	
186.00	-61.689	-32.682	
187.00	-50.823	-44.953	
188.00	-46.210	-49.312	
189.00	-43.195	-52.574	
190.00	-41.035	-55.184	
191.00	-39.372	-57.991	
192.00	-38.036	-60.294	
193.00	-36.970	-62.402	
194.00	-36.049	-64.348	
195.00	-35.259	-66.039	
196.00	-34.533	-67.392	
197.00	-33.891	-68.530	
198.00	-33.288	-69.374	
199.00	-32.699	-69.944	
200.00	-32.144	-70.292	
201.00	-31.577	-70.361	
202.00	-31.010	-70.298	
203.00	-30.456	-70.184	
204.00	-29.888	-69.928	
205.00	-29.320	-69.625	
206.00	-28.762	-69.446	
207.00	-28.219	-69.372	
208.00	-27.688	-69.308	
209.00	-27.178	-69.360	
210.00	-26.695	-69.472	
211.00	-26.247	-69.801	
212.00	-25.839	-70.162	
213.00	-25.468	-70.630	
214.00	-25.124	-71.176	
215.00	-24.819	-71.785	
216.00	-24.564	-72.449	
217.00	-24.340	-73.162	
218.00	-24.156	-73.871	
219.00	-24.004	-74.648	
220.00	-23.891	-75.434	
221.00	-23.804	-76.215	
222.00	-23.753	-77.025	
223.00	-23.731	-77.846	
224.00	-23.730	-78.728	
225.00	-23.758	-79.515	
226.00	-23.812	-80.350	
227.00	-23.889	-81.175	
228.00	-23.989	-82.010	
229.00	-24.110	-82.853	
230.00	-24.257	-83.632	
231.00	-24.423	-84.449	
232.00	-24.611	-85.271	
233.00	-24.820	-86.045	
234.00	-25.051	-86.887	
235.00	-25.302	-87.734	
236.00	-25.575	-88.605	
237.00	-25.873	-89.458	
238.00	-26.190	-90.406	
239.00	-26.536	-91.387	
240.00	-26.906	-92.421	
241.00	-27.301	-93.553	
242.00	-27.721	-94.753	
243.00	-28.174	-96.046	
244.00	-28.642	-97.517	
245.00	-29.161	-99.077	
246.00	-29.695	-100.774	
247.00	-30.263	-102.685	
248.00	-30.873	-104.843	
249.00	-31.509	-107.171	
250.00	-32.177	-109.754	
251.00	-32.858	-112.673	
252.00	-33.579	-116.068	
253.00	-34.314	-119.618	
254.00	-35.049	-123.890	
255.00	-35.826	-128.636	
256.00	-36.548	-133.998	
257.00	-37.242	-139.618	
258.00	-37.890	-146.063	
259.00	-38.422	-152.522	
260.00	-38.879	-159.209	
261.00	-39.275	-166.169	
262.00	-39.538	-172.659	
263.00	-39.720	-178.688	
264.00	-39.866	175.756	
265.00	-40.009	170.726	
266.00	-40.143	166.694	
267.00	-40.317	163.035	
268.00	-40.556	160.180	
269.00	-40.849	158.022	
270.00	-41.281	156.155	
271.00	-41.828	155.655	
272.00	-42.492	155.649	
273.00	-43.344	156.640	
274.00	-44.429	159.309	
275.00	-45.766	164.078	
276.00	-47.271	172.352	
277.00	-48.712	-173.925	
278.00	-49.782	-153.173	
279.00	-49.220	-128.974	
280.00	-47.484	-110.197	
281.00	-45.312	-97.953	
282.00	-43.285	-90.287	
283.00	-41.511	-85.492	
284.00	-39.955	-82.370	
285.00	-38.580	-80.330	
286.00	-37.370	-78.932	
287.00	-36.320	-78.023	
288.00	-35.373	-77.428	
289.00	-34.532	-77.051	
290.00	-33.767	-76.804	
291.00	-33.093	-76.834	
292.00	-32.470	-76.843	
293.00	-31.912	-77.033	
294.00	-31.405	-77.206	
295.00	-30.945	-77.549	
296.00	-30.535	-77.911	
297.00	-30.150	-78.331	
298.00	-29.809	-78.809	
299.00	-29.476	-79.302	
300.00	-29.198	-79.861	
301.00	-28.928	-80.388	
302.00	-28.688	-81.034	
303.00	-28.458	-81.695	
304.00	-28.254	-82.306	
305.00	-28.055	-82.963	
306.00	-27.882	-83.664	
307.00	-27.725	-84.347	
308.00	-27.573	-84.949	
309.00	-27.424	-85.587	
310.00	-27.296	-86.221	
311.00	-27.175	-86.823	
312.00	-27.059	-87.378	
313.00	-26.969	-87.923	
314.00	-26.870	-88.399	
315.00	-26.788	-88.859	
316.00	-26.723	-89.355	
317.00	-26.670	-89.713	
318.00	-26.636	-90.169	
319.00	-26.621	-90.468	
320.00	-26.626	-90.877	
321.00	-26.662	-91.280	
322.00	-26.715	-91.658	
323.00	-26.808	-92.130	
324.00	-26.926	-92.611	
325.00	-27.081	-93.143	
326.00	-27.276	-93.791	
327.00	-27.516	-94.434	
328.00	-27.792	-95.153	
329.00	-28.111	-96.022	
330.00	-28.469	-96.962	
331.00	-28.865	-97.943	
332.00	-29.320	-99.056	
333.00	-29.807	-100.290	
334.00	-30.344	-101.643	
335.00	-30.938	-103.222	
336.00	-31.572	-104.937	
337.00	-32.240	-106.726	
338.00	-32.975	-108.726	
339.00	-33.755	-110.970	
340.00	-34.598	-113.560	
341.00	-35.497	-116.307	
342.00	-36.463	-119.756	
343.00	-37.527	-123.575	
344.00	-38.652	-128.240	
345.00	-39.858	-134.481	
346.00	-41.084	-142.579	
347.00	-42.288	-152.880	
348.00	-43.195	-166.521	
349.00	-43.461	177.729	
350.00	-43.019	162.312	
351.00	-41.981	149.333	
352.00	-40.704	139.946	
353.00	-39.387	133.374	
354.00	-38.133	128.907	
355.00	-36.976	125.961	
356.00	-35.959	124.392	
357.00	-35.071	123.461	
358.00	-34.303	123.121	
359.00	-33.784	123.382	
Frequency	2700.00	MHz	
Channel	test		
Scan Axis name	Azimuth  [deg]		
Scan Axis	Amplitude	Phase	
			
0.00	-32.023	-71.466	
1.00	-32.129	-69.552	
2.00	-32.324	-67.300	
3.00	-32.644	-64.701	
4.00	-33.068	-61.485	
5.00	-33.616	-57.807	
6.00	-34.305	-53.585	
7.00	-35.160	-48.556	
8.00	-36.199	-42.430	
9.00	-37.391	-34.884	
10.00	-38.683	-25.389	
11.00	-40.049	-12.724	
12.00	-41.186	3.450	
13.00	-41.741	22.743	
14.00	-41.515	41.721	
15.00	-40.600	58.254	
16.00	-39.429	70.380	
17.00	-38.260	79.189	
18.00	-37.144	85.267	
19.00	-36.194	89.538	
20.00	-35.350	92.256	
21.00	-34.586	94.125	
22.00	-33.875	94.973	
23.00	-33.247	95.336	
24.00	-32.610	95.131	
25.00	-32.016	94.394	
26.00	-31.427	93.558	
27.00	-30.865	92.620	
28.00	-30.286	91.679	
29.00	-29.726	90.757	
30.00	-29.198	89.880	
31.00	-28.689	89.239	
32.00	-28.222	88.716	
33.00	-27.789	88.355	
34.00	-27.397	88.038	
35.00	-27.041	87.969	
36.00	-26.742	87.891	
37.00	-26.473	88.020	
38.00	-26.243	88.183	
39.00	-26.059	88.402	
40.00	-25.916	88.704	
41.00	-25.813	89.057	
42.00	-25.735	89.450	
43.00	-25.710	89.840	
44.00	-25.704	90.194	
45.00	-25.745	90.690	
46.00	-25.801	91.104	
47.00	-25.900	91.518	
48.00	-26.018	91.949	
49.00	-26.167	92.339	
50.00	-26.349	92.748	
51.00	-26.553	93.227	
52.00	-26.805	93.634	
53.00	-27.069	94.087	
54.00	-27.352	94.509	
55.00	-27.680	94.932	
56.00	-28.033	95.387	
57.00	-28.428	95.858	
58.00	-28.865	96.193	
59.00	-29.345	96.626	
60.00	-29.860	97.026	
61.00	-30.436	97.397	
62.00	-31.073	97.672	
63.00	-31.793	97.880	
64.00	-32.589	98.161	
65.00	-33.485	98.356	
66.00	-34.468	98.453	
67.00	-35.596	98.532	
68.00	-36.956	98.168	
69.00	-38.506	98.069	
70.00	-40.390	97.568	
71.00	-42.865	96.156	
72.00	-46.003	94.276	
73.00	-50.979	88.559	
74.00	-60.574	55.274	
75.00	-55.648	-52.619	
76.00	-49.023	-66.343	
77.00	-45.338	-69.991	
78.00	-42.868	-71.981	
79.00	-41.025	-73.087	
80.00	-39.672	-73.751	
81.00	-38.560	-74.474	
82.00	-37.666	-74.730	
83.00	-36.969	-74.921	
84.00	-36.418	-75.344	
85.00	-35.941	-75.893	
86.00	-35.612	-76.248	
87.00	-35.372	-76.640	
88.00	-35.210	-77.105	
89.00	-35.163	-77.762	
90.00	-35.217	-78.291	
91.00	-35.318	-79.111	
92.00	-35.508	-80.049	
93.00	-35.823	-80.984	
94.00	-36.209	-82.302	
95.00	-36.721	-84.006	
96.00	-37.365	-86.003	
97.00	-38.129	-88.431	
98.00	-39.069	-91.885	
99.00	-40.211	-96.308	
100.00	-41.505	-103.203	
101.00	-43.039	-112.696	
102.00	-44.543	-127.394	
103.00	-45.480	-148.526	
104.00	-45.093	-172.569	
105.00	-43.507	167.488	
106.00	-41.516	153.500	
107.00	-39.567	144.815	
108.00	-37.814	138.582	
109.00	-36.263	134.095	
110.00	-34.881	130.832	
111.00	-33.655	128.390	
112.00	-32.550	126.263	
113.00	-31.574	124.666	
114.00	-30.692	123.292	
115.00	-29.872	122.078	
116.00	-29.140	121.077	
117.00	-28.484	120.223	
118.00	-27.869	119.435	
119.00	-27.318	118.728	
120.00	-26.826	118.147	
121.00	-26.389	117.577	
122.00	-25.991	117.103	
123.00	-25.646	116.653	
124.00	-25.339	116.261	
125.00	-25.075	115.902	
126.00	-24.857	115.587	
127.00	-24.676	115.296	
128.00	-24.535	115.021	
129.00	-24.440	114.736	
130.00	-24.370	114.505	
131.00	-24.335	114.323	
132.00	-24.347	114.060	
133.00	-24.393	113.815	
134.00	-24.474	113.491	
135.00	-24.584	113.220	
136.00	-24.733	112.895	
137.00	-24.895	112.514	
138.00	-25.097	112.082	
139.00	-25.350	111.590	
140.00	-25.604	111.045	
141.00	-25.902	110.310	
142.00	-26.230	109.508	
143.00	-26.593	108.653	
144.00	-27.002	107.718	
145.00	-27.434	106.727	
146.00	-27.900	105.755	
147.00	-28.411	104.651	
148.00	-28.970	103.627	
149.00	-29.571	102.547	
150.00	-30.216	101.596	
151.00	-30.912	100.761	
152.00	-31.673	100.057	
153.00	-32.508	99.658	
154.00	-33.380	99.783	
155.00	-34.366	100.330	
156.00	-35.397	101.574	
157.00	-36.510	103.784	
158.00	-37.692	107.347	
159.00	-38.892	112.628	
160.00	-40.015	119.560	
161.00	-40.955	128.283	
162.00	-41.562	137.915	
163.00	-41.826	147.719	
164.00	-41.842	156.398	
165.00	-41.687	163.514	
166.00	-41.581	168.709	
167.00	-41.510	172.173	
168.00	-41.603	174.749	
169.00	-41.903	176.109	
170.00	-42.462	176.290	
171.00	-43.283	175.934	
172.00	-44.400	174.888	
173.00	-45.944	172.873	
174.00	-47.897	169.176	
175.00	-50.576	162.910	
176.00	-54.130	151.155	
177.00	-58.222	122.795	
178.00	-58.767	75.736	
179.00	-56.038	45.477	
180.00	-53.543	34.193	
181.00	-52.049	31.670	
182.00	-51.236	31.510	
183.00	-50.802	34.748	
184.00	-50.641	42.893	
185.00	-50.347	53.277	
186.00	-49.609	66.898	
187.00	-48.319	79.555	
188.00	-46.527	89.383	
189.00	-44.760	96.004	
190.00	-43.011	100.578	
191.00	-41.316	102.839	
192.00	-39.870	103.703	
193.00	-38.547	103.834	
194.00	-37.348	103.128	
195.00	-36.233	102.283	
196.00	-35.235	100.958	
197.00	-34.316	99.493	
198.00	-33.483	98.213	
199.00	-32.714	96.761	
200.00	-32.007	95.569	
201.00	-31.333	94.457	
202.00	-30.719	93.497	
203.00	-30.148	92.768	
204.00	-29.609	92.204	
205.00	-29.102	91.789	
206.00	-28.630	91.399	
207.00	-28.188	91.097	
208.00	-27.766	91.026	
209.00	-27.365	90.903	
210.00	-26.991	90.772	
211.00	-26.642	90.545	
212.00	-26.327	90.389	
213.00	-26.024	90.109	
214.00	-25.753	89.741	
215.00	-25.490	89.387	
216.00	-25.258	88.907	
217.00	-25.055	88.338	
218.00	-24.870	87.679	
219.00	-24.707	86.970	
220.00	-24.570	86.143	
221.00	-24.463	85.270	
222.00	-24.386	84.400	
223.00	-24.337	83.384	
224.00	-24.310	82.248	
225.00	-24.317	81.228	
226.00	-24.346	80.154	
227.00	-24.410	79.017	
228.00	-24.501	77.869	
229.00	-24.625	76.646	
230.00	-24.774	75.478	
231.00	-24.958	74.293	
232.00	-25.168	73.085	
233.00	-25.405	71.845	
234.00	-25.687	70.578	
235.00	-25.990	69.246	
236.00	-26.331	67.886	
237.00	-26.696	66.523	
238.00	-27.106	64.964	
239.00	-27.551	63.378	
240.00	-28.021	61.693	
241.00	-28.514	59.926	
242.00	-29.054	57.910	
243.00	-29.630	55.776	
244.00	-30.231	53.371	
245.00	-30.877	50.719	
246.00	-31.546	47.861	
247.00	-32.225	44.629	
248.00	-32.927	41.002	
249.00	-33.645	37.018	
250.00	-34.361	32.462	
251.00	-35.047	27.550	
252.00	-35.703	22.126	
253.00	-36.312	16.338	
254.00	-36.862	10.200	
255.00	-37.325	3.593	
256.00	-37.702	-2.954	
257.00	-37.977	-9.125	
258.00	-38.162	-15.571	
259.00	-38.289	-21.141	
260.00	-38.388	-26.421	
261.00	-38.449	-31.126	
262.00	-38.486	-35.497	
263.00	-38.549	-39.093	
264.00	-38.620	-42.207	
265.00	-38.775	-44.990	
266.00	-38.970	-47.274	
267.00	-39.235	-49.170	
268.00	-39.563	-50.669	
269.00	-39.990	-51.853	
270.00	-40.498	-52.528	
271.00	-41.145	-52.758	
272.00	-41.969	-52.458	
273.00	-42.968	-51.427	
274.00	-44.187	-49.599	
275.00	-45.813	-45.722	
276.00	-47.802	-39.063	
277.00	-50.211	-25.829	
278.00	-52.485	-1.950	
279.00	-52.393	33.778	
280.00	-49.728	59.164	
281.00	-46.797	72.483	
282.00	-44.363	79.673	
283.00	-42.370	83.583	
284.00	-40.602	85.821	
285.00	-39.150	87.051	
286.00	-37.877	87.748	
287.00	-36.762	87.858	
288.00	-35.770	87.830	
289.00	-34.883	87.471	
290.00	-34.113	86.858	
291.00	-33.386	86.047	
292.00	-32.734	85.094	
293.00	-32.135	84.130	
294.00	-31.564	83.019	
295.00	-31.066	81.799	
296.00	-30.583	80.496	
297.00	-30.134	79.093	
298.00	-29.705	77.641	
299.00	-29.307	76.201	
300.00	-28.931	74.690	
301.00	-28.581	73.214	
302.00	-28.225	71.730	
303.00	-27.901	70.290	
304.00	-27.590	68.937	
305.00	-27.284	67.632	
306.00	-27.004	66.451	
307.00	-26.735	65.335	
308.00	-26.491	64.384	
309.00	-26.263	63.501	
310.00	-26.043	62.818	
311.00	-25.854	62.183	
312.00	-25.685	61.738	
313.00	-25.545	61.441	
314.00	-25.417	61.222	
315.00	-25.336	61.156	
316.00	-25.275	61.188	
317.00	-25.251	61.348	
318.00	-25.261	61.595	
319.00	-25.307	61.951	
320.00	-25.392	62.278	
321.00	-25.527	62.691	
322.00	-25.712	63.163	
323.00	-25.943	63.621	
324.00	-26.229	64.042	
325.00	-26.581	64.490	
326.00	-26.985	64.833	
327.00	-27.453	65.103	
328.00	-27.994	65.317	
329.00	-28.621	65.300	
330.00	-29.307	65.132	
331.00	-30.083	64.697	
332.00	-30.939	63.922	
333.00	-31.891	62.805	
334.00	-32.924	61.100	
335.00	-34.058	58.580	
336.00	-35.274	55.214	
337.00	-36.569	50.678	
338.00	-37.919	44.488	
339.00	-39.258	36.575	
340.00	-40.464	26.316	
341.00	-41.385	13.935	
342.00	-41.890	0.550	
343.00	-41.968	-13.088	
344.00	-41.599	-25.474	
345.00	-40.979	-36.306	
346.00	-40.185	-45.067	
347.00	-39.370	-52.400	
348.00	-38.540	-58.283	
349.00	-37.722	-63.192	
350.00	-36.919	-66.736	
351.00	-36.148	-69.940	
352.00	-35.447	-72.247	
353.00	-34.809	-73.834	
354.00	-34.209	-74.858	
355.00	-33.700	-75.474	
356.00	-33.282	-75.473	
357.00	-32.923	-75.080	
358.00	-32.687	-74.313	
359.00	-32.561	-73.395	
