Test Title:	Alpha Wireless Indoor Range						
Date:	02/11/2017						
Time:	16:04						
Operator Name:	FL						
Comment:	Version 2 Run 2
Cable length changed						
Caib. File Name:	C:\Program Files\Midas 2.01d\Calibration Files\test sigma 180900.cal						
							
[Scan Axis] Name: 	Azimuth  [deg]Start: 	0.000000	Stop	359.000000	Increment	1.000000[Step Axis] Name: 	Start: 	0.000000	Stop	0.000000	Increment	0.000000[Tert] Name: 	None [Forth] Name: 	None  [ Freq.]  (List) 	MHz.	1694.000000	1710.000000	1800.000000	1850.000000	1950.000000	2050.000000	2170.000000	2300.000000	2350.000000	2400.000000	2450.000000	2496.000000	2550.000000	2600.000000	2650.000000	2700.000000
 [Switch]  	None [Channel]  	test			 [ Beam] 	None			
Database:			
First Question			
2nd			
3rd			
4th			
			
Frequency	1694.00	MHz	
Channel	test		
Scan Axis name	Azimuth  [deg]		
Scan Axis	Amplitude	Phase	
			
0.00	-56.336	100.811	
1.00	-56.453	98.178	
2.00	-58.270	97.053	
3.00	-59.406	101.222	
4.00	-63.946	107.058	
5.00	-64.171	126.390	
6.00	-66.568	142.713	
7.00	-66.227	154.067	
8.00	-66.210	-178.956	
9.00	-67.529	-161.144	
10.00	-66.417	-139.347	
11.00	-67.481	-134.811	
12.00	-64.304	-106.990	
13.00	-66.626	-94.472	
14.00	-65.508	-74.534	
15.00	-62.387	-52.057	
16.00	-62.456	-55.406	
17.00	-62.100	-51.484	
18.00	-61.799	-51.283	
19.00	-65.071	-35.699	
20.00	-68.597	-26.431	
21.00	-76.353	-9.173	
22.00	-77.079	165.830	
23.00	-66.066	148.021	
24.00	-62.991	143.139	
25.00	-60.656	151.593	
26.00	-57.935	156.761	
27.00	-57.323	160.094	
28.00	-55.677	162.180	
29.00	-55.064	161.559	
30.00	-54.735	168.260	
31.00	-55.082	172.644	
32.00	-55.058	177.985	
33.00	-55.751	179.874	
34.00	-56.553	-171.662	
35.00	-57.995	-167.745	
36.00	-60.144	-164.110	
37.00	-62.187	-149.335	
38.00	-65.576	-149.300	
39.00	-67.676	-127.159	
40.00	-70.353	-106.238	
41.00	-72.590	-83.386	
42.00	-71.695	-83.977	
43.00	-69.555	-41.986	
44.00	-70.747	-51.106	
45.00	-70.112	-6.199	
46.00	-69.581	1.636	
47.00	-66.866	30.809	
48.00	-66.378	53.402	
49.00	-63.061	68.100	
50.00	-62.414	77.662	
51.00	-60.523	91.658	
52.00	-59.475	92.051	
53.00	-58.823	101.432	
54.00	-59.124	106.141	
55.00	-59.166	106.632	
56.00	-59.847	108.043	
57.00	-60.787	108.598	
58.00	-61.784	101.150	
59.00	-62.468	97.128	
60.00	-62.296	87.926	
61.00	-62.992	94.888	
62.00	-62.708	96.967	
63.00	-64.707	99.514	
64.00	-63.960	113.150	
65.00	-63.998	140.853	
66.00	-66.053	168.927	
67.00	-63.809	-161.066	
68.00	-62.084	-144.613	
69.00	-59.596	-126.301	
70.00	-58.794	-112.091	
71.00	-57.551	-100.727	
72.00	-56.503	-88.301	
73.00	-56.254	-73.510	
74.00	-56.345	-62.378	
75.00	-56.594	-49.835	
76.00	-56.821	-31.612	
77.00	-57.517	-22.273	
78.00	-56.640	3.073	
79.00	-56.862	18.254	
80.00	-56.854	34.887	
81.00	-58.328	68.353	
82.00	-58.506	74.646	
83.00	-57.451	98.099	
84.00	-56.187	121.425	
85.00	-54.491	129.464	
86.00	-55.074	156.791	
87.00	-54.584	164.746	
88.00	-55.623	-179.204	
89.00	-53.731	-150.866	
90.00	-54.507	-137.051	
91.00	-54.004	-130.489	
92.00	-53.938	-109.600	
93.00	-54.227	-97.460	
94.00	-53.939	-78.214	
95.00	-53.970	-68.759	
96.00	-54.007	-51.304	
97.00	-54.364	-31.798	
98.00	-54.886	-15.701	
99.00	-55.446	-0.044	
100.00	-55.743	26.369	
101.00	-55.853	50.055	
102.00	-55.684	73.404	
103.00	-55.516	92.989	
104.00	-56.064	106.088	
105.00	-56.020	122.857	
106.00	-55.864	140.604	
107.00	-56.826	159.240	
108.00	-57.338	179.070	
109.00	-58.275	-162.046	
110.00	-59.927	-140.237	
111.00	-61.331	-115.475	
112.00	-61.701	-84.900	
113.00	-61.048	-48.154	
114.00	-60.508	-24.500	
115.00	-59.712	7.588	
116.00	-58.538	26.564	
117.00	-57.160	51.357	
118.00	-57.504	68.456	
119.00	-56.716	88.938	
120.00	-56.397	113.693	
121.00	-55.639	134.453	
122.00	-55.840	156.850	
123.00	-56.198	-177.658	
124.00	-55.488	-151.383	
125.00	-54.762	-128.243	
126.00	-54.274	-104.421	
127.00	-53.000	-81.524	
128.00	-51.865	-60.484	
129.00	-51.028	-40.374	
130.00	-50.231	-25.627	
131.00	-49.713	-7.338	
132.00	-49.400	8.016	
133.00	-49.713	24.862	
134.00	-49.620	46.769	
135.00	-49.628	64.692	
136.00	-50.191	86.102	
137.00	-50.267	108.908	
138.00	-50.140	127.765	
139.00	-49.891	150.272	
140.00	-50.269	172.475	
141.00	-50.172	-163.854	
142.00	-49.779	-142.790	
143.00	-49.123	-120.427	
144.00	-49.146	-102.185	
145.00	-47.996	-82.114	
146.00	-47.161	-66.641	
147.00	-46.381	-51.833	
148.00	-45.703	-41.927	
149.00	-45.736	-32.791	
150.00	-45.436	-25.591	
151.00	-45.731	-18.394	
152.00	-46.193	-15.450	
153.00	-46.754	-12.017	
154.00	-47.451	-11.285	
155.00	-47.758	-10.748	
156.00	-48.393	-7.906	
157.00	-49.148	-5.287	
158.00	-49.989	2.222	
159.00	-50.508	16.543	
160.00	-50.845	35.130	
161.00	-50.291	58.057	
162.00	-48.431	81.831	
163.00	-46.314	97.194	
164.00	-44.523	106.454	
165.00	-43.173	112.731	
166.00	-42.342	115.514	
167.00	-41.971	118.012	
168.00	-42.421	113.339	
169.00	-43.046	104.405	
170.00	-43.327	86.495	
171.00	-42.384	64.570	
172.00	-40.089	43.786	
173.00	-37.264	33.295	
174.00	-34.672	26.652	
175.00	-32.522	23.028	
176.00	-30.885	21.708	
177.00	-29.545	21.176	
178.00	-28.590	21.025	
179.00	-27.894	21.081	
180.00	-27.535	21.370	
181.00	-27.432	21.254	
182.00	-27.634	22.185	
183.00	-28.114	22.656	
184.00	-28.977	22.827	
185.00	-30.140	23.134	
186.00	-31.692	23.601	
187.00	-33.870	24.545	
188.00	-36.742	25.892	
189.00	-40.969	29.912	
190.00	-47.693	45.405	
191.00	-54.254	124.833	
192.00	-46.613	170.064	
193.00	-43.390	178.708	
194.00	-41.665	-178.100	
195.00	-41.085	-176.031	
196.00	-41.543	-173.814	
197.00	-42.304	-173.277	
198.00	-43.790	-167.834	
199.00	-45.649	-162.432	
200.00	-47.959	-146.578	
201.00	-49.422	-132.194	
202.00	-49.566	-109.940	
203.00	-49.054	-97.854	
204.00	-48.458	-90.054	
205.00	-48.536	-93.411	
206.00	-49.488	-97.930	
207.00	-49.599	-106.744	
208.00	-50.744	-119.823	
209.00	-52.235	-140.110	
210.00	-52.467	-159.457	
211.00	-51.782	-179.830	
212.00	-51.255	164.129	
213.00	-51.684	153.517	
214.00	-51.756	155.247	
215.00	-52.606	155.090	
216.00	-52.696	165.873	
217.00	-52.809	179.812	
218.00	-51.250	-165.885	
219.00	-48.970	-155.941	
220.00	-47.221	-152.230	
221.00	-45.490	-152.845	
222.00	-43.841	-155.072	
223.00	-42.811	-159.821	
224.00	-42.087	-162.671	
225.00	-41.546	-168.594	
226.00	-41.065	-172.773	
227.00	-40.948	-178.519	
228.00	-40.939	176.781	
229.00	-41.121	171.046	
230.00	-41.207	165.858	
231.00	-41.501	161.922	
232.00	-42.076	156.388	
233.00	-42.452	151.231	
234.00	-42.946	146.035	
235.00	-43.462	142.315	
236.00	-43.895	136.797	
237.00	-44.116	131.614	
238.00	-44.320	126.231	
239.00	-44.543	119.719	
240.00	-44.719	113.396	
241.00	-44.699	107.571	
242.00	-44.745	99.901	
243.00	-44.909	93.136	
244.00	-44.708	84.731	
245.00	-44.757	76.719	
246.00	-44.859	68.813	
247.00	-44.964	58.384	
248.00	-44.991	49.275	
249.00	-45.156	39.131	
250.00	-45.084	29.212	
251.00	-45.250	19.373	
252.00	-45.232	9.095	
253.00	-45.272	-1.394	
254.00	-45.443	-11.498	
255.00	-45.546	-22.378	
256.00	-45.716	-32.088	
257.00	-46.038	-41.948	
258.00	-46.258	-53.568	
259.00	-46.535	-63.876	
260.00	-46.970	-75.681	
261.00	-47.242	-86.337	
262.00	-47.786	-98.024	
263.00	-48.403	-111.348	
264.00	-48.953	-121.196	
265.00	-49.649	-133.743	
266.00	-50.955	-150.163	
267.00	-51.557	-165.190	
268.00	-52.648	175.598	
269.00	-53.298	154.793	
270.00	-52.915	133.233	
271.00	-53.056	112.432	
272.00	-52.354	92.802	
273.00	-51.862	77.241	
274.00	-51.570	62.710	
275.00	-51.115	48.701	
276.00	-51.006	36.283	
277.00	-51.239	24.800	
278.00	-51.362	11.713	
279.00	-51.968	-0.033	
280.00	-52.579	-15.264	
281.00	-53.322	-29.424	
282.00	-53.963	-44.214	
283.00	-54.884	-57.047	
284.00	-55.183	-73.178	
285.00	-56.106	-91.889	
286.00	-57.293	-107.190	
287.00	-57.421	-129.311	
288.00	-58.420	-146.226	
289.00	-58.970	-160.995	
290.00	-60.204	-165.424	
291.00	-61.151	-175.042	
292.00	-62.721	-162.921	
293.00	-61.905	-165.779	
294.00	-62.933	-164.811	
295.00	-62.074	-158.554	
296.00	-60.541	-163.345	
297.00	-60.004	-168.229	
298.00	-59.020	-175.459	
299.00	-58.760	171.716	
300.00	-59.410	155.620	
301.00	-57.861	140.335	
302.00	-57.261	126.545	
303.00	-56.592	104.564	
304.00	-55.915	89.893	
305.00	-54.609	75.515	
306.00	-54.141	65.629	
307.00	-54.207	52.845	
308.00	-54.794	43.156	
309.00	-54.451	28.667	
310.00	-55.855	17.761	
311.00	-57.175	7.118	
312.00	-58.479	-8.554	
313.00	-59.679	-23.411	
314.00	-63.945	-37.373	
315.00	-68.330	-70.854	
316.00	-72.986	-120.932	
317.00	-70.654	162.706	
318.00	-69.953	143.271	
319.00	-66.536	132.265	
320.00	-65.802	116.992	
321.00	-67.067	82.031	
322.00	-66.777	84.433	
323.00	-69.394	51.981	
324.00	-71.625	12.238	
325.00	-77.561	-43.121	
326.00	-69.707	-84.856	
327.00	-72.106	-125.680	
328.00	-68.964	-142.646	
329.00	-67.257	-157.157	
330.00	-66.854	-170.899	
331.00	-66.768	172.715	
332.00	-65.886	144.633	
333.00	-65.226	120.000	
334.00	-64.344	97.937	
335.00	-63.086	77.057	
336.00	-61.156	61.388	
337.00	-59.836	44.088	
338.00	-59.662	36.005	
339.00	-59.469	27.262	
340.00	-60.024	17.409	
341.00	-60.259	14.242	
342.00	-61.629	5.719	
343.00	-61.832	-0.253	
344.00	-64.573	-8.946	
345.00	-68.231	-39.003	
346.00	-67.770	-75.704	
347.00	-64.553	-100.420	
348.00	-65.630	-117.311	
349.00	-62.379	-129.247	
350.00	-59.502	-145.354	
351.00	-59.292	-165.322	
352.00	-57.541	-171.967	
353.00	-56.566	172.995	
354.00	-55.855	160.242	
355.00	-55.940	148.321	
356.00	-54.948	139.843	
357.00	-54.637	124.218	
358.00	-54.779	114.535	
359.00	-55.061	108.576	
Frequency	1710.00	MHz	
Channel	test		
Scan Axis name	Azimuth  [deg]		
Scan Axis	Amplitude	Phase	
			
0.00	-56.899	100.799	
1.00	-54.949	93.802	
2.00	-60.037	58.039	
3.00	-55.903	54.392	
4.00	-60.101	69.241	
5.00	-60.038	79.845	
6.00	-59.593	67.287	
7.00	-59.437	73.483	
8.00	-66.627	66.527	
9.00	-63.971	99.858	
10.00	-65.024	95.777	
11.00	-66.286	133.222	
12.00	-62.568	142.553	
13.00	-65.962	163.423	
14.00	-64.972	172.497	
15.00	-64.810	-157.540	
16.00	-65.254	-153.324	
17.00	-64.404	-133.073	
18.00	-64.030	-133.581	
19.00	-68.852	-102.373	
20.00	-69.693	-54.809	
21.00	-64.503	-33.947	
22.00	-69.231	49.124	
23.00	-63.427	59.875	
24.00	-64.547	61.974	
25.00	-63.265	92.597	
26.00	-60.024	105.784	
27.00	-57.534	105.619	
28.00	-55.443	126.564	
29.00	-53.299	121.823	
30.00	-53.093	131.155	
31.00	-52.088	139.441	
32.00	-51.121	143.226	
33.00	-50.848	149.528	
34.00	-52.578	156.536	
35.00	-53.411	169.208	
36.00	-54.644	176.078	
37.00	-57.038	-161.282	
38.00	-59.373	-143.389	
39.00	-60.411	-122.156	
40.00	-62.992	-90.728	
41.00	-61.700	-64.873	
42.00	-62.148	-64.947	
43.00	-60.810	-31.056	
44.00	-59.508	-19.841	
45.00	-59.812	0.070	
46.00	-58.679	9.194	
47.00	-57.967	27.393	
48.00	-57.400	33.964	
49.00	-55.158	47.847	
50.00	-56.282	57.053	
51.00	-54.993	70.497	
52.00	-54.798	83.532	
53.00	-55.495	94.657	
54.00	-56.643	108.894	
55.00	-57.047	115.874	
56.00	-58.262	128.905	
57.00	-59.994	135.681	
58.00	-60.778	148.657	
59.00	-67.380	173.649	
60.00	-71.356	136.031	
61.00	-71.364	101.991	
62.00	-66.607	76.814	
63.00	-61.997	85.108	
64.00	-58.421	94.644	
65.00	-56.682	102.475	
66.00	-54.969	114.550	
67.00	-54.166	126.649	
68.00	-53.285	137.629	
69.00	-53.271	148.119	
70.00	-52.796	161.477	
71.00	-53.429	176.099	
72.00	-53.694	-170.036	
73.00	-54.699	-152.303	
74.00	-55.011	-132.467	
75.00	-55.753	-112.805	
76.00	-55.802	-90.185	
77.00	-56.769	-66.834	
78.00	-56.493	-44.668	
79.00	-55.262	-30.841	
80.00	-55.471	-14.807	
81.00	-55.602	21.496	
82.00	-53.205	28.050	
83.00	-54.706	46.410	
84.00	-53.187	73.339	
85.00	-52.807	76.839	
86.00	-50.903	106.355	
87.00	-50.597	128.091	
88.00	-51.474	135.735	
89.00	-49.968	145.782	
90.00	-49.740	164.510	
91.00	-49.925	172.751	
92.00	-50.595	-172.825	
93.00	-50.694	-163.058	
94.00	-51.827	-147.198	
95.00	-52.262	-135.488	
96.00	-53.475	-121.252	
97.00	-54.952	-103.451	
98.00	-56.878	-79.805	
99.00	-57.712	-60.384	
100.00	-63.705	-41.511	
101.00	-63.376	8.774	
102.00	-62.903	61.009	
103.00	-60.809	96.673	
104.00	-57.777	131.449	
105.00	-56.100	142.526	
106.00	-54.556	151.180	
107.00	-53.390	174.353	
108.00	-53.240	-170.685	
109.00	-52.978	-152.774	
110.00	-53.361	-138.470	
111.00	-53.304	-113.776	
112.00	-54.169	-89.717	
113.00	-53.873	-64.111	
114.00	-53.108	-35.069	
115.00	-51.866	-8.996	
116.00	-50.266	12.340	
117.00	-49.154	29.098	
118.00	-48.237	45.471	
119.00	-47.303	61.989	
120.00	-47.141	79.298	
121.00	-46.566	94.161	
122.00	-46.653	111.615	
123.00	-46.886	128.083	
124.00	-47.206	148.122	
125.00	-47.480	169.992	
126.00	-47.943	-166.324	
127.00	-48.128	-142.857	
128.00	-47.927	-116.705	
129.00	-47.504	-91.912	
130.00	-46.651	-67.857	
131.00	-46.015	-45.085	
132.00	-45.195	-24.549	
133.00	-44.537	-4.219	
134.00	-43.879	14.080	
135.00	-43.212	33.251	
136.00	-42.785	51.834	
137.00	-42.452	69.259	
138.00	-42.001	87.023	
139.00	-41.676	103.443	
140.00	-41.775	120.790	
141.00	-41.688	138.613	
142.00	-41.783	155.115	
143.00	-41.873	172.484	
144.00	-41.948	-169.709	
145.00	-41.930	-153.107	
146.00	-41.757	-136.384	
147.00	-41.643	-120.249	
148.00	-41.375	-106.987	
149.00	-41.182	-95.137	
150.00	-41.237	-85.955	
151.00	-41.247	-78.387	
152.00	-41.366	-72.826	
153.00	-41.327	-68.412	
154.00	-41.357	-65.642	
155.00	-41.284	-64.115	
156.00	-41.176	-62.235	
157.00	-41.266	-60.361	
158.00	-41.234	-57.263	
159.00	-41.482	-52.983	
160.00	-41.928	-46.445	
161.00	-42.662	-38.020	
162.00	-43.502	-26.658	
163.00	-44.366	-13.033	
164.00	-45.006	2.733	
165.00	-45.095	19.403	
166.00	-44.770	32.185	
167.00	-44.368	38.300	
168.00	-43.940	39.891	
169.00	-43.342	32.532	
170.00	-42.082	22.976	
171.00	-40.320	13.093	
172.00	-38.009	3.404	
173.00	-35.630	-1.665	
174.00	-33.555	-4.908	
175.00	-31.741	-6.581	
176.00	-30.224	-7.335	
177.00	-29.034	-7.280	
178.00	-28.129	-6.671	
179.00	-27.499	-6.351	
180.00	-27.138	-5.871	
181.00	-27.035	-5.136	
182.00	-27.222	-3.979	
183.00	-27.671	-3.248	
184.00	-28.466	-2.347	
185.00	-29.641	-1.506	
186.00	-31.205	-0.167	
187.00	-33.336	1.578	
188.00	-36.211	4.211	
189.00	-40.451	10.116	
190.00	-46.863	27.742	
191.00	-51.909	99.701	
192.00	-46.842	146.938	
193.00	-43.685	158.755	
194.00	-42.630	165.427	
195.00	-42.719	171.249	
196.00	-43.714	178.668	
197.00	-45.650	-167.743	
198.00	-47.526	-143.098	
199.00	-47.349	-109.941	
200.00	-45.094	-86.683	
201.00	-43.073	-76.296	
202.00	-41.507	-70.725	
203.00	-40.748	-68.205	
204.00	-40.562	-69.067	
205.00	-41.057	-70.624	
206.00	-42.112	-73.238	
207.00	-44.012	-77.305	
208.00	-46.960	-83.557	
209.00	-51.610	-97.498	
210.00	-58.656	-142.698	
211.00	-55.706	143.706	
212.00	-51.019	122.959	
213.00	-48.804	116.375	
214.00	-47.847	114.298	
215.00	-47.959	117.191	
216.00	-48.186	122.753	
217.00	-48.786	137.077	
218.00	-48.321	153.750	
219.00	-46.612	169.792	
220.00	-44.739	178.123	
221.00	-42.733	-178.215	
222.00	-41.137	-177.760	
223.00	-39.884	-179.687	
224.00	-38.922	177.093	
225.00	-38.287	172.997	
226.00	-37.851	167.887	
227.00	-37.656	162.457	
228.00	-37.653	156.757	
229.00	-37.798	150.175	
230.00	-38.088	143.569	
231.00	-38.456	136.982	
232.00	-39.002	129.704	
233.00	-39.556	122.438	
234.00	-40.230	115.702	
235.00	-40.938	109.141	
236.00	-41.640	102.385	
237.00	-42.377	96.060	
238.00	-43.212	91.032	
239.00	-43.819	85.751	
240.00	-44.347	80.492	
241.00	-44.861	75.552	
242.00	-45.265	71.513	
243.00	-45.473	66.046	
244.00	-45.717	60.472	
245.00	-45.742	55.139	
246.00	-45.770	49.466	
247.00	-45.559	43.212	
248.00	-45.570	35.404	
249.00	-45.499	27.398	
250.00	-45.581	18.618	
251.00	-45.649	10.051	
252.00	-45.757	-0.636	
253.00	-45.781	-11.994	
254.00	-46.103	-24.329	
255.00	-45.917	-34.081	
256.00	-45.938	-47.423	
257.00	-45.959	-57.868	
258.00	-46.020	-69.368	
259.00	-46.015	-79.734	
260.00	-46.169	-89.922	
261.00	-46.575	-99.831	
262.00	-47.174	-110.304	
263.00	-47.890	-121.014	
264.00	-48.807	-132.885	
265.00	-50.139	-147.073	
266.00	-51.435	-163.572	
267.00	-52.506	178.322	
268.00	-53.796	157.617	
269.00	-55.357	135.181	
270.00	-55.151	110.728	
271.00	-55.690	86.471	
272.00	-55.695	58.505	
273.00	-55.560	36.343	
274.00	-54.522	12.328	
275.00	-53.439	-9.075	
276.00	-52.515	-28.391	
277.00	-51.507	-45.576	
278.00	-50.891	-59.262	
279.00	-50.114	-72.790	
280.00	-50.187	-87.050	
281.00	-49.395	-95.079	
282.00	-49.144	-108.931	
283.00	-50.245	-121.180	
284.00	-50.712	-130.516	
285.00	-51.720	-144.396	
286.00	-51.214	-162.813	
287.00	-52.441	-179.843	
288.00	-53.135	169.306	
289.00	-55.223	155.765	
290.00	-57.615	147.572	
291.00	-60.326	141.149	
292.00	-63.816	131.641	
293.00	-70.375	125.144	
294.00	-72.757	-154.498	
295.00	-69.611	-110.707	
296.00	-66.542	-120.953	
297.00	-66.725	-125.370	
298.00	-61.414	-160.163	
299.00	-63.572	-169.969	
300.00	-61.638	159.226	
301.00	-60.791	150.051	
302.00	-59.641	110.012	
303.00	-62.015	82.975	
304.00	-60.557	87.162	
305.00	-59.751	55.180	
306.00	-57.975	16.759	
307.00	-58.618	16.868	
308.00	-57.075	-14.060	
309.00	-57.054	-17.903	
310.00	-57.169	-39.618	
311.00	-58.421	-42.232	
312.00	-58.377	-65.976	
313.00	-59.048	-80.586	
314.00	-59.505	-99.947	
315.00	-60.570	-116.165	
316.00	-62.276	-139.286	
317.00	-63.880	-166.050	
318.00	-62.543	177.244	
319.00	-63.095	137.216	
320.00	-63.052	150.391	
321.00	-62.193	133.125	
322.00	-62.424	144.466	
323.00	-62.761	118.385	
324.00	-59.136	133.511	
325.00	-64.217	149.852	
326.00	-58.290	128.896	
327.00	-59.403	137.950	
328.00	-62.791	143.752	
329.00	-59.545	152.103	
330.00	-59.206	150.148	
331.00	-60.838	131.114	
332.00	-60.150	115.065	
333.00	-60.774	125.955	
334.00	-59.442	114.817	
335.00	-60.598	83.246	
336.00	-63.709	54.258	
337.00	-65.667	40.053	
338.00	-65.399	18.097	
339.00	-63.005	-11.418	
340.00	-67.171	0.253	
341.00	-68.439	-31.818	
342.00	-65.252	-66.131	
343.00	-65.068	-98.394	
344.00	-64.003	-124.801	
345.00	-60.261	-143.690	
346.00	-60.709	-170.643	
347.00	-58.832	-173.165	
348.00	-56.673	172.777	
349.00	-55.311	165.921	
350.00	-54.303	163.694	
351.00	-52.886	158.815	
352.00	-52.181	152.639	
353.00	-51.834	145.360	
354.00	-51.207	137.995	
355.00	-51.705	136.632	
356.00	-52.170	123.929	
357.00	-53.583	127.731	
358.00	-54.561	109.711	
359.00	-54.584	110.474	
Frequency	1800.00	MHz	
Channel	test		
Scan Axis name	Azimuth  [deg]		
Scan Axis	Amplitude	Phase	
			
0.00	-58.290	-160.888	
1.00	-59.261	-164.493	
2.00	-59.912	179.483	
3.00	-59.525	167.143	
4.00	-62.006	137.547	
5.00	-62.043	132.662	
6.00	-60.109	109.664	
7.00	-60.548	95.008	
8.00	-60.349	88.734	
9.00	-59.982	76.309	
10.00	-61.814	72.501	
11.00	-63.161	68.986	
12.00	-65.493	69.855	
13.00	-69.087	100.456	
14.00	-67.827	141.493	
15.00	-63.956	168.339	
16.00	-60.775	176.825	
17.00	-58.782	176.959	
18.00	-57.440	172.532	
19.00	-57.478	169.909	
20.00	-57.894	165.032	
21.00	-58.256	155.903	
22.00	-59.222	148.971	
23.00	-59.373	141.208	
24.00	-60.780	131.908	
25.00	-62.290	115.191	
26.00	-64.112	104.845	
27.00	-65.552	76.648	
28.00	-65.004	50.093	
29.00	-60.972	41.311	
30.00	-59.978	34.597	
31.00	-58.903	36.533	
32.00	-58.322	46.595	
33.00	-58.131	46.870	
34.00	-59.053	48.406	
35.00	-59.587	56.271	
36.00	-60.701	58.525	
37.00	-61.066	61.542	
38.00	-61.067	66.318	
39.00	-62.618	72.926	
40.00	-63.106	82.956	
41.00	-64.001	97.626	
42.00	-65.746	121.814	
43.00	-66.394	146.076	
44.00	-66.150	-179.511	
45.00	-63.824	-145.820	
46.00	-62.278	-123.333	
47.00	-61.084	-109.894	
48.00	-61.340	-97.111	
49.00	-61.096	-86.371	
50.00	-62.265	-78.128	
51.00	-64.025	-77.740	
52.00	-64.406	-89.637	
53.00	-64.972	-95.943	
54.00	-63.444	-103.592	
55.00	-61.540	-103.222	
56.00	-59.567	-92.756	
57.00	-57.779	-83.209	
58.00	-56.683	-71.320	
59.00	-55.492	-57.275	
60.00	-55.203	-42.288	
61.00	-55.440	-30.265	
62.00	-55.581	-15.946	
63.00	-57.107	-0.974	
64.00	-59.144	22.713	
65.00	-60.625	54.832	
66.00	-60.746	97.581	
67.00	-58.444	137.985	
68.00	-55.787	154.050	
69.00	-54.618	169.428	
70.00	-53.305	-177.161	
71.00	-52.766	-165.268	
72.00	-52.908	-152.644	
73.00	-53.346	-138.896	
74.00	-54.210	-124.319	
75.00	-55.300	-108.572	
76.00	-55.672	-92.782	
77.00	-58.987	-69.720	
78.00	-57.400	-46.242	
79.00	-56.819	-30.559	
80.00	-54.928	-3.675	
81.00	-59.142	-6.333	
82.00	-67.887	38.016	
83.00	-62.294	10.746	
84.00	-68.629	-2.473	
85.00	-67.128	132.371	
86.00	-57.826	133.061	
87.00	-57.094	-153.516	
88.00	-58.426	-169.569	
89.00	-58.552	-148.673	
90.00	-57.404	-127.348	
91.00	-56.750	-117.859	
92.00	-55.824	-103.490	
93.00	-55.569	-88.856	
94.00	-55.716	-73.933	
95.00	-55.615	-57.241	
96.00	-56.216	-43.797	
97.00	-55.543	-20.580	
98.00	-55.836	3.351	
99.00	-55.108	21.557	
100.00	-54.602	43.015	
101.00	-53.080	71.286	
102.00	-51.987	91.667	
103.00	-51.244	106.508	
104.00	-50.736	122.602	
105.00	-50.238	143.051	
106.00	-49.835	161.368	
107.00	-49.093	-177.318	
108.00	-48.305	-158.663	
109.00	-47.135	-138.224	
110.00	-45.959	-122.323	
111.00	-44.981	-105.366	
112.00	-44.172	-91.493	
113.00	-43.603	-76.826	
114.00	-43.125	-62.524	
115.00	-42.974	-48.643	
116.00	-43.088	-32.722	
117.00	-43.184	-16.751	
118.00	-43.461	0.667	
119.00	-43.735	20.117	
120.00	-43.994	42.181	
121.00	-44.305	64.043	
122.00	-44.169	83.407	
123.00	-44.267	105.782	
124.00	-43.931	126.847	
125.00	-43.977	149.807	
126.00	-43.746	172.443	
127.00	-43.423	-163.180	
128.00	-42.845	-140.630	
129.00	-41.942	-119.162	
130.00	-41.075	-100.098	
131.00	-40.214	-81.750	
132.00	-39.510	-65.184	
133.00	-38.965	-48.906	
134.00	-38.639	-35.261	
135.00	-38.607	-20.574	
136.00	-38.535	-5.066	
137.00	-38.581	10.245	
138.00	-38.838	25.175	
139.00	-39.122	40.557	
140.00	-39.522	56.707	
141.00	-40.089	73.022	
142.00	-40.703	90.341	
143.00	-41.394	108.075	
144.00	-42.078	127.090	
145.00	-42.574	147.596	
146.00	-42.882	168.113	
147.00	-43.081	-171.268	
148.00	-43.201	-153.103	
149.00	-43.361	-134.395	
150.00	-43.675	-117.028	
151.00	-44.256	-99.028	
152.00	-44.904	-80.335	
153.00	-45.435	-58.592	
154.00	-46.002	-37.083	
155.00	-45.894	-18.071	
156.00	-45.973	0.682	
157.00	-45.761	16.702	
158.00	-45.926	28.760	
159.00	-46.400	37.561	
160.00	-47.261	43.311	
161.00	-48.514	43.089	
162.00	-49.767	35.162	
163.00	-50.018	21.292	
164.00	-48.976	7.330	
165.00	-47.429	0.061	
166.00	-45.891	-0.657	
167.00	-44.833	3.729	
168.00	-44.166	13.122	
169.00	-43.654	26.667	
170.00	-42.949	43.174	
171.00	-41.863	62.107	
172.00	-40.093	79.262	
173.00	-38.256	92.415	
174.00	-36.347	102.147	
175.00	-34.665	108.920	
176.00	-33.338	113.392	
177.00	-32.170	116.924	
178.00	-31.288	118.752	
179.00	-30.668	119.631	
180.00	-30.289	119.999	
181.00	-30.166	119.739	
182.00	-30.253	119.239	
183.00	-30.601	118.296	
184.00	-31.185	117.249	
185.00	-32.029	115.981	
186.00	-33.138	114.921	
187.00	-34.582	113.857	
188.00	-36.327	112.936	
189.00	-38.518	112.660	
190.00	-41.165	112.328	
191.00	-44.473	113.502	
192.00	-48.988	114.407	
193.00	-56.001	120.245	
194.00	-76.367	36.949	
195.00	-57.568	-36.393	
196.00	-52.032	-35.796	
197.00	-48.823	-29.890	
198.00	-46.517	-25.995	
199.00	-44.755	-25.336	
200.00	-43.515	-26.783	
201.00	-42.846	-30.165	
202.00	-42.771	-35.883	
203.00	-43.095	-43.333	
204.00	-44.035	-54.923	
205.00	-45.441	-70.872	
206.00	-46.873	-95.545	
207.00	-47.093	-128.114	
208.00	-45.603	-158.109	
209.00	-43.804	-178.903	
210.00	-42.475	165.814	
211.00	-41.482	154.600	
212.00	-41.297	145.474	
213.00	-41.755	137.050	
214.00	-43.119	130.294	
215.00	-45.519	124.728	
216.00	-50.107	125.450	
217.00	-58.902	174.768	
218.00	-50.681	-116.431	
219.00	-44.525	-113.074	
220.00	-41.203	-117.223	
221.00	-38.817	-124.486	
222.00	-37.156	-132.122	
223.00	-36.029	-140.438	
224.00	-35.295	-148.868	
225.00	-34.858	-157.468	
226.00	-34.722	-165.767	
227.00	-34.847	-174.451	
228.00	-35.227	177.179	
229.00	-35.849	168.871	
230.00	-36.682	161.119	
231.00	-37.689	154.246	
232.00	-38.972	147.829	
233.00	-40.391	143.639	
234.00	-41.966	141.080	
235.00	-43.427	141.693	
236.00	-44.561	145.670	
237.00	-45.059	151.068	
238.00	-44.775	154.898	
239.00	-44.234	155.781	
240.00	-43.459	152.936	
241.00	-42.894	147.685	
242.00	-42.320	139.681	
243.00	-42.032	130.984	
244.00	-41.851	120.455	
245.00	-41.755	109.473	
246.00	-41.770	97.806	
247.00	-41.827	85.251	
248.00	-41.895	72.799	
249.00	-42.016	59.985	
250.00	-42.162	47.079	
251.00	-42.354	34.667	
252.00	-42.610	21.967	
253.00	-43.004	10.302	
254.00	-43.401	-1.665	
255.00	-43.992	-13.456	
256.00	-44.664	-25.528	
257.00	-45.436	-37.937	
258.00	-46.326	-50.735	
259.00	-47.341	-64.032	
260.00	-48.286	-78.051	
261.00	-49.254	-92.764	
262.00	-50.369	-107.417	
263.00	-51.621	-122.019	
264.00	-52.784	-137.623	
265.00	-54.210	-155.823	
266.00	-55.892	-173.109	
267.00	-57.570	162.527	
268.00	-59.046	134.723	
269.00	-58.955	100.927	
270.00	-58.971	81.011	
271.00	-57.883	60.878	
272.00	-57.626	42.736	
273.00	-57.505	29.245	
274.00	-57.659	15.278	
275.00	-58.162	1.119	
276.00	-59.518	-13.629	
277.00	-60.315	-31.625	
278.00	-61.450	-47.066	
279.00	-63.127	-61.461	
280.00	-63.988	-84.592	
281.00	-65.712	-93.103	
282.00	-68.188	-90.636	
283.00	-75.414	-96.637	
284.00	-74.330	-50.455	
285.00	-67.066	-0.300	
286.00	-63.535	4.056	
287.00	-60.323	-11.017	
288.00	-58.941	-17.249	
289.00	-58.454	-27.744	
290.00	-58.320	-39.794	
291.00	-59.170	-49.797	
292.00	-59.376	-62.684	
293.00	-61.039	-87.220	
294.00	-61.061	-110.866	
295.00	-61.787	-134.278	
296.00	-61.325	-160.535	
297.00	-60.628	174.636	
298.00	-60.415	155.092	
299.00	-59.467	135.316	
300.00	-59.892	113.005	
301.00	-60.119	90.997	
302.00	-59.296	66.502	
303.00	-59.205	48.155	
304.00	-58.782	25.430	
305.00	-57.804	6.165	
306.00	-57.247	-10.739	
307.00	-56.918	-25.625	
308.00	-57.126	-45.687	
309.00	-56.561	-63.363	
310.00	-56.175	-78.507	
311.00	-56.389	-99.453	
312.00	-56.443	-116.267	
313.00	-56.308	-136.212	
314.00	-56.180	-152.093	
315.00	-56.128	-166.695	
316.00	-56.974	-179.711	
317.00	-58.331	170.730	
318.00	-60.858	161.578	
319.00	-66.165	159.384	
320.00	-74.509	-146.764	
321.00	-66.442	-84.337	
322.00	-61.814	-87.083	
323.00	-59.090	-94.575	
324.00	-57.542	-104.529	
325.00	-57.171	-116.659	
326.00	-56.696	-130.072	
327.00	-57.184	-144.969	
328.00	-58.108	-158.562	
329.00	-59.111	-173.127	
330.00	-59.835	178.465	
331.00	-62.850	166.651	
332.00	-67.279	164.692	
333.00	-72.424	-173.379	
334.00	-70.474	-124.395	
335.00	-66.669	-111.961	
336.00	-64.649	-126.358	
337.00	-62.886	-135.369	
338.00	-62.207	-147.976	
339.00	-61.822	-162.969	
340.00	-61.581	179.365	
341.00	-62.079	160.668	
342.00	-62.560	135.910	
343.00	-63.871	110.688	
344.00	-63.246	82.770	
345.00	-63.196	52.030	
346.00	-62.387	31.454	
347.00	-61.853	11.197	
348.00	-63.017	-8.583	
349.00	-62.433	-39.441	
350.00	-62.198	-66.300	
351.00	-60.792	-88.118	
352.00	-59.134	-106.508	
353.00	-58.386	-118.704	
354.00	-58.026	-126.001	
355.00	-57.938	-133.362	
356.00	-56.690	-140.210	
357.00	-57.608	-147.335	
358.00	-57.705	-154.548	
359.00	-57.786	-160.169	
Frequency	1850.00	MHz	
Channel	test		
Scan Axis name	Azimuth  [deg]		
Scan Axis	Amplitude	Phase	
			
0.00	-58.799	-98.708	
1.00	-59.051	-109.340	
2.00	-59.713	-117.823	
3.00	-60.065	-132.990	
4.00	-60.348	-154.955	
5.00	-59.595	-172.715	
6.00	-59.373	174.453	
7.00	-58.887	161.836	
8.00	-59.156	152.809	
9.00	-60.046	142.945	
10.00	-61.954	136.010	
11.00	-63.759	114.923	
12.00	-69.700	93.649	
13.00	-69.140	53.917	
14.00	-68.431	8.811	
15.00	-64.764	-4.449	
16.00	-62.450	-24.092	
17.00	-61.069	-22.045	
18.00	-60.472	-23.471	
19.00	-62.125	-19.940	
20.00	-63.835	-14.334	
21.00	-72.429	-15.641	
22.00	-76.160	-91.040	
23.00	-66.729	-153.491	
24.00	-63.177	-147.557	
25.00	-60.549	-141.266	
26.00	-59.776	-129.350	
27.00	-59.403	-123.723	
28.00	-59.492	-111.649	
29.00	-59.949	-107.868	
30.00	-61.110	-100.104	
31.00	-62.006	-103.664	
32.00	-64.401	-104.196	
33.00	-67.158	-112.786	
34.00	-71.258	-114.742	
35.00	-76.556	-116.711	
36.00	-76.725	-176.871	
37.00	-71.667	172.986	
38.00	-72.118	174.987	
39.00	-67.830	175.098	
40.00	-66.620	-147.050	
41.00	-64.819	-121.890	
42.00	-62.907	-98.169	
43.00	-61.223	-79.195	
44.00	-59.536	-60.431	
45.00	-58.351	-45.274	
46.00	-58.149	-28.680	
47.00	-57.673	-9.103	
48.00	-59.042	8.339	
49.00	-59.577	29.892	
50.00	-60.398	50.670	
51.00	-61.185	67.463	
52.00	-63.269	91.951	
53.00	-63.690	103.850	
54.00	-65.131	111.848	
55.00	-65.962	106.376	
56.00	-65.497	93.987	
57.00	-63.041	86.955	
58.00	-60.615	89.036	
59.00	-58.604	99.409	
60.00	-57.385	106.340	
61.00	-56.385	117.282	
62.00	-55.877	130.207	
63.00	-55.866	146.780	
64.00	-57.080	161.434	
65.00	-58.098	-178.576	
66.00	-59.824	-151.111	
67.00	-60.549	-113.971	
68.00	-59.309	-77.716	
69.00	-57.665	-48.507	
70.00	-55.272	-30.075	
71.00	-53.862	-15.554	
72.00	-53.554	-0.826	
73.00	-53.120	11.240	
74.00	-53.408	23.006	
75.00	-54.159	36.047	
76.00	-55.418	47.815	
77.00	-57.387	64.780	
78.00	-59.271	82.493	
79.00	-62.209	110.693	
80.00	-61.803	167.072	
81.00	-65.831	-173.006	
82.00	-62.818	-129.861	
83.00	-57.572	-109.310	
84.00	-58.757	-81.638	
85.00	-57.446	-65.786	
86.00	-56.452	-53.381	
87.00	-54.982	-37.186	
88.00	-55.301	-20.423	
89.00	-56.318	-4.663	
90.00	-56.169	8.530	
91.00	-56.155	30.543	
92.00	-56.306	53.666	
93.00	-56.456	75.004	
94.00	-55.032	100.000	
95.00	-53.628	118.350	
96.00	-52.474	136.322	
97.00	-51.112	148.861	
98.00	-50.290	161.437	
99.00	-49.693	174.215	
100.00	-49.144	-173.843	
101.00	-48.928	-153.068	
102.00	-48.636	-138.009	
103.00	-48.385	-123.539	
104.00	-48.115	-108.740	
105.00	-47.954	-92.872	
106.00	-47.829	-78.906	
107.00	-47.625	-62.383	
108.00	-47.571	-47.453	
109.00	-47.347	-29.661	
110.00	-47.395	-13.928	
111.00	-47.383	5.198	
112.00	-47.266	22.280	
113.00	-47.141	41.690	
114.00	-46.874	60.178	
115.00	-46.723	77.393	
116.00	-46.536	95.409	
117.00	-46.433	112.296	
118.00	-46.241	129.952	
119.00	-46.586	146.350	
120.00	-47.014	165.741	
121.00	-47.515	-175.846	
122.00	-48.231	-153.969	
123.00	-49.048	-129.382	
124.00	-49.546	-100.309	
125.00	-49.451	-70.131	
126.00	-47.971	-38.004	
127.00	-46.088	-11.692	
128.00	-44.255	8.733	
129.00	-42.502	26.930	
130.00	-41.069	41.837	
131.00	-39.932	56.249	
132.00	-39.011	69.506	
133.00	-38.374	82.228	
134.00	-37.977	94.476	
135.00	-37.801	107.107	
136.00	-37.819	120.316	
137.00	-38.032	133.886	
138.00	-38.414	148.106	
139.00	-38.965	162.786	
140.00	-39.533	179.663	
141.00	-40.199	-162.706	
142.00	-40.872	-142.547	
143.00	-41.356	-122.440	
144.00	-41.630	-100.762	
145.00	-41.735	-80.306	
146.00	-41.504	-61.113	
147.00	-41.485	-41.953	
148.00	-41.291	-25.004	
149.00	-41.274	-8.788	
150.00	-41.423	6.314	
151.00	-41.800	21.316	
152.00	-42.285	36.964	
153.00	-42.849	53.370	
154.00	-43.153	71.168	
155.00	-43.266	88.137	
156.00	-43.133	103.137	
157.00	-42.775	115.514	
158.00	-42.390	124.082	
159.00	-42.034	130.135	
160.00	-41.669	132.478	
161.00	-41.268	132.205	
162.00	-40.721	129.509	
163.00	-40.138	126.593	
164.00	-39.498	124.172	
165.00	-38.903	122.640	
166.00	-38.576	122.281	
167.00	-38.575	124.901	
168.00	-39.011	130.771	
169.00	-39.962	141.953	
170.00	-40.886	162.197	
171.00	-40.510	-169.267	
172.00	-38.144	-142.396	
173.00	-35.159	-126.999	
174.00	-32.475	-117.662	
175.00	-30.334	-112.334	
176.00	-28.624	-109.037	
177.00	-27.299	-107.043	
178.00	-26.374	-105.982	
179.00	-25.744	-106.036	
180.00	-25.454	-106.454	
181.00	-25.469	-107.616	
182.00	-25.803	-108.934	
183.00	-26.452	-110.811	
184.00	-27.509	-113.220	
185.00	-28.920	-116.120	
186.00	-30.912	-119.565	
187.00	-33.588	-123.742	
188.00	-37.146	-130.734	
189.00	-42.581	-143.316	
190.00	-50.270	172.235	
191.00	-48.466	91.916	
192.00	-44.233	68.654	
193.00	-42.708	59.448	
194.00	-42.947	53.301	
195.00	-44.452	48.877	
196.00	-47.924	46.915	
197.00	-55.201	56.263	
198.00	-58.782	164.467	
199.00	-49.936	-171.335	
200.00	-46.332	-172.257	
201.00	-44.823	-173.886	
202.00	-44.833	-176.824	
203.00	-45.942	-177.400	
204.00	-48.698	-175.638	
205.00	-53.153	-153.935	
206.00	-53.310	-96.811	
207.00	-48.119	-73.144	
208.00	-44.729	-70.368	
209.00	-42.651	-73.719	
210.00	-41.529	-80.271	
211.00	-41.196	-88.548	
212.00	-41.717	-98.114	
213.00	-42.981	-110.175	
214.00	-45.554	-127.579	
215.00	-49.550	-156.667	
216.00	-51.787	138.416	
217.00	-47.205	85.420	
218.00	-43.118	61.715	
219.00	-40.282	45.309	
220.00	-38.434	31.407	
221.00	-37.051	18.615	
222.00	-36.232	6.276	
223.00	-35.742	-5.890	
224.00	-35.585	-18.124	
225.00	-35.711	-30.444	
226.00	-36.139	-42.601	
227.00	-36.877	-54.775	
228.00	-37.897	-66.773	
229.00	-39.281	-78.535	
230.00	-41.197	-89.900	
231.00	-43.807	-100.583	
232.00	-47.782	-109.207	
233.00	-54.716	-109.595	
234.00	-61.430	-18.634	
235.00	-51.705	7.316	
236.00	-47.361	-0.663	
237.00	-44.698	-10.123	
238.00	-43.130	-22.284	
239.00	-42.000	-35.614	
240.00	-41.290	-48.990	
241.00	-40.869	-62.872	
242.00	-40.691	-77.439	
243.00	-40.563	-91.726	
244.00	-40.629	-106.699	
245.00	-40.754	-121.250	
246.00	-40.999	-135.999	
247.00	-41.441	-150.704	
248.00	-41.904	-165.518	
249.00	-42.484	178.807	
250.00	-43.014	163.193	
251.00	-43.542	147.454	
252.00	-44.038	131.611	
253.00	-44.615	116.492	
254.00	-45.067	101.604	
255.00	-45.533	87.163	
256.00	-46.065	73.977	
257.00	-46.777	60.401	
258.00	-47.517	47.493	
259.00	-48.321	34.567	
260.00	-49.294	21.071	
261.00	-50.316	6.834	
262.00	-51.334	-8.213	
263.00	-52.385	-25.079	
264.00	-53.217	-39.755	
265.00	-54.008	-56.204	
266.00	-54.648	-71.368	
267.00	-55.171	-87.959	
268.00	-55.938	-101.750	
269.00	-56.934	-116.509	
270.00	-58.097	-132.722	
271.00	-58.960	-149.103	
272.00	-60.114	-168.522	
273.00	-61.345	173.054	
274.00	-61.906	151.799	
275.00	-62.154	134.330	
276.00	-62.695	117.577	
277.00	-64.472	103.909	
278.00	-64.293	95.703	
279.00	-65.813	83.870	
280.00	-66.741	77.630	
281.00	-69.278	74.373	
282.00	-72.140	78.173	
283.00	-71.584	96.637	
284.00	-69.496	112.058	
285.00	-67.732	101.743	
286.00	-65.911	89.545	
287.00	-62.349	70.610	
288.00	-60.026	52.113	
289.00	-58.645	41.295	
290.00	-56.852	32.507	
291.00	-55.986	22.604	
292.00	-55.332	11.592	
293.00	-54.824	-0.102	
294.00	-54.063	-9.624	
295.00	-54.696	-22.155	
296.00	-55.136	-34.264	
297.00	-55.360	-47.329	
298.00	-55.967	-56.296	
299.00	-56.664	-67.260	
300.00	-57.774	-74.708	
301.00	-59.202	-80.331	
302.00	-61.114	-84.478	
303.00	-62.968	-79.522	
304.00	-65.842	-70.310	
305.00	-66.485	-51.392	
306.00	-65.839	-33.174	
307.00	-64.934	-22.022	
308.00	-63.555	-25.176	
309.00	-62.704	-27.309	
310.00	-63.388	-33.534	
311.00	-63.456	-41.205	
312.00	-63.732	-50.231	
313.00	-65.235	-51.355	
314.00	-66.434	-59.792	
315.00	-69.075	-65.669	
316.00	-72.360	-54.704	
317.00	-72.199	-0.156	
318.00	-69.268	18.898	
319.00	-64.606	25.375	
320.00	-63.469	23.089	
321.00	-60.909	20.754	
322.00	-59.552	15.071	
323.00	-58.437	9.987	
324.00	-58.263	4.478	
325.00	-58.192	-5.971	
326.00	-58.023	-14.625	
327.00	-58.656	-24.685	
328.00	-59.001	-35.199	
329.00	-59.253	-49.709	
330.00	-59.581	-59.858	
331.00	-59.144	-65.423	
332.00	-59.370	-73.379	
333.00	-59.379	-75.477	
334.00	-59.478	-79.359	
335.00	-59.740	-82.979	
336.00	-60.064	-87.753	
337.00	-60.632	-93.385	
338.00	-61.857	-98.828	
339.00	-63.175	-104.569	
340.00	-65.971	-108.396	
341.00	-69.250	-105.853	
342.00	-77.184	-69.762	
343.00	-71.392	-5.507	
344.00	-64.910	18.393	
345.00	-63.053	14.255	
346.00	-60.619	11.736	
347.00	-59.805	6.324	
348.00	-59.717	3.195	
349.00	-59.831	3.613	
350.00	-60.110	2.636	
351.00	-62.402	-0.014	
352.00	-60.690	-10.443	
353.00	-63.736	-18.632	
354.00	-63.098	-32.630	
355.00	-64.358	-45.261	
356.00	-63.175	-52.735	
357.00	-61.463	-77.828	
358.00	-60.201	-87.609	
359.00	-59.138	-93.875	
Frequency	1950.00	MHz	
Channel	test		
Scan Axis name	Azimuth  [deg]		
Scan Axis	Amplitude	Phase	
			
0.00	-67.272	-1.842	
1.00	-64.492	-7.933	
2.00	-64.628	-18.877	
3.00	-69.562	-15.589	
4.00	-68.180	-7.364	
5.00	-91.711	15.334	
6.00	-80.593	-116.338	
7.00	-66.310	-176.191	
8.00	-64.896	175.763	
9.00	-62.547	179.304	
10.00	-60.351	169.802	
11.00	-59.588	172.123	
12.00	-58.720	171.693	
13.00	-58.957	178.258	
14.00	-60.032	177.741	
15.00	-60.706	177.588	
16.00	-62.860	177.935	
17.00	-65.859	173.547	
18.00	-69.212	179.083	
19.00	-74.108	-132.456	
20.00	-70.971	-132.228	
21.00	-72.942	-83.451	
22.00	-68.529	-81.310	
23.00	-66.297	-91.008	
24.00	-66.706	-43.633	
25.00	-68.121	-29.496	
26.00	-70.964	6.837	
27.00	-70.423	16.992	
28.00	-66.534	57.013	
29.00	-66.964	64.966	
30.00	-68.962	44.741	
31.00	-68.840	64.677	
32.00	-72.941	78.669	
33.00	-77.109	66.001	
34.00	-81.665	47.213	
35.00	-94.274	-166.452	
36.00	-71.924	-124.361	
37.00	-70.684	-91.624	
38.00	-66.874	-85.493	
39.00	-65.374	-75.949	
40.00	-63.385	-71.412	
41.00	-62.760	-56.962	
42.00	-62.856	-40.560	
43.00	-61.657	-37.797	
44.00	-61.663	-32.998	
45.00	-61.986	-35.892	
46.00	-62.190	-36.676	
47.00	-61.962	-43.386	
48.00	-62.740	-56.842	
49.00	-61.918	-62.201	
50.00	-62.499	-72.366	
51.00	-62.714	-75.753	
52.00	-63.544	-84.749	
53.00	-63.526	-96.018	
54.00	-64.445	-104.650	
55.00	-65.377	-113.007	
56.00	-66.166	-120.561	
57.00	-66.412	-127.310	
58.00	-69.617	-146.067	
59.00	-72.692	-169.083	
60.00	-71.479	138.606	
61.00	-67.158	107.622	
62.00	-63.151	113.598	
63.00	-61.385	106.920	
64.00	-59.596	111.226	
65.00	-58.735	116.156	
66.00	-58.574	119.814	
67.00	-59.049	122.773	
68.00	-60.820	125.525	
69.00	-62.415	134.960	
70.00	-66.024	147.888	
71.00	-71.289	152.173	
72.00	-80.163	-167.860	
73.00	-77.119	-68.730	
74.00	-72.914	-68.894	
75.00	-69.408	-70.921	
76.00	-67.865	-75.251	
77.00	-66.432	-84.667	
78.00	-65.519	-91.577	
79.00	-63.664	-106.711	
80.00	-63.939	-87.425	
81.00	-62.722	-78.843	
82.00	-61.469	-72.199	
83.00	-61.011	-70.261	
84.00	-63.343	-62.775	
85.00	-61.822	-46.232	
86.00	-61.256	-32.360	
87.00	-61.733	-19.583	
88.00	-62.226	1.205	
89.00	-63.732	26.301	
90.00	-62.513	48.463	
91.00	-61.780	67.458	
92.00	-61.556	76.795	
93.00	-60.322	87.504	
94.00	-59.874	102.178	
95.00	-59.304	110.783	
96.00	-59.255	111.226	
97.00	-59.758	131.506	
98.00	-59.641	148.549	
99.00	-59.739	162.103	
100.00	-59.482	175.910	
101.00	-58.949	-166.666	
102.00	-57.424	-155.724	
103.00	-56.968	-147.593	
104.00	-55.827	-142.338	
105.00	-55.027	-135.529	
106.00	-54.132	-131.683	
107.00	-53.277	-124.520	
108.00	-52.677	-119.253	
109.00	-52.011	-111.107	
110.00	-51.470	-104.046	
111.00	-51.085	-94.311	
112.00	-50.780	-86.254	
113.00	-50.709	-76.180	
114.00	-50.640	-64.668	
115.00	-51.033	-54.171	
116.00	-51.608	-38.696	
117.00	-52.148	-23.318	
118.00	-52.666	-3.999	
119.00	-52.836	15.595	
120.00	-52.486	39.465	
121.00	-51.943	55.284	
122.00	-51.080	74.231	
123.00	-50.708	88.533	
124.00	-50.359	101.439	
125.00	-50.698	112.916	
126.00	-51.574	124.040	
127.00	-52.847	136.032	
128.00	-54.792	156.317	
129.00	-57.449	-177.978	
130.00	-59.403	-139.263	
131.00	-57.654	-94.504	
132.00	-55.260	-67.497	
133.00	-52.935	-44.026	
134.00	-51.516	-29.849	
135.00	-49.976	-17.241	
136.00	-49.024	-3.071	
137.00	-48.222	9.381	
138.00	-47.728	20.323	
139.00	-47.442	30.751	
140.00	-47.389	40.347	
141.00	-47.721	50.322	
142.00	-48.516	60.359	
143.00	-49.716	70.251	
144.00	-51.397	81.439	
145.00	-54.040	95.732	
146.00	-56.688	116.446	
147.00	-60.312	155.096	
148.00	-58.961	-165.504	
149.00	-57.829	-138.734	
150.00	-56.078	-120.229	
151.00	-56.037	-108.959	
152.00	-55.962	-99.997	
153.00	-56.927	-97.217	
154.00	-60.386	-101.447	
155.00	-72.482	-75.940	
156.00	-82.495	137.054	
157.00	-63.166	110.686	
158.00	-57.907	104.677	
159.00	-55.197	103.066	
160.00	-54.570	96.300	
161.00	-53.760	82.329	
162.00	-52.797	60.935	
163.00	-51.088	39.137	
164.00	-48.321	22.113	
165.00	-45.904	11.292	
166.00	-43.830	6.639	
167.00	-42.620	3.967	
168.00	-42.185	2.270	
169.00	-42.958	1.333	
170.00	-45.481	-4.657	
171.00	-52.253	-30.173	
172.00	-49.004	-138.453	
173.00	-40.622	-154.670	
174.00	-35.657	-158.219	
175.00	-32.272	-159.748	
176.00	-29.781	-159.840	
177.00	-27.924	-159.812	
178.00	-26.636	-159.572	
179.00	-25.756	-159.587	
180.00	-25.280	-159.482	
181.00	-25.169	-159.513	
182.00	-25.430	-159.257	
183.00	-26.062	-159.277	
184.00	-27.118	-159.252	
185.00	-28.635	-159.318	
186.00	-30.667	-158.898	
187.00	-33.437	-157.723	
188.00	-37.108	-155.182	
189.00	-42.483	-146.987	
190.00	-50.277	-117.018	
191.00	-51.353	-40.150	
192.00	-47.849	-13.440	
193.00	-47.027	-3.923	
194.00	-48.458	6.274	
195.00	-51.589	26.444	
196.00	-53.818	69.574	
197.00	-50.690	108.982	
198.00	-47.463	122.419	
199.00	-45.994	126.020	
200.00	-45.678	125.842	
201.00	-46.408	124.586	
202.00	-48.739	122.124	
203.00	-53.670	119.332	
204.00	-65.455	138.564	
205.00	-59.128	-87.902	
206.00	-52.146	-87.137	
207.00	-49.299	-91.566	
208.00	-48.283	-98.909	
209.00	-48.487	-105.896	
210.00	-49.977	-115.499	
211.00	-53.454	-125.704	
212.00	-61.834	-147.173	
213.00	-63.843	69.281	
214.00	-53.478	39.507	
215.00	-49.288	27.993	
216.00	-46.693	16.050	
217.00	-45.100	5.350	
218.00	-44.100	-5.831	
219.00	-43.713	-17.462	
220.00	-43.719	-27.982	
221.00	-44.009	-39.549	
222.00	-44.762	-49.980	
223.00	-45.954	-60.321	
224.00	-47.370	-70.913	
225.00	-49.283	-79.189	
226.00	-51.622	-84.023	
227.00	-54.046	-84.935	
228.00	-56.363	-75.460	
229.00	-56.580	-62.285	
230.00	-55.311	-55.903	
231.00	-53.275	-58.489	
232.00	-51.890	-65.598	
233.00	-50.841	-75.998	
234.00	-49.874	-88.744	
235.00	-49.350	-101.639	
236.00	-48.945	-116.045	
237.00	-48.861	-130.016	
238.00	-48.938	-144.902	
239.00	-49.093	-159.067	
240.00	-49.426	-174.179	
241.00	-49.921	171.147	
242.00	-50.670	156.552	
243.00	-51.498	141.776	
244.00	-52.822	126.478	
245.00	-54.002	109.497	
246.00	-55.218	92.936	
247.00	-56.725	75.463	
248.00	-58.204	54.804	
249.00	-59.513	34.158	
250.00	-60.178	11.525	
251.00	-60.859	-10.054	
252.00	-61.434	-32.374	
253.00	-61.570	-44.701	
254.00	-63.295	-55.605	
255.00	-62.652	-73.695	
256.00	-63.121	-82.953	
257.00	-62.091	-85.743	
258.00	-63.265	-86.716	
259.00	-64.523	-96.530	
260.00	-65.267	-98.979	
261.00	-65.250	-102.265	
262.00	-65.657	-111.977	
263.00	-64.633	-117.557	
264.00	-63.958	-127.177	
265.00	-63.962	-133.969	
266.00	-63.917	-143.924	
267.00	-63.776	-150.832	
268.00	-64.169	-157.654	
269.00	-62.241	-166.740	
270.00	-66.224	-169.619	
271.00	-66.769	-179.002	
272.00	-68.823	177.661	
273.00	-73.485	-178.750	
274.00	-79.600	-170.664	
275.00	-79.406	-175.186	
276.00	-76.428	-89.683	
277.00	-71.587	-88.146	
278.00	-68.235	-94.089	
279.00	-66.613	-93.879	
280.00	-65.989	-101.586	
281.00	-63.491	-117.772	
282.00	-63.607	-121.451	
283.00	-63.356	-119.028	
284.00	-63.567	-131.000	
285.00	-63.990	-141.886	
286.00	-63.137	-139.883	
287.00	-63.105	-147.633	
288.00	-62.981	-144.402	
289.00	-62.978	-156.122	
290.00	-63.700	-145.291	
291.00	-61.951	-151.544	
292.00	-62.883	-152.079	
293.00	-63.473	-157.500	
294.00	-62.742	-161.537	
295.00	-64.926	-155.384	
296.00	-66.238	-144.708	
297.00	-69.695	-154.032	
298.00	-70.772	-137.960	
299.00	-73.663	-108.695	
300.00	-72.727	-101.643	
301.00	-69.998	-67.220	
302.00	-70.123	-49.788	
303.00	-71.951	-55.416	
304.00	-71.433	-56.658	
305.00	-71.555	-39.406	
306.00	-74.039	62.730	
307.00	-74.405	-6.429	
308.00	-71.648	9.638	
309.00	-68.658	21.821	
310.00	-70.185	30.391	
311.00	-69.580	24.740	
312.00	-67.551	23.711	
313.00	-67.667	15.812	
314.00	-66.893	19.260	
315.00	-68.795	-0.118	
316.00	-72.931	-27.123	
317.00	-69.959	-23.066	
318.00	-69.128	-25.724	
319.00	-68.209	-41.710	
320.00	-69.655	-51.711	
321.00	-68.927	-45.400	
322.00	-70.810	-36.682	
323.00	-70.007	-28.756	
324.00	-67.681	-10.469	
325.00	-66.531	-3.526	
326.00	-66.116	4.344	
327.00	-64.008	-14.806	
328.00	-62.859	-17.431	
329.00	-61.744	-29.843	
330.00	-61.828	-34.319	
331.00	-61.420	-42.766	
332.00	-62.403	-44.177	
333.00	-64.426	-59.333	
334.00	-64.171	-51.657	
335.00	-62.978	-65.400	
336.00	-67.161	-38.307	
337.00	-68.611	-42.199	
338.00	-68.903	-50.287	
339.00	-70.816	-59.488	
340.00	-69.573	-48.173	
341.00	-67.874	-53.853	
342.00	-69.572	-80.983	
343.00	-68.705	-91.675	
344.00	-66.318	-102.783	
345.00	-66.333	-121.139	
346.00	-64.352	-129.145	
347.00	-61.755	-146.805	
348.00	-60.847	-151.374	
349.00	-59.988	-166.176	
350.00	-58.105	-160.691	
351.00	-58.667	-176.310	
352.00	-58.856	174.204	
353.00	-59.153	168.764	
354.00	-60.752	166.058	
355.00	-62.015	156.537	
356.00	-65.188	157.624	
357.00	-69.113	145.839	
358.00	-71.950	64.546	
359.00	-73.418	25.636	
Frequency	2050.00	MHz	
Channel	test		
Scan Axis name	Azimuth  [deg]		
Scan Axis	Amplitude	Phase	
			
0.00	-64.798	-83.217	
1.00	-65.535	-81.818	
2.00	-71.005	-115.116	
3.00	-85.151	-100.706	
4.00	-75.801	55.570	
5.00	-65.401	93.873	
6.00	-62.869	95.683	
7.00	-60.039	94.461	
8.00	-60.129	98.885	
9.00	-59.846	94.588	
10.00	-63.192	99.193	
11.00	-64.110	101.907	
12.00	-67.416	107.285	
13.00	-75.548	93.725	
14.00	-84.682	-52.277	
15.00	-72.550	-58.495	
16.00	-69.102	-50.185	
17.00	-68.717	-58.314	
18.00	-69.229	-53.716	
19.00	-73.028	-54.644	
20.00	-74.648	-50.451	
21.00	-77.719	-124.998	
22.00	-69.188	-147.289	
23.00	-66.626	-156.733	
24.00	-64.737	-150.508	
25.00	-62.384	-149.978	
26.00	-62.878	-133.604	
27.00	-61.651	-125.968	
28.00	-62.739	-112.456	
29.00	-66.088	-87.115	
30.00	-68.859	-88.958	
31.00	-69.179	-38.069	
32.00	-68.773	-1.829	
33.00	-68.921	17.780	
34.00	-68.075	40.101	
35.00	-67.182	63.465	
36.00	-69.668	84.336	
37.00	-70.624	104.643	
38.00	-72.118	167.321	
39.00	-73.148	-157.762	
40.00	-67.127	-133.502	
41.00	-65.375	-114.455	
42.00	-66.979	-112.386	
43.00	-64.651	-97.853	
44.00	-67.077	-93.771	
45.00	-68.660	-108.126	
46.00	-68.585	-138.639	
47.00	-65.941	-152.324	
48.00	-63.427	-153.605	
49.00	-61.812	-153.181	
50.00	-61.499	-152.498	
51.00	-60.533	-144.386	
52.00	-61.693	-139.084	
53.00	-64.062	-129.538	
54.00	-66.398	-136.090	
55.00	-68.026	-126.626	
56.00	-69.032	-125.116	
57.00	-72.634	-100.928	
58.00	-70.913	-71.073	
59.00	-68.011	-54.552	
60.00	-64.682	-35.851	
61.00	-62.215	-30.524	
62.00	-60.830	-26.160	
63.00	-59.281	-11.939	
64.00	-59.043	-0.505	
65.00	-59.262	12.792	
66.00	-60.294	27.524	
67.00	-60.543	45.681	
68.00	-61.494	60.780	
69.00	-62.638	80.100	
70.00	-65.154	100.182	
71.00	-65.440	120.502	
72.00	-70.368	137.871	
73.00	-70.814	124.455	
74.00	-79.994	130.174	
75.00	-78.345	87.466	
76.00	-71.405	69.720	
77.00	-70.226	83.410	
78.00	-66.789	92.620	
79.00	-64.466	93.214	
80.00	-62.336	108.900	
81.00	-59.803	122.063	
82.00	-59.590	127.058	
83.00	-61.571	128.432	
84.00	-59.011	137.662	
85.00	-60.338	139.564	
86.00	-65.057	142.074	
87.00	-66.623	160.889	
88.00	-71.971	127.024	
89.00	-85.168	-171.956	
90.00	-73.057	-25.634	
91.00	-74.026	6.853	
92.00	-66.797	9.443	
93.00	-69.388	-1.178	
94.00	-68.327	-31.999	
95.00	-75.803	-24.605	
96.00	-72.499	-32.664	
97.00	-73.699	-37.865	
98.00	-76.134	-40.252	
99.00	-79.877	-82.057	
100.00	-76.872	-36.312	
101.00	-76.741	50.401	
102.00	-70.935	55.227	
103.00	-65.063	77.295	
104.00	-62.190	85.081	
105.00	-59.346	97.375	
106.00	-57.200	108.369	
107.00	-55.228	121.822	
108.00	-53.625	132.878	
109.00	-52.296	148.287	
110.00	-51.092	159.622	
111.00	-50.051	174.643	
112.00	-49.168	-172.481	
113.00	-48.514	-158.322	
114.00	-47.960	-142.720	
115.00	-47.804	-128.470	
116.00	-47.704	-110.674	
117.00	-47.696	-94.494	
118.00	-47.749	-76.662	
119.00	-47.630	-59.340	
120.00	-47.601	-40.388	
121.00	-47.571	-24.249	
122.00	-47.540	-8.822	
123.00	-48.099	7.038	
124.00	-48.332	22.437	
125.00	-49.504	34.838	
126.00	-50.274	44.275	
127.00	-52.399	56.454	
128.00	-54.527	64.759	
129.00	-57.636	69.214	
130.00	-61.423	44.706	
131.00	-61.927	10.703	
132.00	-58.719	-2.556	
133.00	-56.644	-1.680	
134.00	-54.839	4.400	
135.00	-54.090	15.039	
136.00	-53.884	27.825	
137.00	-54.270	43.015	
138.00	-55.219	60.707	
139.00	-55.800	79.629	
140.00	-57.063	100.724	
141.00	-57.825	125.247	
142.00	-57.720	155.050	
143.00	-57.040	174.258	
144.00	-56.081	-165.001	
145.00	-54.969	-152.711	
146.00	-54.374	-142.943	
147.00	-53.579	-136.956	
148.00	-53.228	-128.983	
149.00	-52.768	-126.455	
150.00	-52.473	-109.962	
151.00	-52.575	-99.963	
152.00	-52.348	-85.614	
153.00	-51.899	-67.604	
154.00	-51.187	-41.686	
155.00	-49.393	-24.232	
156.00	-47.988	-5.870	
157.00	-46.112	6.369	
158.00	-44.514	16.639	
159.00	-43.349	25.548	
160.00	-42.870	32.501	
161.00	-42.630	39.379	
162.00	-42.869	44.597	
163.00	-43.556	51.110	
164.00	-44.661	58.918	
165.00	-45.558	67.336	
166.00	-46.273	77.878	
167.00	-45.862	87.853	
168.00	-44.408	93.642	
169.00	-42.164	98.103	
170.00	-39.430	98.733	
171.00	-36.712	98.352	
172.00	-34.100	97.733	
173.00	-31.838	97.430	
174.00	-29.858	97.309	
175.00	-28.255	96.994	
176.00	-26.995	96.730	
177.00	-26.014	96.747	
178.00	-25.417	96.412	
179.00	-25.145	95.704	
180.00	-25.217	94.920	
181.00	-25.660	93.605	
182.00	-26.509	92.345	
183.00	-27.780	90.369	
184.00	-29.620	87.455	
185.00	-32.112	83.246	
186.00	-35.543	76.820	
187.00	-40.523	63.321	
188.00	-46.908	23.390	
189.00	-46.010	-42.414	
190.00	-42.690	-65.910	
191.00	-41.261	-73.645	
192.00	-41.229	-76.729	
193.00	-42.250	-75.298	
194.00	-44.238	-68.608	
195.00	-46.252	-52.335	
196.00	-47.022	-31.250	
197.00	-46.230	-13.430	
198.00	-45.681	-8.247	
199.00	-45.674	-9.313	
200.00	-46.675	-18.785	
201.00	-48.786	-34.910	
202.00	-50.767	-67.306	
203.00	-50.548	-109.228	
204.00	-48.140	-141.852	
205.00	-46.394	-161.506	
206.00	-45.558	-175.358	
207.00	-45.644	171.635	
208.00	-46.699	159.219	
209.00	-49.219	144.503	
210.00	-54.261	122.882	
211.00	-61.958	33.742	
212.00	-52.625	-33.391	
213.00	-47.661	-52.738	
214.00	-44.733	-66.574	
215.00	-43.061	-79.032	
216.00	-42.237	-90.983	
217.00	-41.993	-103.940	
218.00	-42.337	-117.915	
219.00	-43.148	-133.645	
220.00	-44.270	-151.107	
221.00	-45.573	-172.354	
222.00	-46.855	164.026	
223.00	-47.840	138.096	
224.00	-48.406	111.808	
225.00	-48.881	86.093	
226.00	-49.058	63.149	
227.00	-49.292	42.079	
228.00	-49.424	22.563	
229.00	-49.762	5.806	
230.00	-50.133	-9.679	
231.00	-50.699	-22.634	
232.00	-51.177	-33.492	
233.00	-51.628	-41.016	
234.00	-51.873	-46.637	
235.00	-51.802	-50.747	
236.00	-51.457	-55.462	
237.00	-50.844	-59.916	
238.00	-50.306	-65.338	
239.00	-49.802	-72.179	
240.00	-49.486	-79.362	
241.00	-49.468	-87.102	
242.00	-49.791	-95.847	
243.00	-50.410	-104.763	
244.00	-51.519	-114.408	
245.00	-52.973	-123.501	
246.00	-55.162	-133.398	
247.00	-57.956	-145.689	
248.00	-62.322	-163.376	
249.00	-67.880	165.076	
250.00	-72.036	95.088	
251.00	-67.553	44.875	
252.00	-64.334	21.981	
253.00	-63.189	8.760	
254.00	-61.175	-15.804	
255.00	-61.463	-23.938	
256.00	-62.714	-36.620	
257.00	-62.900	-43.919	
258.00	-64.278	-52.466	
259.00	-66.154	-70.186	
260.00	-68.287	-80.788	
261.00	-72.131	-111.500	
262.00	-76.676	-166.135	
263.00	-73.588	164.157	
264.00	-69.349	136.919	
265.00	-67.763	122.735	
266.00	-66.280	109.450	
267.00	-64.465	103.353	
268.00	-65.137	96.302	
269.00	-65.599	89.249	
270.00	-66.685	79.254	
271.00	-67.419	68.863	
272.00	-72.014	66.863	
273.00	-76.489	41.377	
274.00	-83.984	-11.666	
275.00	-98.882	78.216	
276.00	-78.696	-156.538	
277.00	-69.752	172.506	
278.00	-70.330	168.756	
279.00	-66.025	151.512	
280.00	-64.258	149.431	
281.00	-62.822	129.672	
282.00	-62.789	130.541	
283.00	-62.145	124.888	
284.00	-62.248	118.132	
285.00	-62.552	118.430	
286.00	-62.717	125.897	
287.00	-62.206	139.747	
288.00	-61.621	141.314	
289.00	-60.157	146.888	
290.00	-58.940	148.233	
291.00	-58.210	146.522	
292.00	-58.031	143.612	
293.00	-57.003	138.926	
294.00	-57.464	133.454	
295.00	-57.899	126.725	
296.00	-58.860	123.065	
297.00	-60.002	117.946	
298.00	-62.422	114.425	
299.00	-64.533	114.119	
300.00	-66.983	124.954	
301.00	-67.597	146.712	
302.00	-67.568	172.111	
303.00	-65.601	173.681	
304.00	-67.030	178.642	
305.00	-65.706	171.044	
306.00	-64.699	153.587	
307.00	-64.595	163.345	
308.00	-70.718	140.412	
309.00	-64.992	155.663	
310.00	-69.285	141.236	
311.00	-69.634	130.153	
312.00	-69.568	160.269	
313.00	-73.977	119.064	
314.00	-73.386	125.172	
315.00	-77.265	125.453	
316.00	-72.755	132.099	
317.00	-75.601	156.241	
318.00	-70.549	178.522	
319.00	-67.277	-177.975	
320.00	-63.878	179.594	
321.00	-61.941	174.264	
322.00	-59.705	167.066	
323.00	-58.505	161.048	
324.00	-57.297	155.216	
325.00	-56.618	149.415	
326.00	-56.177	143.695	
327.00	-56.533	141.062	
328.00	-56.994	138.272	
329.00	-57.409	134.640	
330.00	-58.694	121.934	
331.00	-59.569	126.905	
332.00	-62.146	127.747	
333.00	-62.763	140.844	
334.00	-67.453	160.940	
335.00	-65.863	-169.573	
336.00	-63.892	-153.190	
337.00	-62.069	-154.798	
338.00	-60.249	-158.111	
339.00	-60.686	-169.854	
340.00	-60.898	173.438	
341.00	-63.426	154.123	
342.00	-64.353	124.119	
343.00	-65.795	95.786	
344.00	-65.017	52.035	
345.00	-62.716	27.845	
346.00	-62.117	-3.034	
347.00	-60.974	-11.660	
348.00	-60.228	-26.491	
349.00	-60.591	-52.710	
350.00	-61.211	-65.205	
351.00	-61.824	-82.543	
352.00	-62.532	-102.486	
353.00	-61.935	-116.010	
354.00	-61.455	-108.252	
355.00	-64.672	-117.271	
356.00	-65.506	-112.231	
357.00	-65.159	-103.837	
358.00	-64.547	-84.724	
359.00	-64.758	-78.882	
Frequency	2170.00	MHz	
Channel	test		
Scan Axis name	Azimuth  [deg]		
Scan Axis	Amplitude	Phase	
			
0.00	-64.659	-12.101	
1.00	-66.034	9.185	
2.00	-63.657	-2.113	
3.00	-70.076	-66.658	
4.00	-68.571	-18.780	
5.00	-70.640	0.212	
6.00	-83.043	44.449	
7.00	-75.565	-10.766	
8.00	-66.945	-82.480	
9.00	-77.987	-81.932	
10.00	-76.494	-37.571	
11.00	-73.567	24.655	
12.00	-74.949	34.436	
13.00	-76.973	88.032	
14.00	-70.820	96.739	
15.00	-72.434	54.298	
16.00	-68.282	81.865	
17.00	-68.206	68.961	
18.00	-63.989	96.887	
19.00	-63.623	88.367	
20.00	-64.293	69.376	
21.00	-62.812	65.173	
22.00	-61.402	63.469	
23.00	-59.100	43.985	
24.00	-58.914	45.494	
25.00	-58.147	48.735	
26.00	-58.048	48.383	
27.00	-58.075	54.469	
28.00	-59.760	52.454	
29.00	-61.000	45.398	
30.00	-62.516	52.938	
31.00	-68.553	20.795	
32.00	-68.631	12.265	
33.00	-72.668	-38.568	
34.00	-67.007	-85.719	
35.00	-64.130	-82.526	
36.00	-62.626	-84.414	
37.00	-62.040	-87.122	
38.00	-62.900	-85.781	
39.00	-63.375	-84.800	
40.00	-66.143	-86.770	
41.00	-69.335	-106.419	
42.00	-69.829	-138.851	
43.00	-67.874	-152.809	
44.00	-66.251	-150.121	
45.00	-66.079	-149.240	
46.00	-65.887	-140.693	
47.00	-65.984	-137.001	
48.00	-65.012	-130.836	
49.00	-65.048	-113.613	
50.00	-65.851	-124.211	
51.00	-63.822	-103.867	
52.00	-63.870	-105.200	
53.00	-63.575	-96.062	
54.00	-64.874	-74.150	
55.00	-66.058	-81.684	
56.00	-67.089	-51.594	
57.00	-78.427	-73.491	
58.00	-71.701	83.001	
59.00	-65.978	109.091	
60.00	-62.812	120.236	
61.00	-60.867	138.811	
62.00	-59.861	153.545	
63.00	-58.635	172.913	
64.00	-58.761	-173.817	
65.00	-59.614	-155.384	
66.00	-60.528	-139.004	
67.00	-62.198	-131.320	
68.00	-64.506	-114.639	
69.00	-71.390	-115.199	
70.00	-85.893	158.776	
71.00	-72.682	134.475	
72.00	-66.920	127.077	
73.00	-63.458	140.102	
74.00	-63.441	151.277	
75.00	-62.736	162.955	
76.00	-66.074	-171.814	
77.00	-67.395	-141.324	
78.00	-68.975	-116.260	
79.00	-67.004	-70.585	
80.00	-65.357	-31.302	
81.00	-62.857	-12.085	
82.00	-62.711	20.584	
83.00	-60.497	41.321	
84.00	-59.414	66.350	
85.00	-58.575	84.493	
86.00	-57.503	99.715	
87.00	-57.122	117.523	
88.00	-56.576	129.408	
89.00	-56.386	143.702	
90.00	-55.936	157.968	
91.00	-56.993	176.510	
92.00	-57.394	-165.214	
93.00	-57.688	-148.393	
94.00	-59.169	-131.464	
95.00	-60.673	-107.462	
96.00	-59.691	-77.773	
97.00	-58.884	-48.843	
98.00	-58.400	-30.544	
99.00	-56.345	-1.220	
100.00	-55.247	6.654	
101.00	-54.779	37.894	
102.00	-53.618	52.027	
103.00	-52.518	66.131	
104.00	-52.345	81.935	
105.00	-51.725	96.267	
106.00	-51.542	107.340	
107.00	-51.873	121.918	
108.00	-52.172	132.703	
109.00	-52.777	149.370	
110.00	-53.709	163.319	
111.00	-54.688	-179.174	
112.00	-55.979	-159.837	
113.00	-57.251	-146.794	
114.00	-58.242	-133.232	
115.00	-58.950	-128.078	
116.00	-59.014	-131.721	
117.00	-57.963	-141.919	
118.00	-54.811	-152.237	
119.00	-51.971	-147.116	
120.00	-49.788	-141.296	
121.00	-47.561	-131.376	
122.00	-46.219	-118.197	
123.00	-45.074	-105.156	
124.00	-44.102	-89.527	
125.00	-43.256	-73.878	
126.00	-42.775	-57.313	
127.00	-42.260	-39.984	
128.00	-42.055	-23.395	
129.00	-41.916	-5.993	
130.00	-42.109	11.039	
131.00	-42.711	29.924	
132.00	-43.458	48.797	
133.00	-44.606	69.603	
134.00	-46.214	91.528	
135.00	-48.120	119.490	
136.00	-49.793	155.110	
137.00	-50.341	-160.657	
138.00	-48.729	-123.227	
139.00	-46.610	-93.994	
140.00	-44.963	-69.922	
141.00	-43.938	-51.150	
142.00	-43.189	-33.759	
143.00	-42.794	-19.230	
144.00	-42.699	-4.754	
145.00	-42.891	8.072	
146.00	-43.321	19.746	
147.00	-43.909	29.970	
148.00	-44.793	38.492	
149.00	-45.631	45.078	
150.00	-46.874	50.366	
151.00	-47.695	53.502	
152.00	-48.990	55.860	
153.00	-50.537	58.265	
154.00	-53.463	56.913	
155.00	-58.833	51.039	
156.00	-67.434	-32.866	
157.00	-55.691	-92.384	
158.00	-50.150	-90.637	
159.00	-46.756	-90.562	
160.00	-44.702	-87.060	
161.00	-43.399	-84.574	
162.00	-42.774	-82.545	
163.00	-42.838	-81.584	
164.00	-43.517	-81.400	
165.00	-45.106	-85.569	
166.00	-47.009	-93.357	
167.00	-49.411	-104.371	
168.00	-51.967	-118.655	
169.00	-55.792	-116.130	
170.00	-56.688	-39.216	
171.00	-46.997	-6.920	
172.00	-40.324	-1.849	
173.00	-35.688	0.416	
174.00	-32.145	1.743	
175.00	-29.370	2.659	
176.00	-27.227	3.493	
177.00	-25.582	4.568	
178.00	-24.410	5.525	
179.00	-23.626	6.220	
180.00	-23.251	6.967	
181.00	-23.259	7.592	
182.00	-23.688	8.591	
183.00	-24.522	9.621	
184.00	-25.861	10.898	
185.00	-27.713	12.594	
186.00	-30.222	16.049	
187.00	-33.669	22.369	
188.00	-38.103	35.453	
189.00	-43.163	67.305	
190.00	-44.283	114.036	
191.00	-43.014	141.178	
192.00	-42.960	155.610	
193.00	-44.538	168.038	
194.00	-47.546	-171.040	
195.00	-49.285	-131.451	
196.00	-47.468	-97.138	
197.00	-45.452	-82.470	
198.00	-44.790	-77.199	
199.00	-45.919	-77.720	
200.00	-49.598	-78.654	
201.00	-61.770	-88.312	
202.00	-53.693	101.234	
203.00	-46.335	94.770	
204.00	-43.011	88.288	
205.00	-41.511	80.443	
206.00	-41.182	72.326	
207.00	-41.876	61.843	
208.00	-43.782	48.225	
209.00	-47.097	22.763	
210.00	-49.856	-30.438	
211.00	-46.804	-81.910	
212.00	-42.969	-108.101	
213.00	-40.502	-123.671	
214.00	-38.848	-135.846	
215.00	-37.969	-145.935	
216.00	-37.671	-154.298	
217.00	-37.862	-162.303	
218.00	-38.552	-169.183	
219.00	-39.644	-174.716	
220.00	-41.081	-178.072	
221.00	-42.807	-177.263	
222.00	-44.561	-171.180	
223.00	-45.487	-160.565	
224.00	-45.201	-149.799	
225.00	-44.336	-144.293	
226.00	-43.202	-143.448	
227.00	-42.314	-146.721	
228.00	-41.678	-151.711	
229.00	-41.396	-158.362	
230.00	-41.374	-165.641	
231.00	-41.459	-173.568	
232.00	-41.857	178.410	
233.00	-42.350	169.809	
234.00	-42.963	160.843	
235.00	-43.846	151.334	
236.00	-44.815	140.742	
237.00	-46.152	129.107	
238.00	-47.312	115.860	
239.00	-48.739	100.593	
240.00	-50.103	84.264	
241.00	-51.691	66.195	
242.00	-52.873	47.886	
243.00	-54.681	27.863	
244.00	-56.380	8.382	
245.00	-58.508	-15.943	
246.00	-61.432	-42.428	
247.00	-64.265	-85.192	
248.00	-63.471	-132.617	
249.00	-62.201	-169.375	
250.00	-60.750	159.935	
251.00	-58.828	143.770	
252.00	-57.279	120.420	
253.00	-56.601	101.918	
254.00	-55.682	82.253	
255.00	-56.027	68.647	
256.00	-56.390	51.106	
257.00	-56.428	40.406	
258.00	-57.427	22.193	
259.00	-57.689	8.215	
260.00	-59.682	-3.004	
261.00	-59.952	-22.790	
262.00	-61.624	-40.059	
263.00	-64.286	-56.825	
264.00	-64.051	-79.867	
265.00	-65.278	-93.234	
266.00	-65.750	-119.138	
267.00	-65.936	-140.004	
268.00	-65.625	-159.463	
269.00	-64.381	-171.099	
270.00	-64.425	177.174	
271.00	-63.682	168.330	
272.00	-63.008	159.401	
273.00	-62.741	150.278	
274.00	-62.442	140.636	
275.00	-61.895	127.915	
276.00	-62.034	120.160	
277.00	-63.172	110.164	
278.00	-62.930	103.602	
279.00	-64.184	90.448	
280.00	-67.535	87.316	
281.00	-67.995	78.603	
282.00	-74.243	99.317	
283.00	-74.573	64.933	
284.00	-74.382	111.666	
285.00	-79.015	122.468	
286.00	-72.311	141.085	
287.00	-71.378	88.487	
288.00	-73.094	72.584	
289.00	-67.327	46.922	
290.00	-65.159	37.347	
291.00	-64.656	23.358	
292.00	-62.813	15.524	
293.00	-61.979	9.510	
294.00	-62.784	11.973	
295.00	-65.476	6.486	
296.00	-67.305	3.367	
297.00	-73.083	53.748	
298.00	-68.906	64.387	
299.00	-70.577	70.729	
300.00	-67.821	111.253	
301.00	-64.217	88.468	
302.00	-66.106	120.489	
303.00	-67.865	107.926	
304.00	-67.739	133.477	
305.00	-63.685	129.859	
306.00	-64.962	114.666	
307.00	-63.089	140.685	
308.00	-61.361	125.143	
309.00	-60.917	115.755	
310.00	-60.206	115.952	
311.00	-59.025	107.752	
312.00	-58.697	100.864	
313.00	-58.032	88.200	
314.00	-58.682	81.299	
315.00	-59.224	73.505	
316.00	-59.763	70.368	
317.00	-61.712	44.699	
318.00	-63.362	34.869	
319.00	-66.927	19.800	
320.00	-68.646	-0.259	
321.00	-71.118	-38.907	
322.00	-75.706	-57.908	
323.00	-73.414	-147.550	
324.00	-67.921	-129.380	
325.00	-74.387	77.161	
326.00	-74.302	107.942	
327.00	-66.881	131.056	
328.00	-64.451	104.407	
329.00	-69.182	111.781	
330.00	-68.063	105.021	
331.00	-67.694	81.894	
332.00	-72.582	94.650	
333.00	-68.230	58.309	
334.00	-64.001	59.863	
335.00	-71.216	43.217	
336.00	-71.597	4.434	
337.00	-67.822	-5.488	
338.00	-68.080	12.771	
339.00	-68.528	-15.995	
340.00	-69.333	-15.844	
341.00	-72.981	13.003	
342.00	-72.723	7.818	
343.00	-72.469	22.987	
344.00	-71.358	31.342	
345.00	-75.246	-3.440	
346.00	-77.051	-45.780	
347.00	-72.536	-133.433	
348.00	-72.393	-153.012	
349.00	-65.680	-149.636	
350.00	-65.947	-171.421	
351.00	-67.851	171.187	
352.00	-65.382	-179.902	
353.00	-67.941	153.113	
354.00	-73.177	144.886	
355.00	-74.240	-6.250	
356.00	-68.131	43.063	
357.00	-66.815	0.599	
358.00	-65.796	-7.047	
359.00	-64.389	1.911	
Frequency	2300.00	MHz	
Channel	test		
Scan Axis name	Azimuth  [deg]		
Scan Axis	Amplitude	Phase	
			
0.00	-63.647	104.713	
1.00	-63.330	98.900	
2.00	-63.821	96.525	
3.00	-65.856	90.533	
4.00	-67.757	89.875	
5.00	-76.077	84.606	
6.00	-77.650	-116.393	
7.00	-69.592	-112.318	
8.00	-64.596	-102.199	
9.00	-61.849	-105.238	
10.00	-61.459	-89.200	
11.00	-61.285	-87.949	
12.00	-61.519	-74.754	
13.00	-62.218	-65.594	
14.00	-62.671	-55.606	
15.00	-63.784	-46.159	
16.00	-65.603	-39.586	
17.00	-65.619	-37.806	
18.00	-68.882	-22.421	
19.00	-73.444	-45.725	
20.00	-67.595	-63.124	
21.00	-67.673	-92.938	
22.00	-68.098	-93.985	
23.00	-65.524	-97.700	
24.00	-65.791	-102.771	
25.00	-67.731	-103.267	
26.00	-70.326	-135.210	
27.00	-71.579	-133.592	
28.00	-69.942	157.114	
29.00	-64.590	142.660	
30.00	-60.615	135.780	
31.00	-60.755	146.697	
32.00	-58.105	143.312	
33.00	-59.605	139.840	
34.00	-59.732	139.853	
35.00	-62.506	144.082	
36.00	-65.800	124.203	
37.00	-68.093	111.543	
38.00	-66.525	87.129	
39.00	-67.781	77.728	
40.00	-68.570	70.781	
41.00	-70.387	83.814	
42.00	-74.449	86.582	
43.00	-77.953	138.745	
44.00	-79.571	-166.194	
45.00	-73.074	-124.984	
46.00	-70.930	-91.975	
47.00	-69.379	-84.820	
48.00	-70.382	-55.784	
49.00	-68.725	-45.702	
50.00	-71.421	-45.998	
51.00	-69.638	-54.607	
52.00	-70.673	-48.861	
53.00	-69.235	-72.835	
54.00	-69.165	-65.712	
55.00	-70.533	-74.406	
56.00	-70.609	-67.754	
57.00	-73.456	-86.642	
58.00	-71.908	-107.722	
59.00	-69.236	-127.344	
60.00	-66.589	-128.154	
61.00	-64.962	-115.666	
62.00	-63.125	-104.109	
63.00	-62.221	-93.782	
64.00	-62.546	-77.784	
65.00	-62.763	-54.796	
66.00	-62.308	-33.242	
67.00	-62.205	-5.347	
68.00	-63.415	18.965	
69.00	-62.354	49.376	
70.00	-62.743	65.400	
71.00	-62.369	89.296	
72.00	-64.088	101.438	
73.00	-65.345	140.428	
74.00	-67.857	162.811	
75.00	-68.449	-169.338	
76.00	-68.304	-134.976	
77.00	-68.597	-124.023	
78.00	-69.823	-96.698	
79.00	-75.246	159.234	
80.00	-63.045	-10.375	
81.00	-67.702	-66.782	
82.00	-69.241	-78.216	
83.00	-69.233	-178.017	
84.00	-64.044	-135.542	
85.00	-69.075	-165.697	
86.00	-62.967	-117.066	
87.00	-69.897	-78.680	
88.00	-61.166	-100.427	
89.00	-58.367	-73.419	
90.00	-58.742	-69.089	
91.00	-58.160	-66.699	
92.00	-59.122	-53.717	
93.00	-60.134	-35.557	
94.00	-59.983	-23.657	
95.00	-60.454	4.434	
96.00	-63.479	14.478	
97.00	-59.855	42.180	
98.00	-61.235	55.328	
99.00	-59.706	72.582	
100.00	-59.083	93.154	
101.00	-58.193	114.698	
102.00	-57.501	133.238	
103.00	-57.125	151.405	
104.00	-56.607	160.709	
105.00	-56.118	176.805	
106.00	-55.008	-166.994	
107.00	-54.407	-151.252	
108.00	-53.361	-139.333	
109.00	-53.142	-119.916	
110.00	-52.057	-106.725	
111.00	-50.994	-91.511	
112.00	-50.299	-76.273	
113.00	-49.746	-61.697	
114.00	-48.975	-47.468	
115.00	-48.669	-37.015	
116.00	-48.955	-23.467	
117.00	-49.081	-12.396	
118.00	-49.738	-2.595	
119.00	-50.573	3.042	
120.00	-51.764	8.510	
121.00	-52.037	4.135	
122.00	-52.194	-2.122	
123.00	-50.763	-5.873	
124.00	-48.381	-8.938	
125.00	-46.374	-6.152	
126.00	-44.929	3.163	
127.00	-43.509	13.115	
128.00	-42.466	23.119	
129.00	-41.771	36.054	
130.00	-41.443	49.647	
131.00	-41.337	63.228	
132.00	-41.571	76.949	
133.00	-42.122	90.628	
134.00	-43.214	104.354	
135.00	-44.867	116.492	
136.00	-47.360	131.260	
137.00	-52.295	142.969	
138.00	-64.686	149.529	
139.00	-56.415	-8.100	
140.00	-49.666	3.457	
141.00	-46.011	14.239	
142.00	-43.928	26.383	
143.00	-42.797	38.047	
144.00	-42.234	49.467	
145.00	-42.037	61.280	
146.00	-42.268	72.425	
147.00	-42.902	83.130	
148.00	-43.995	93.789	
149.00	-45.687	103.031	
150.00	-47.776	113.378	
151.00	-50.956	122.692	
152.00	-55.390	135.382	
153.00	-64.299	167.612	
154.00	-63.546	-66.060	
155.00	-55.735	-43.769	
156.00	-52.118	-33.790	
157.00	-49.736	-25.889	
158.00	-47.851	-20.048	
159.00	-46.598	-14.394	
160.00	-45.693	-9.392	
161.00	-45.109	-5.282	
162.00	-44.991	-2.447	
163.00	-45.201	0.721	
164.00	-46.052	3.070	
165.00	-47.599	6.904	
166.00	-50.096	12.921	
167.00	-53.881	31.426	
168.00	-54.973	75.435	
169.00	-50.060	104.513	
170.00	-45.179	108.449	
171.00	-41.040	105.557	
172.00	-37.380	101.630	
173.00	-34.288	98.332	
174.00	-31.624	95.852	
175.00	-29.411	93.742	
176.00	-27.619	92.271	
177.00	-26.201	91.522	
178.00	-25.226	91.097	
179.00	-24.629	90.529	
180.00	-24.422	90.284	
181.00	-24.649	89.899	
182.00	-25.349	90.057	
183.00	-26.552	90.019	
184.00	-28.413	90.190	
185.00	-31.074	90.579	
186.00	-34.974	92.403	
187.00	-41.417	98.695	
188.00	-54.745	154.973	
189.00	-45.332	-111.425	
190.00	-41.374	-103.706	
191.00	-40.273	-99.023	
192.00	-40.816	-93.959	
193.00	-42.601	-84.863	
194.00	-45.118	-67.495	
195.00	-46.816	-40.429	
196.00	-46.669	-15.539	
197.00	-46.410	-0.380	
198.00	-47.331	7.054	
199.00	-50.362	16.921	
200.00	-56.997	50.254	
201.00	-54.192	132.014	
202.00	-47.820	146.433	
203.00	-45.088	146.298	
204.00	-44.031	140.513	
205.00	-44.438	130.448	
206.00	-46.466	114.650	
207.00	-50.174	79.873	
208.00	-49.244	13.721	
209.00	-44.503	-23.287	
210.00	-40.748	-41.551	
211.00	-38.419	-54.487	
212.00	-37.001	-64.433	
213.00	-36.332	-73.552	
214.00	-36.266	-82.334	
215.00	-36.761	-90.580	
216.00	-37.948	-97.103	
217.00	-39.834	-102.156	
218.00	-42.492	-103.768	
219.00	-46.068	-96.223	
220.00	-48.507	-68.005	
221.00	-46.953	-41.455	
222.00	-44.395	-33.254	
223.00	-42.597	-35.806	
224.00	-41.407	-43.069	
225.00	-40.726	-52.662	
226.00	-40.363	-62.445	
227.00	-40.348	-73.349	
228.00	-40.511	-83.862	
229.00	-40.987	-93.936	
230.00	-41.648	-103.073	
231.00	-42.505	-111.615	
232.00	-43.639	-120.112	
233.00	-45.075	-127.277	
234.00	-46.754	-134.426	
235.00	-48.636	-141.462	
236.00	-50.814	-147.155	
237.00	-53.140	-154.252	
238.00	-55.783	-158.960	
239.00	-58.255	-164.303	
240.00	-60.866	-169.232	
241.00	-62.337	-168.175	
242.00	-63.300	-173.128	
243.00	-65.095	-166.717	
244.00	-63.733	179.486	
245.00	-62.309	164.296	
246.00	-61.902	146.647	
247.00	-61.033	133.686	
248.00	-60.545	117.406	
249.00	-59.890	97.402	
250.00	-59.792	81.560	
251.00	-59.301	58.583	
252.00	-59.023	40.479	
253.00	-58.736	17.924	
254.00	-58.317	0.371	
255.00	-58.222	-18.959	
256.00	-58.338	-35.071	
257.00	-58.681	-54.988	
258.00	-58.764	-74.369	
259.00	-59.501	-95.739	
260.00	-60.170	-117.401	
261.00	-61.479	-137.915	
262.00	-61.767	-163.281	
263.00	-62.516	171.741	
264.00	-63.585	150.882	
265.00	-64.538	125.281	
266.00	-65.999	93.818	
267.00	-65.407	60.685	
268.00	-65.222	30.335	
269.00	-63.945	-1.824	
270.00	-61.914	-16.169	
271.00	-61.114	-34.224	
272.00	-60.575	-50.880	
273.00	-61.012	-61.343	
274.00	-62.119	-77.447	
275.00	-65.048	-86.174	
276.00	-67.029	-100.359	
277.00	-69.229	-140.262	
278.00	-77.095	144.892	
279.00	-67.898	105.209	
280.00	-65.914	75.024	
281.00	-64.246	76.188	
282.00	-62.734	44.567	
283.00	-63.336	37.071	
284.00	-63.291	10.834	
285.00	-64.332	-3.759	
286.00	-63.353	-29.664	
287.00	-62.436	-48.688	
288.00	-63.075	-71.722	
289.00	-63.784	-82.529	
290.00	-65.932	-88.472	
291.00	-67.918	-87.990	
292.00	-70.680	-99.690	
293.00	-74.742	-53.386	
294.00	-70.661	-42.562	
295.00	-67.324	-18.962	
296.00	-64.748	-29.038	
297.00	-63.045	-32.896	
298.00	-62.256	-46.766	
299.00	-62.127	-52.465	
300.00	-61.728	-58.920	
301.00	-62.553	-60.594	
302.00	-63.509	-60.097	
303.00	-65.420	-56.679	
304.00	-65.596	-45.145	
305.00	-65.661	-30.539	
306.00	-64.466	-13.691	
307.00	-63.697	-5.130	
308.00	-64.411	-6.874	
309.00	-63.486	-8.242	
310.00	-63.630	-9.652	
311.00	-65.717	-7.687	
312.00	-66.789	-0.963	
313.00	-67.054	-1.804	
314.00	-66.520	3.004	
315.00	-65.864	-4.331	
316.00	-64.681	-16.405	
317.00	-63.088	-22.705	
318.00	-61.914	-29.820	
319.00	-61.198	-38.101	
320.00	-60.507	-44.137	
321.00	-60.396	-46.309	
322.00	-60.344	-46.704	
323.00	-60.773	-46.795	
324.00	-61.294	-38.131	
325.00	-60.915	-35.471	
326.00	-60.207	-30.074	
327.00	-60.003	-30.358	
328.00	-59.773	-28.984	
329.00	-59.056	-31.426	
330.00	-59.313	-40.969	
331.00	-59.370	-48.308	
332.00	-59.612	-58.737	
333.00	-61.342	-76.409	
334.00	-62.475	-88.751	
335.00	-65.688	-101.697	
336.00	-68.083	-118.252	
337.00	-70.793	-177.843	
338.00	-71.568	148.481	
339.00	-71.984	105.244	
340.00	-68.291	77.218	
341.00	-67.196	47.234	
342.00	-66.050	36.393	
343.00	-64.895	24.372	
344.00	-64.747	7.599	
345.00	-64.279	-7.553	
346.00	-65.562	-20.690	
347.00	-68.569	-37.092	
348.00	-69.403	-57.581	
349.00	-71.368	-109.430	
350.00	-72.562	-143.419	
351.00	-69.559	-169.961	
352.00	-67.804	174.915	
353.00	-65.296	169.165	
354.00	-66.282	164.685	
355.00	-65.036	155.164	
356.00	-65.089	141.941	
357.00	-66.281	141.434	
358.00	-64.546	121.236	
359.00	-64.061	109.737	
Frequency	2350.00	MHz	
Channel	test		
Scan Axis name	Azimuth  [deg]		
Scan Axis	Amplitude	Phase	
			
0.00	-61.334	-141.595	
1.00	-60.340	-146.847	
2.00	-60.515	-151.506	
3.00	-61.234	-154.051	
4.00	-62.554	-155.138	
5.00	-64.448	-154.537	
6.00	-66.274	-144.744	
7.00	-67.887	-123.771	
8.00	-68.177	-105.383	
9.00	-68.269	-87.531	
10.00	-70.279	-72.479	
11.00	-74.631	-48.174	
12.00	-80.442	14.079	
13.00	-73.220	68.258	
14.00	-68.278	87.315	
15.00	-66.003	93.492	
16.00	-64.422	95.948	
17.00	-63.153	95.108	
18.00	-63.219	91.356	
19.00	-63.081	87.087	
20.00	-64.505	75.439	
21.00	-65.224	66.845	
22.00	-64.870	38.641	
23.00	-64.454	43.363	
24.00	-63.756	21.665	
25.00	-63.762	8.596	
26.00	-64.502	6.234	
27.00	-68.317	-10.640	
28.00	-67.066	-41.618	
29.00	-67.122	-91.446	
30.00	-63.664	-81.460	
31.00	-63.513	-93.692	
32.00	-63.764	-88.030	
33.00	-62.541	-82.267	
34.00	-63.776	-76.976	
35.00	-65.230	-66.816	
36.00	-66.065	-45.352	
37.00	-67.882	-25.776	
38.00	-69.281	-11.399	
39.00	-71.287	0.044	
40.00	-72.509	13.391	
41.00	-75.076	10.901	
42.00	-73.838	12.274	
43.00	-74.029	19.278	
44.00	-72.915	29.189	
45.00	-69.987	41.211	
46.00	-68.518	60.960	
47.00	-67.235	83.699	
48.00	-65.924	113.348	
49.00	-65.492	121.861	
50.00	-65.126	152.097	
51.00	-64.406	167.483	
52.00	-65.327	-176.507	
53.00	-65.940	-161.301	
54.00	-69.338	-139.542	
55.00	-73.066	-118.096	
56.00	-74.691	-60.937	
57.00	-72.276	-4.943	
58.00	-69.724	11.720	
59.00	-66.176	19.206	
60.00	-64.328	19.181	
61.00	-62.705	21.497	
62.00	-61.661	16.119	
63.00	-60.907	13.635	
64.00	-60.752	13.256	
65.00	-60.810	14.862	
66.00	-61.597	10.960	
67.00	-62.409	12.742	
68.00	-62.399	13.027	
69.00	-63.411	11.916	
70.00	-64.696	14.980	
71.00	-66.039	23.808	
72.00	-66.313	27.089	
73.00	-70.011	42.072	
74.00	-71.459	57.010	
75.00	-71.885	88.796	
76.00	-76.916	-9.228	
77.00	-76.600	-63.603	
78.00	-67.880	-119.393	
79.00	-67.571	-141.320	
80.00	-62.032	-128.525	
81.00	-64.627	-113.981	
82.00	-58.234	-23.524	
83.00	-68.830	-41.009	
84.00	-63.080	-65.282	
85.00	-63.628	4.022	
86.00	-68.101	-15.227	
87.00	-63.720	47.617	
88.00	-62.884	26.821	
89.00	-63.978	65.122	
90.00	-62.518	69.768	
91.00	-62.422	89.680	
92.00	-62.913	100.606	
93.00	-62.208	122.846	
94.00	-63.766	146.037	
95.00	-63.257	157.349	
96.00	-61.094	179.303	
97.00	-59.683	-165.343	
98.00	-58.833	-151.510	
99.00	-58.367	-139.033	
100.00	-57.879	-125.339	
101.00	-58.012	-102.811	
102.00	-57.117	-90.711	
103.00	-58.240	-81.167	
104.00	-57.617	-68.855	
105.00	-58.167	-57.029	
106.00	-57.988	-46.512	
107.00	-57.958	-31.805	
108.00	-57.856	-20.580	
109.00	-57.356	-6.270	
110.00	-56.597	8.917	
111.00	-55.846	26.173	
112.00	-54.489	41.220	
113.00	-53.338	59.003	
114.00	-52.087	75.676	
115.00	-51.232	91.200	
116.00	-50.112	107.279	
117.00	-49.113	121.448	
118.00	-49.179	136.921	
119.00	-48.791	150.716	
120.00	-48.376	161.006	
121.00	-48.739	173.576	
122.00	-49.782	-167.559	
123.00	-51.008	-159.050	
124.00	-52.675	-158.647	
125.00	-54.692	-165.515	
126.00	-54.351	174.896	
127.00	-51.898	163.439	
128.00	-49.022	163.440	
129.00	-46.561	169.530	
130.00	-44.809	178.218	
131.00	-43.450	-170.713	
132.00	-42.493	-158.772	
133.00	-42.005	-147.353	
134.00	-41.883	-135.542	
135.00	-42.155	-124.748	
136.00	-42.871	-113.806	
137.00	-44.103	-104.084	
138.00	-46.011	-96.518	
139.00	-49.058	-95.761	
140.00	-52.783	-109.801	
141.00	-53.864	-149.719	
142.00	-50.087	-171.345	
143.00	-47.143	-175.609	
144.00	-45.168	-172.729	
145.00	-44.115	-166.989	
146.00	-43.768	-159.258	
147.00	-43.927	-150.348	
148.00	-44.611	-140.265	
149.00	-45.705	-127.751	
150.00	-47.007	-113.072	
151.00	-48.287	-96.083	
152.00	-49.586	-77.749	
153.00	-50.567	-60.016	
154.00	-51.598	-43.511	
155.00	-53.350	-26.332	
156.00	-55.610	-8.228	
157.00	-59.478	24.188	
158.00	-60.556	87.246	
159.00	-55.778	129.015	
160.00	-52.115	146.756	
161.00	-49.706	155.933	
162.00	-48.279	161.991	
163.00	-47.848	165.457	
164.00	-48.353	167.646	
165.00	-49.940	166.526	
166.00	-53.038	160.418	
167.00	-59.013	138.448	
168.00	-63.130	52.270	
169.00	-56.685	-3.827	
170.00	-52.089	-34.351	
171.00	-47.557	-61.508	
172.00	-42.863	-81.036	
173.00	-38.682	-92.386	
174.00	-35.168	-99.349	
175.00	-32.356	-103.939	
176.00	-30.153	-106.969	
177.00	-28.469	-109.156	
178.00	-27.305	-110.623	
179.00	-26.571	-112.233	
180.00	-26.293	-113.415	
181.00	-26.482	-114.782	
182.00	-27.189	-115.354	
183.00	-28.433	-116.005	
184.00	-30.389	-116.402	
185.00	-33.197	-116.281	
186.00	-37.337	-114.003	
187.00	-44.282	-104.785	
188.00	-54.598	-27.029	
189.00	-46.362	35.121	
190.00	-43.351	43.143	
191.00	-42.959	47.956	
192.00	-44.359	54.095	
193.00	-47.225	67.648	
194.00	-50.289	96.790	
195.00	-50.866	133.690	
196.00	-49.834	153.710	
197.00	-50.383	162.567	
198.00	-53.769	171.313	
199.00	-63.785	-132.445	
200.00	-54.154	-49.630	
201.00	-48.357	-43.870	
202.00	-45.737	-45.812	
203.00	-44.933	-50.780	
204.00	-45.890	-58.108	
205.00	-49.099	-70.006	
206.00	-57.031	-112.173	
207.00	-51.964	141.761	
208.00	-45.164	121.086	
209.00	-41.554	109.859	
210.00	-39.541	100.097	
211.00	-38.559	91.815	
212.00	-38.368	83.702	
213.00	-38.898	76.257	
214.00	-40.043	69.362	
215.00	-42.067	63.791	
216.00	-45.016	62.615	
217.00	-48.960	73.028	
218.00	-51.123	103.047	
219.00	-49.044	127.152	
220.00	-46.542	132.135	
221.00	-44.702	127.155	
222.00	-43.724	118.458	
223.00	-43.193	108.294	
224.00	-43.058	97.927	
225.00	-43.315	87.510	
226.00	-43.896	78.460	
227.00	-44.761	69.677	
228.00	-45.877	62.822	
229.00	-47.106	57.339	
230.00	-48.382	53.435	
231.00	-49.512	51.299	
232.00	-50.631	49.984	
233.00	-51.453	47.030	
234.00	-52.287	42.412	
235.00	-53.196	35.768	
236.00	-54.253	26.729	
237.00	-55.370	16.229	
238.00	-56.603	4.304	
239.00	-57.796	-8.853	
240.00	-58.812	-22.392	
241.00	-59.417	-36.441	
242.00	-59.627	-50.375	
243.00	-59.350	-62.063	
244.00	-58.738	-73.620	
245.00	-57.958	-85.520	
246.00	-57.417	-96.216	
247.00	-56.832	-108.780	
248.00	-56.450	-121.742	
249.00	-56.374	-137.428	
250.00	-56.445	-154.248	
251.00	-56.830	-174.777	
252.00	-56.665	165.257	
253.00	-56.759	144.419	
254.00	-56.552	122.698	
255.00	-56.314	103.466	
256.00	-56.437	86.036	
257.00	-56.710	67.856	
258.00	-57.151	49.997	
259.00	-57.935	30.776	
260.00	-58.823	10.406	
261.00	-59.505	-11.009	
262.00	-60.030	-33.436	
263.00	-60.739	-54.024	
264.00	-61.087	-73.036	
265.00	-61.907	-91.306	
266.00	-62.755	-108.472	
267.00	-63.634	-127.918	
268.00	-64.582	-144.758	
269.00	-66.189	-161.743	
270.00	-68.779	-178.301	
271.00	-71.176	167.454	
272.00	-78.503	157.520	
273.00	-96.707	-112.817	
274.00	-76.420	-52.489	
275.00	-71.394	-60.425	
276.00	-69.191	-75.582	
277.00	-67.750	-85.758	
278.00	-66.992	-99.903	
279.00	-67.144	-114.703	
280.00	-67.156	-129.822	
281.00	-68.545	-148.029	
282.00	-70.209	-164.410	
283.00	-72.802	158.977	
284.00	-75.073	110.628	
285.00	-72.189	59.199	
286.00	-68.214	31.867	
287.00	-65.349	7.379	
288.00	-64.723	-2.510	
289.00	-64.755	-16.952	
290.00	-66.186	-24.867	
291.00	-69.182	-44.458	
292.00	-72.994	-76.592	
293.00	-77.123	-146.919	
294.00	-72.591	167.114	
295.00	-68.924	139.957	
296.00	-67.136	122.312	
297.00	-65.974	103.788	
298.00	-65.751	90.576	
299.00	-66.433	70.727	
300.00	-67.172	55.402	
301.00	-68.735	33.090	
302.00	-71.190	9.352	
303.00	-72.547	-21.621	
304.00	-73.686	-59.996	
305.00	-73.205	-95.294	
306.00	-73.149	-121.931	
307.00	-71.846	-160.382	
308.00	-70.514	173.354	
309.00	-68.236	160.489	
310.00	-66.836	149.176	
311.00	-65.577	147.281	
312.00	-65.516	146.650	
313.00	-65.606	153.286	
314.00	-66.318	158.966	
315.00	-66.771	170.080	
316.00	-67.815	179.752	
317.00	-69.089	-171.224	
318.00	-71.562	-157.679	
319.00	-74.287	-138.754	
320.00	-77.827	-88.590	
321.00	-75.539	-36.496	
322.00	-71.259	-14.889	
323.00	-69.212	-0.769	
324.00	-67.721	14.886	
325.00	-67.268	22.409	
326.00	-66.404	36.354	
327.00	-65.389	48.505	
328.00	-64.221	56.251	
329.00	-63.550	57.179	
330.00	-62.952	52.902	
331.00	-62.867	45.467	
332.00	-62.762	36.556	
333.00	-62.764	23.094	
334.00	-62.747	8.057	
335.00	-62.853	-10.498	
336.00	-62.600	-22.906	
337.00	-62.704	-39.501	
338.00	-63.220	-57.848	
339.00	-63.376	-79.668	
340.00	-63.933	-94.393	
341.00	-64.102	-115.350	
342.00	-63.742	-135.791	
343.00	-64.115	-152.959	
344.00	-63.814	-166.613	
345.00	-63.578	-177.829	
346.00	-63.794	174.484	
347.00	-63.999	166.570	
348.00	-64.066	159.504	
349.00	-64.869	154.771	
350.00	-65.858	147.676	
351.00	-66.832	142.049	
352.00	-69.288	142.163	
353.00	-72.514	161.750	
354.00	-74.758	-162.314	
355.00	-71.241	-133.837	
356.00	-68.599	-116.446	
357.00	-65.663	-123.247	
358.00	-63.596	-126.960	
359.00	-62.243	-134.273	
Frequency	2400.00	MHz	
Channel	test		
Scan Axis name	Azimuth  [deg]		
Scan Axis	Amplitude	Phase	
			
0.00	-76.846	89.475	
1.00	-87.849	5.875	
2.00	-75.940	-6.719	
3.00	-71.649	-41.431	
4.00	-71.431	-52.070	
5.00	-70.437	-61.971	
6.00	-71.553	-72.391	
7.00	-71.538	-73.675	
8.00	-78.745	-73.398	
9.00	-84.082	-71.243	
10.00	-83.410	84.079	
11.00	-78.025	89.765	
12.00	-77.083	128.303	
13.00	-84.082	-160.773	
14.00	-77.098	-137.612	
15.00	-70.949	-120.344	
16.00	-66.242	-114.829	
17.00	-64.756	-115.510	
18.00	-63.704	-113.227	
19.00	-62.963	-112.919	
20.00	-63.278	-109.924	
21.00	-65.013	-104.580	
22.00	-65.856	-92.883	
23.00	-69.623	-95.650	
24.00	-70.447	-73.838	
25.00	-74.447	-43.885	
26.00	-70.919	-12.531	
27.00	-71.137	2.047	
28.00	-69.233	41.816	
29.00	-67.834	44.740	
30.00	-66.420	44.636	
31.00	-66.165	52.329	
32.00	-65.422	76.523	
33.00	-65.057	84.815	
34.00	-66.702	99.211	
35.00	-65.125	104.101	
36.00	-66.475	108.292	
37.00	-69.187	105.190	
38.00	-70.126	105.737	
39.00	-72.010	114.716	
40.00	-72.141	115.680	
41.00	-70.515	126.016	
42.00	-68.783	131.795	
43.00	-66.079	134.091	
44.00	-63.683	138.484	
45.00	-62.883	153.350	
46.00	-62.167	160.365	
47.00	-62.399	166.321	
48.00	-63.518	175.119	
49.00	-65.747	-178.428	
50.00	-70.713	174.558	
51.00	-78.644	134.119	
52.00	-73.285	64.614	
53.00	-69.878	61.745	
54.00	-69.293	65.451	
55.00	-70.141	73.853	
56.00	-72.190	83.979	
57.00	-87.541	99.631	
58.00	-77.794	-81.572	
59.00	-71.928	-78.279	
60.00	-67.548	-69.016	
61.00	-66.015	-68.419	
62.00	-65.227	-61.943	
63.00	-65.751	-65.584	
64.00	-65.841	-57.505	
65.00	-66.740	-72.517	
66.00	-69.004	-76.237	
67.00	-69.412	-97.719	
68.00	-69.110	-108.786	
69.00	-67.116	-117.362	
70.00	-65.605	-109.257	
71.00	-64.699	-102.344	
72.00	-63.743	-83.057	
73.00	-64.057	-66.903	
74.00	-63.332	-49.104	
75.00	-62.393	-32.118	
76.00	-60.663	-14.439	
77.00	-60.774	2.955	
78.00	-61.173	29.589	
79.00	-60.125	35.907	
80.00	-63.175	92.891	
81.00	-66.418	105.586	
82.00	-63.242	117.811	
83.00	-61.929	166.879	
84.00	-64.396	53.603	
85.00	-57.254	148.342	
86.00	-62.974	-143.839	
87.00	-66.381	-84.087	
88.00	-63.774	-82.314	
89.00	-59.919	-74.249	
90.00	-62.023	-55.840	
91.00	-62.484	-45.354	
92.00	-63.981	-36.865	
93.00	-65.049	-14.738	
94.00	-68.596	11.943	
95.00	-66.689	38.783	
96.00	-73.865	111.734	
97.00	-83.433	135.995	
98.00	-72.744	154.011	
99.00	-73.979	174.000	
100.00	-72.008	-168.783	
101.00	-75.018	-137.721	
102.00	-76.333	-125.384	
103.00	-86.487	-88.892	
104.00	-83.052	-65.167	
105.00	-77.475	23.033	
106.00	-73.759	64.273	
107.00	-70.031	72.468	
108.00	-67.186	84.893	
109.00	-63.990	102.883	
110.00	-60.976	115.030	
111.00	-59.978	132.658	
112.00	-58.072	143.645	
113.00	-57.487	160.320	
114.00	-56.777	178.152	
115.00	-56.873	-164.337	
116.00	-56.665	-138.077	
117.00	-57.591	-108.481	
118.00	-55.290	-73.576	
119.00	-54.019	-51.110	
120.00	-52.365	-23.863	
121.00	-50.500	-5.885	
122.00	-49.488	12.295	
123.00	-48.883	28.103	
124.00	-49.310	46.232	
125.00	-50.297	64.189	
126.00	-52.051	83.008	
127.00	-54.532	110.684	
128.00	-59.032	151.028	
129.00	-60.562	-135.850	
130.00	-55.116	-83.470	
131.00	-51.160	-51.848	
132.00	-47.971	-29.840	
133.00	-46.067	-12.217	
134.00	-44.661	3.492	
135.00	-43.837	19.240	
136.00	-43.653	34.889	
137.00	-43.994	49.596	
138.00	-44.954	65.523	
139.00	-46.695	81.231	
140.00	-49.262	100.208	
141.00	-53.327	125.017	
142.00	-58.827	-179.884	
143.00	-56.180	-105.026	
144.00	-51.767	-73.448	
145.00	-49.124	-54.592	
146.00	-47.709	-39.831	
147.00	-46.996	-27.720	
148.00	-46.987	-16.330	
149.00	-47.543	-5.066	
150.00	-48.510	7.397	
151.00	-49.586	20.892	
152.00	-50.782	34.917	
153.00	-51.813	51.652	
154.00	-52.651	67.777	
155.00	-52.771	83.436	
156.00	-53.491	95.928	
157.00	-54.380	107.246	
158.00	-56.371	117.551	
159.00	-60.277	137.197	
160.00	-65.190	-161.270	
161.00	-59.544	-101.546	
162.00	-54.666	-87.282	
163.00	-51.924	-81.772	
164.00	-50.277	-80.791	
165.00	-49.717	-84.757	
166.00	-49.781	-93.068	
167.00	-50.073	-107.760	
168.00	-50.022	-124.318	
169.00	-49.722	-142.360	
170.00	-49.712	-155.981	
171.00	-51.023	-168.800	
172.00	-55.457	166.567	
173.00	-56.959	71.081	
174.00	-47.204	34.883	
175.00	-41.485	25.455	
176.00	-37.698	21.107	
177.00	-34.982	18.613	
178.00	-33.133	17.076	
179.00	-31.868	15.427	
180.00	-31.173	14.267	
181.00	-31.025	12.480	
182.00	-31.446	11.332	
183.00	-32.422	10.206	
184.00	-34.088	8.944	
185.00	-36.544	7.202	
186.00	-40.032	6.811	
187.00	-45.584	6.943	
188.00	-56.505	12.359	
189.00	-57.853	173.510	
190.00	-51.763	-179.921	
191.00	-50.718	-173.880	
192.00	-52.119	-162.364	
193.00	-54.525	-134.612	
194.00	-54.286	-97.561	
195.00	-52.133	-75.320	
196.00	-51.351	-66.253	
197.00	-52.220	-59.759	
198.00	-55.883	-49.489	
199.00	-59.899	9.441	
200.00	-53.981	56.497	
201.00	-49.446	63.881	
202.00	-47.037	60.745	
203.00	-46.087	53.369	
204.00	-46.426	41.938	
205.00	-47.775	25.388	
206.00	-50.047	-2.237	
207.00	-50.892	-47.541	
208.00	-48.926	-86.448	
209.00	-46.552	-112.588	
210.00	-44.935	-129.706	
211.00	-44.319	-143.527	
212.00	-44.775	-155.574	
213.00	-46.041	-166.109	
214.00	-48.805	-176.934	
215.00	-54.053	172.529	
216.00	-67.494	-161.020	
217.00	-57.510	-50.396	
218.00	-51.643	-58.533	
219.00	-48.621	-71.926	
220.00	-46.870	-86.135	
221.00	-45.963	-100.535	
222.00	-45.498	-115.253	
223.00	-45.556	-127.842	
224.00	-45.912	-140.741	
225.00	-46.723	-151.331	
226.00	-48.005	-160.699	
227.00	-49.840	-167.749	
228.00	-51.865	-173.286	
229.00	-54.200	-174.499	
230.00	-56.366	-173.911	
231.00	-57.522	-170.613	
232.00	-58.431	-172.036	
233.00	-58.743	-177.774	
234.00	-59.149	174.038	
235.00	-59.414	163.661	
236.00	-60.921	155.482	
237.00	-61.157	149.060	
238.00	-62.070	145.768	
239.00	-62.307	144.887	
240.00	-61.657	142.403	
241.00	-60.862	139.348	
242.00	-60.129	131.434	
243.00	-58.924	118.272	
244.00	-57.968	104.612	
245.00	-57.355	88.111	
246.00	-56.834	71.438	
247.00	-56.480	54.688	
248.00	-56.445	34.759	
249.00	-56.547	12.985	
250.00	-56.507	-9.570	
251.00	-56.223	-29.511	
252.00	-56.486	-50.651	
253.00	-56.543	-71.170	
254.00	-56.825	-90.621	
255.00	-57.145	-111.073	
256.00	-57.864	-130.641	
257.00	-58.446	-153.270	
258.00	-58.837	-174.951	
259.00	-58.994	166.485	
260.00	-58.998	146.476	
261.00	-59.023	132.126	
262.00	-59.325	116.750	
263.00	-60.561	103.325	
264.00	-61.423	92.286	
265.00	-63.021	79.417	
266.00	-64.459	67.199	
267.00	-66.048	51.409	
268.00	-69.003	39.512	
269.00	-71.358	33.863	
270.00	-74.239	25.705	
271.00	-79.127	24.451	
272.00	-86.021	117.403	
273.00	-80.197	130.439	
274.00	-76.020	130.617	
275.00	-75.920	128.654	
276.00	-77.388	117.880	
277.00	-82.420	129.558	
278.00	-90.965	119.017	
279.00	-86.700	-117.089	
280.00	-76.861	-74.028	
281.00	-73.429	-92.505	
282.00	-71.754	-117.412	
283.00	-69.265	-126.969	
284.00	-68.662	-154.037	
285.00	-67.770	-173.730	
286.00	-66.181	162.386	
287.00	-64.879	136.203	
288.00	-63.916	115.178	
289.00	-62.985	96.191	
290.00	-62.473	78.500	
291.00	-62.251	57.875	
292.00	-61.936	45.459	
293.00	-62.449	29.409	
294.00	-63.104	15.935	
295.00	-64.286	1.211	
296.00	-65.194	-14.265	
297.00	-68.300	-31.201	
298.00	-71.874	-40.307	
299.00	-76.839	-48.808	
300.00	-80.400	-5.156	
301.00	-76.012	38.713	
302.00	-71.644	28.628	
303.00	-68.751	21.560	
304.00	-66.756	9.986	
305.00	-65.091	-0.313	
306.00	-64.724	-15.937	
307.00	-64.449	-21.918	
308.00	-64.627	-32.038	
309.00	-65.042	-41.267	
310.00	-65.803	-49.633	
311.00	-67.831	-61.725	
312.00	-69.676	-72.634	
313.00	-75.743	-84.359	
314.00	-91.310	-71.760	
315.00	-77.971	63.689	
316.00	-74.183	66.471	
317.00	-68.240	48.138	
318.00	-66.198	35.752	
319.00	-65.180	22.755	
320.00	-65.093	7.624	
321.00	-65.493	-11.074	
322.00	-65.655	-27.807	
323.00	-67.072	-48.243	
324.00	-67.973	-65.763	
325.00	-69.626	-90.217	
326.00	-70.123	-109.140	
327.00	-71.320	-133.560	
328.00	-72.947	-136.423	
329.00	-76.310	-148.006	
330.00	-76.262	-168.582	
331.00	-77.904	-166.980	
332.00	-77.133	178.033	
333.00	-74.520	161.394	
334.00	-71.662	146.532	
335.00	-67.988	129.666	
336.00	-65.499	118.037	
337.00	-63.966	108.848	
338.00	-63.675	92.316	
339.00	-63.398	83.715	
340.00	-64.316	66.713	
341.00	-65.356	47.600	
342.00	-65.812	26.371	
343.00	-67.042	1.529	
344.00	-66.559	-24.807	
345.00	-66.268	-50.647	
346.00	-65.822	-68.386	
347.00	-65.450	-90.128	
348.00	-66.069	-106.985	
349.00	-64.854	-128.508	
350.00	-64.634	-146.982	
351.00	-64.639	-164.878	
352.00	-63.861	-177.928	
353.00	-63.442	172.282	
354.00	-64.080	164.014	
355.00	-64.240	162.005	
356.00	-66.434	148.441	
357.00	-67.319	136.329	
358.00	-68.939	133.990	
359.00	-71.650	128.894	
Frequency	2450.00	MHz	
Channel	test		
Scan Axis name	Azimuth  [deg]		
Scan Axis	Amplitude	Phase	
			
0.00	-67.816	-74.615	
1.00	-67.624	-68.286	
2.00	-68.463	-54.098	
3.00	-68.910	-40.766	
4.00	-66.385	-27.103	
5.00	-64.813	-28.422	
6.00	-64.053	-25.468	
7.00	-63.609	-42.378	
8.00	-64.037	-52.573	
9.00	-63.438	-71.143	
10.00	-63.345	-87.424	
11.00	-63.311	-99.889	
12.00	-62.864	-107.978	
13.00	-63.404	-113.157	
14.00	-64.326	-123.472	
15.00	-66.430	-134.385	
16.00	-69.651	-149.969	
17.00	-69.037	178.705	
18.00	-68.110	136.634	
19.00	-66.014	126.740	
20.00	-63.796	124.214	
21.00	-62.939	124.116	
22.00	-62.699	124.229	
23.00	-63.110	127.615	
24.00	-64.112	129.116	
25.00	-64.656	136.059	
26.00	-71.139	121.719	
27.00	-74.532	60.480	
28.00	-70.871	33.085	
29.00	-65.646	14.887	
30.00	-64.659	4.940	
31.00	-64.412	-6.959	
32.00	-64.673	-7.992	
33.00	-64.941	-16.450	
34.00	-66.830	-16.074	
35.00	-66.659	-25.298	
36.00	-66.455	-42.847	
37.00	-66.261	-50.315	
38.00	-65.027	-62.926	
39.00	-65.870	-63.851	
40.00	-66.226	-69.354	
41.00	-66.745	-77.682	
42.00	-66.814	-91.119	
43.00	-66.610	-104.867	
44.00	-66.156	-99.644	
45.00	-66.556	-95.143	
46.00	-70.383	-99.024	
47.00	-73.782	-96.339	
48.00	-84.591	-173.070	
49.00	-76.828	149.297	
50.00	-69.066	153.528	
51.00	-68.039	170.927	
52.00	-66.495	-176.532	
53.00	-67.221	-144.788	
54.00	-67.449	-119.849	
55.00	-66.863	-87.550	
56.00	-66.314	-61.107	
57.00	-65.042	-42.570	
58.00	-64.960	-31.505	
59.00	-64.785	-24.951	
60.00	-65.230	-18.717	
61.00	-65.302	-16.788	
62.00	-66.018	-10.877	
63.00	-68.873	-3.398	
64.00	-71.437	14.776	
65.00	-74.882	41.360	
66.00	-72.869	84.526	
67.00	-71.942	118.172	
68.00	-70.873	124.203	
69.00	-72.997	127.965	
70.00	-77.235	120.281	
71.00	-76.274	52.671	
72.00	-69.445	43.804	
73.00	-67.840	48.194	
74.00	-64.927	61.276	
75.00	-64.036	69.776	
76.00	-63.716	99.753	
77.00	-62.463	137.860	
78.00	-64.302	164.513	
79.00	-63.717	172.132	
80.00	-64.268	-169.630	
81.00	-58.566	-144.886	
82.00	-63.310	-143.017	
83.00	-63.330	-78.621	
84.00	-66.186	-49.946	
85.00	-67.583	-4.530	
86.00	-62.310	-39.223	
87.00	-60.775	43.899	
88.00	-61.062	51.591	
89.00	-61.711	118.751	
90.00	-59.567	110.741	
91.00	-58.541	127.406	
92.00	-57.651	144.179	
93.00	-58.089	161.400	
94.00	-58.902	169.670	
95.00	-60.353	-173.323	
96.00	-61.052	-146.663	
97.00	-63.854	-113.513	
98.00	-65.094	-82.864	
99.00	-65.341	-63.619	
100.00	-64.976	-37.024	
101.00	-67.582	2.515	
102.00	-69.038	37.986	
103.00	-69.278	82.264	
104.00	-64.473	120.602	
105.00	-62.640	140.115	
106.00	-60.959	150.768	
107.00	-60.481	168.134	
108.00	-59.569	173.532	
109.00	-60.404	-175.225	
110.00	-61.458	-157.666	
111.00	-62.786	-139.236	
112.00	-65.085	-112.768	
113.00	-64.885	-62.954	
114.00	-61.686	-24.844	
115.00	-58.569	-1.666	
116.00	-56.643	22.706	
117.00	-54.409	35.850	
118.00	-52.660	53.068	
119.00	-52.569	69.323	
120.00	-51.943	87.741	
121.00	-51.604	105.371	
122.00	-52.298	126.170	
123.00	-52.825	145.146	
124.00	-54.661	172.744	
125.00	-56.992	-157.654	
126.00	-60.175	-111.181	
127.00	-59.155	-42.208	
128.00	-54.684	2.178	
129.00	-50.751	30.046	
130.00	-48.012	52.615	
131.00	-46.049	73.596	
132.00	-44.672	93.886	
133.00	-43.635	113.442	
134.00	-42.866	131.720	
135.00	-42.508	150.668	
136.00	-42.537	168.761	
137.00	-42.959	-172.616	
138.00	-43.913	-153.655	
139.00	-45.371	-133.185	
140.00	-47.656	-108.385	
141.00	-50.573	-76.257	
142.00	-52.559	-24.286	
143.00	-50.681	24.619	
144.00	-47.792	55.416	
145.00	-45.851	76.573	
146.00	-44.681	93.046	
147.00	-44.132	107.421	
148.00	-44.149	119.580	
149.00	-44.610	130.967	
150.00	-45.427	142.136	
151.00	-46.416	153.464	
152.00	-47.507	164.801	
153.00	-48.738	175.520	
154.00	-49.765	-173.693	
155.00	-51.023	-165.248	
156.00	-52.416	-154.852	
157.00	-54.677	-148.739	
158.00	-58.832	-147.203	
159.00	-67.924	171.847	
160.00	-60.221	86.874	
161.00	-53.325	80.990	
162.00	-49.927	82.538	
163.00	-47.868	85.145	
164.00	-46.968	88.065	
165.00	-47.022	89.080	
166.00	-47.955	87.309	
167.00	-49.678	81.052	
168.00	-51.544	68.763	
169.00	-52.480	52.434	
170.00	-52.169	49.093	
171.00	-51.076	68.179	
172.00	-47.354	95.926	
173.00	-42.523	115.008	
174.00	-38.128	125.381	
175.00	-34.577	131.009	
176.00	-31.807	134.708	
177.00	-29.658	137.442	
178.00	-28.150	139.543	
179.00	-27.135	140.750	
180.00	-26.635	141.713	
181.00	-26.640	142.236	
182.00	-27.185	143.007	
183.00	-28.282	143.630	
184.00	-30.069	144.522	
185.00	-32.646	146.023	
186.00	-36.338	150.116	
187.00	-41.922	162.154	
188.00	-48.797	-154.281	
189.00	-47.199	-92.131	
190.00	-44.748	-75.176	
191.00	-44.724	-67.163	
192.00	-46.821	-60.067	
193.00	-50.996	-41.895	
194.00	-54.389	12.397	
195.00	-50.612	49.304	
196.00	-48.187	57.797	
197.00	-48.000	57.873	
198.00	-49.924	56.072	
199.00	-55.567	50.540	
200.00	-75.928	175.363	
201.00	-54.837	-151.157	
202.00	-50.177	-160.557	
203.00	-48.614	-173.938	
204.00	-48.660	165.984	
205.00	-49.349	136.564	
206.00	-49.118	96.653	
207.00	-46.930	58.079	
208.00	-44.360	32.084	
209.00	-42.313	12.413	
210.00	-41.152	-3.978	
211.00	-40.661	-18.423	
212.00	-40.899	-32.492	
213.00	-41.890	-45.533	
214.00	-43.794	-59.847	
215.00	-46.967	-76.250	
216.00	-52.774	-95.018	
217.00	-65.968	173.127	
218.00	-53.344	85.408	
219.00	-48.402	65.819	
220.00	-45.791	49.986	
221.00	-44.393	35.629	
222.00	-43.754	21.255	
223.00	-43.708	7.478	
224.00	-44.013	-5.973	
225.00	-44.666	-19.219	
226.00	-45.628	-30.859	
227.00	-46.844	-42.214	
228.00	-48.342	-53.047	
229.00	-49.992	-62.719	
230.00	-51.633	-71.523	
231.00	-53.295	-78.587	
232.00	-54.824	-85.935	
233.00	-56.564	-92.401	
234.00	-58.589	-98.819	
235.00	-60.839	-104.606	
236.00	-63.535	-106.308	
237.00	-67.162	-96.318	
238.00	-67.657	-67.879	
239.00	-64.631	-57.379	
240.00	-61.184	-61.246	
241.00	-58.641	-70.175	
242.00	-56.763	-84.879	
243.00	-55.558	-99.281	
244.00	-54.564	-114.299	
245.00	-53.976	-130.290	
246.00	-53.768	-145.531	
247.00	-53.743	-163.131	
248.00	-54.123	179.038	
249.00	-54.487	160.318	
250.00	-55.415	140.601	
251.00	-56.322	118.605	
252.00	-57.235	96.892	
253.00	-58.122	71.851	
254.00	-58.282	47.555	
255.00	-58.680	25.998	
256.00	-58.896	4.287	
257.00	-59.036	-15.536	
258.00	-59.349	-32.626	
259.00	-59.883	-50.701	
260.00	-60.382	-68.387	
261.00	-61.493	-85.424	
262.00	-62.016	-106.693	
263.00	-63.217	-129.092	
264.00	-63.999	-145.619	
265.00	-65.512	-165.040	
266.00	-66.937	172.299	
267.00	-67.493	151.008	
268.00	-68.826	125.812	
269.00	-68.436	89.648	
270.00	-68.866	73.598	
271.00	-69.962	30.363	
272.00	-69.282	4.394	
273.00	-67.392	-13.243	
274.00	-68.705	-45.663	
275.00	-70.537	-74.670	
276.00	-67.924	-95.630	
277.00	-70.494	-120.136	
278.00	-71.682	-124.983	
279.00	-70.397	-152.089	
280.00	-71.100	157.213	
281.00	-73.064	125.973	
282.00	-72.840	107.753	
283.00	-71.521	56.780	
284.00	-72.532	52.166	
285.00	-73.168	1.750	
286.00	-71.127	-33.250	
287.00	-72.350	-77.473	
288.00	-70.421	-105.230	
289.00	-69.522	-112.469	
290.00	-70.628	-143.218	
291.00	-70.144	176.350	
292.00	-69.463	152.643	
293.00	-68.578	118.712	
294.00	-67.375	108.331	
295.00	-67.724	87.490	
296.00	-69.776	78.310	
297.00	-74.950	52.721	
298.00	-80.918	37.854	
299.00	-81.705	-149.216	
300.00	-75.897	-144.474	
301.00	-72.553	-153.134	
302.00	-73.134	174.974	
303.00	-68.144	-174.602	
304.00	-69.610	145.096	
305.00	-69.547	138.874	
306.00	-69.369	110.002	
307.00	-69.963	96.791	
308.00	-68.239	64.669	
309.00	-66.678	53.002	
310.00	-65.613	29.125	
311.00	-63.960	15.421	
312.00	-63.765	-3.374	
313.00	-64.129	-11.588	
314.00	-63.655	-35.968	
315.00	-64.844	-57.251	
316.00	-66.917	-84.357	
317.00	-67.041	-115.215	
318.00	-66.717	-146.799	
319.00	-66.006	-177.190	
320.00	-66.473	168.048	
321.00	-66.384	143.354	
322.00	-66.880	118.221	
323.00	-66.435	107.335	
324.00	-67.031	91.174	
325.00	-66.212	81.591	
326.00	-67.589	82.059	
327.00	-68.206	84.064	
328.00	-69.451	85.545	
329.00	-69.870	106.914	
330.00	-70.237	124.214	
331.00	-70.520	117.921	
332.00	-73.606	119.174	
333.00	-77.395	166.533	
334.00	-74.388	-107.174	
335.00	-68.751	-106.662	
336.00	-65.275	-109.004	
337.00	-63.415	-118.336	
338.00	-62.716	-132.799	
339.00	-63.326	-144.201	
340.00	-65.597	-165.942	
341.00	-67.058	178.414	
342.00	-67.558	147.204	
343.00	-67.781	123.363	
344.00	-66.223	100.856	
345.00	-67.764	103.572	
346.00	-70.032	93.693	
347.00	-69.954	96.070	
348.00	-76.390	135.460	
349.00	-74.588	-175.526	
350.00	-70.060	-166.955	
351.00	-69.136	-153.035	
352.00	-67.417	-151.060	
353.00	-66.723	-148.329	
354.00	-66.062	-141.578	
355.00	-65.038	-139.652	
356.00	-66.848	-127.456	
357.00	-66.666	-116.580	
358.00	-67.537	-107.859	
359.00	-67.219	-95.391	
Frequency	2496.00	MHz	
Channel	test		
Scan Axis name	Azimuth  [deg]		
Scan Axis	Amplitude	Phase	
			
0.00	-66.472	122.930	
1.00	-67.013	121.193	
2.00	-65.271	115.451	
3.00	-65.217	124.410	
4.00	-64.862	120.222	
5.00	-63.202	108.964	
6.00	-63.077	100.890	
7.00	-63.460	87.843	
8.00	-63.438	78.093	
9.00	-63.703	65.480	
10.00	-63.998	51.413	
11.00	-64.799	42.345	
12.00	-65.911	31.821	
13.00	-66.397	26.777	
14.00	-68.748	19.559	
15.00	-71.621	6.424	
16.00	-78.006	-22.530	
17.00	-74.876	-70.395	
18.00	-71.212	-110.579	
19.00	-70.656	-114.218	
20.00	-67.161	-115.870	
21.00	-66.393	-113.115	
22.00	-66.053	-109.423	
23.00	-65.737	-95.090	
24.00	-65.767	-91.838	
25.00	-66.982	-73.416	
26.00	-69.404	-52.848	
27.00	-75.227	-42.713	
28.00	-87.365	48.125	
29.00	-73.044	142.073	
30.00	-69.010	147.435	
31.00	-67.125	145.479	
32.00	-66.714	148.556	
33.00	-67.424	152.491	
34.00	-69.868	152.878	
35.00	-73.947	167.090	
36.00	-84.433	82.623	
37.00	-75.099	35.152	
38.00	-70.490	36.303	
39.00	-69.442	31.808	
40.00	-73.131	41.345	
41.00	-76.833	0.637	
42.00	-87.700	-81.039	
43.00	-74.143	-74.020	
44.00	-72.656	-53.371	
45.00	-73.931	-58.093	
46.00	-76.358	-66.203	
47.00	-81.860	-48.774	
48.00	-105.337	6.857	
49.00	-87.180	-147.252	
50.00	-84.410	9.595	
51.00	-73.724	12.782	
52.00	-67.961	28.190	
53.00	-65.273	35.435	
54.00	-64.846	44.675	
55.00	-65.477	45.921	
56.00	-67.700	61.576	
57.00	-73.038	50.235	
58.00	-78.100	-24.466	
59.00	-70.110	-62.950	
60.00	-67.477	-64.511	
61.00	-66.043	-64.072	
62.00	-66.741	-68.383	
63.00	-67.083	-88.356	
64.00	-66.387	-106.711	
65.00	-65.879	-120.719	
66.00	-64.212	-122.869	
67.00	-64.729	-117.140	
68.00	-67.546	-108.293	
69.00	-78.482	-75.571	
70.00	-76.789	70.742	
71.00	-66.706	93.409	
72.00	-61.877	102.125	
73.00	-59.629	115.627	
74.00	-59.299	131.726	
75.00	-59.303	145.785	
76.00	-60.033	167.038	
77.00	-60.812	-175.725	
78.00	-64.636	-153.043	
79.00	-67.489	-123.985	
80.00	-68.244	-68.928	
81.00	-67.551	-44.018	
82.00	-63.989	1.703	
83.00	-66.510	18.315	
84.00	-62.861	61.445	
85.00	-63.612	99.243	
86.00	-60.177	113.215	
87.00	-60.058	138.106	
88.00	-59.887	161.159	
89.00	-59.340	-170.139	
90.00	-59.712	-146.117	
91.00	-59.795	-128.434	
92.00	-60.597	-112.185	
93.00	-61.477	-85.908	
94.00	-61.403	-63.051	
95.00	-62.598	-43.581	
96.00	-63.334	-10.654	
97.00	-65.565	6.322	
98.00	-65.556	30.471	
99.00	-67.361	53.983	
100.00	-68.148	84.428	
101.00	-70.575	129.230	
102.00	-71.309	158.646	
103.00	-74.561	-173.357	
104.00	-76.703	-140.194	
105.00	-86.329	-27.970	
106.00	-70.273	31.967	
107.00	-66.421	53.651	
108.00	-63.733	66.405	
109.00	-61.549	82.307	
110.00	-60.241	93.492	
111.00	-59.410	107.926	
112.00	-58.702	118.787	
113.00	-58.766	131.615	
114.00	-58.098	145.857	
115.00	-58.170	155.260	
116.00	-57.175	168.371	
117.00	-56.397	179.481	
118.00	-54.848	-168.587	
119.00	-53.504	-156.930	
120.00	-52.031	-143.916	
121.00	-50.660	-135.165	
122.00	-49.902	-123.839	
123.00	-49.028	-114.850	
124.00	-48.710	-104.006	
125.00	-48.790	-95.201	
126.00	-49.266	-91.147	
127.00	-49.901	-87.809	
128.00	-50.437	-90.200	
129.00	-50.382	-93.609	
130.00	-49.048	-98.557	
131.00	-47.362	-97.424	
132.00	-45.825	-92.694	
133.00	-44.378	-83.710	
134.00	-43.484	-73.216	
135.00	-42.831	-60.794	
136.00	-42.709	-47.220	
137.00	-42.885	-32.897	
138.00	-43.571	-18.737	
139.00	-44.816	-4.719	
140.00	-47.174	9.871	
141.00	-51.323	22.063	
142.00	-62.022	46.157	
143.00	-57.322	-145.277	
144.00	-49.954	-128.779	
145.00	-46.373	-118.479	
146.00	-44.485	-108.564	
147.00	-43.521	-99.102	
148.00	-43.434	-89.874	
149.00	-44.066	-81.258	
150.00	-44.777	-73.602	
151.00	-45.876	-65.186	
152.00	-47.183	-60.570	
153.00	-48.478	-56.057	
154.00	-49.467	-51.928	
155.00	-50.545	-49.478	
156.00	-51.320	-50.970	
157.00	-51.947	-55.796	
158.00	-52.341	-66.143	
159.00	-51.891	-81.120	
160.00	-50.017	-94.046	
161.00	-47.957	-103.098	
162.00	-46.044	-108.302	
163.00	-44.613	-108.910	
164.00	-43.751	-108.967	
165.00	-43.710	-106.701	
166.00	-44.240	-106.107	
167.00	-45.721	-101.323	
168.00	-47.629	-96.114	
169.00	-49.071	-84.265	
170.00	-48.791	-65.846	
171.00	-45.364	-55.512	
172.00	-41.174	-52.279	
173.00	-37.457	-52.349	
174.00	-34.046	-53.503	
175.00	-31.274	-54.684	
176.00	-29.055	-55.378	
177.00	-27.343	-56.050	
178.00	-26.166	-56.268	
179.00	-25.463	-56.863	
180.00	-25.251	-57.290	
181.00	-25.549	-57.897	
182.00	-26.427	-58.083	
183.00	-27.882	-58.138	
184.00	-30.126	-57.882	
185.00	-33.366	-56.538	
186.00	-38.206	-51.434	
187.00	-46.033	-29.860	
188.00	-49.296	56.720	
189.00	-44.406	86.822	
190.00	-43.045	93.027	
191.00	-44.232	97.807	
192.00	-47.987	108.424	
193.00	-53.506	143.492	
194.00	-52.061	-155.667	
195.00	-48.683	-137.360	
196.00	-47.962	-131.875	
197.00	-49.734	-132.300	
198.00	-55.865	-119.186	
199.00	-59.865	-12.042	
200.00	-49.830	13.342	
201.00	-45.929	11.540	
202.00	-44.366	5.922	
203.00	-44.348	-3.283	
204.00	-46.519	-16.987	
205.00	-50.723	-46.393	
206.00	-52.720	-121.199	
207.00	-46.647	-168.587	
208.00	-42.761	173.298	
209.00	-40.324	160.238	
210.00	-39.187	149.515	
211.00	-38.995	140.330	
212.00	-39.590	132.181	
213.00	-41.091	124.800	
214.00	-43.489	119.332	
215.00	-47.297	119.378	
216.00	-52.563	140.135	
217.00	-52.226	-171.400	
218.00	-48.558	-154.883	
219.00	-46.095	-157.074	
220.00	-44.776	-164.140	
221.00	-44.458	-172.654	
222.00	-44.308	175.545	
223.00	-44.845	164.245	
224.00	-45.642	152.558	
225.00	-46.713	140.745	
226.00	-47.902	128.455	
227.00	-49.462	115.842	
228.00	-50.985	102.520	
229.00	-52.776	88.656	
230.00	-54.340	74.379	
231.00	-56.280	61.114	
232.00	-58.014	48.849	
233.00	-60.912	37.560	
234.00	-65.360	36.557	
235.00	-70.841	50.809	
236.00	-67.718	105.631	
237.00	-63.492	113.667	
238.00	-60.215	104.794	
239.00	-58.036	90.210	
240.00	-56.303	74.912	
241.00	-54.792	52.112	
242.00	-53.724	33.938	
243.00	-52.551	15.026	
244.00	-52.231	-3.834	
245.00	-51.428	-20.279	
246.00	-51.318	-36.174	
247.00	-51.455	-54.733	
248.00	-51.919	-72.882	
249.00	-52.550	-91.359	
250.00	-53.394	-110.636	
251.00	-54.302	-131.723	
252.00	-55.122	-152.271	
253.00	-55.490	-172.554	
254.00	-56.398	168.642	
255.00	-57.233	149.687	
256.00	-57.930	131.653	
257.00	-59.113	111.536	
258.00	-60.243	93.472	
259.00	-61.246	73.772	
260.00	-61.962	53.198	
261.00	-62.486	31.808	
262.00	-63.129	10.662	
263.00	-63.974	-4.570	
264.00	-63.592	-25.142	
265.00	-64.380	-39.671	
266.00	-65.634	-57.710	
267.00	-65.439	-83.496	
268.00	-66.941	-103.876	
269.00	-66.833	-114.384	
270.00	-69.077	-149.416	
271.00	-68.115	-176.773	
272.00	-70.022	163.607	
273.00	-71.165	129.683	
274.00	-70.973	85.980	
275.00	-70.681	56.398	
276.00	-68.187	35.543	
277.00	-66.612	14.556	
278.00	-66.890	-0.400	
279.00	-66.582	-18.100	
280.00	-69.387	-34.288	
281.00	-70.747	-57.439	
282.00	-73.975	-86.760	
283.00	-76.172	-105.205	
284.00	-76.987	-153.524	
285.00	-75.403	168.794	
286.00	-82.685	123.637	
287.00	-84.670	73.951	
288.00	-76.509	22.320	
289.00	-72.226	-10.585	
290.00	-73.777	-21.667	
291.00	-73.395	-41.340	
292.00	-76.046	-78.267	
293.00	-78.892	-110.834	
294.00	-78.648	-168.181	
295.00	-74.122	147.536	
296.00	-71.476	111.062	
297.00	-69.402	95.356	
298.00	-69.136	82.696	
299.00	-69.540	69.834	
300.00	-70.406	36.373	
301.00	-69.935	4.291	
302.00	-68.476	-21.277	
303.00	-66.385	-51.192	
304.00	-65.853	-66.368	
305.00	-65.135	-81.833	
306.00	-64.589	-96.469	
307.00	-65.287	-103.236	
308.00	-67.075	-109.574	
309.00	-66.077	-134.742	
310.00	-68.208	-146.546	
311.00	-71.316	-165.492	
312.00	-75.202	157.674	
313.00	-75.843	104.480	
314.00	-74.079	44.345	
315.00	-70.971	30.329	
316.00	-67.319	-0.067	
317.00	-64.411	-15.608	
318.00	-64.192	-33.402	
319.00	-64.077	-48.369	
320.00	-63.902	-70.291	
321.00	-64.178	-84.164	
322.00	-65.815	-89.907	
323.00	-69.708	-130.273	
324.00	-75.457	-167.835	
325.00	-71.989	93.937	
326.00	-68.229	53.437	
327.00	-64.325	32.698	
328.00	-62.331	14.722	
329.00	-61.212	-2.176	
330.00	-60.381	-16.957	
331.00	-61.222	-25.554	
332.00	-62.901	-33.003	
333.00	-64.402	-36.160	
334.00	-66.196	-31.888	
335.00	-66.842	-21.189	
336.00	-66.750	-18.462	
337.00	-64.789	-18.546	
338.00	-65.033	-26.088	
339.00	-65.724	-29.156	
340.00	-65.485	-30.090	
341.00	-67.711	-27.734	
342.00	-69.097	-26.429	
343.00	-69.969	1.980	
344.00	-68.952	14.163	
345.00	-65.354	17.253	
346.00	-64.137	11.714	
347.00	-62.277	3.318	
348.00	-61.091	-1.158	
349.00	-60.811	-8.663	
350.00	-61.914	-20.140	
351.00	-61.905	-26.169	
352.00	-63.208	-41.479	
353.00	-66.393	-53.289	
354.00	-67.222	-66.959	
355.00	-70.848	-83.335	
356.00	-73.069	-144.133	
357.00	-73.773	171.013	
358.00	-69.132	146.685	
359.00	-67.749	131.022	
Frequency	2550.00	MHz	
Channel	test		
Scan Axis name	Azimuth  [deg]		
Scan Axis	Amplitude	Phase	
			
0.00	-70.412	-47.844	
1.00	-67.364	-65.698	
2.00	-67.833	-80.097	
3.00	-65.352	-99.309	
4.00	-65.170	-101.658	
5.00	-64.623	-110.195	
6.00	-62.706	-118.155	
7.00	-63.329	-126.441	
8.00	-62.192	-132.833	
9.00	-62.893	-143.237	
10.00	-63.542	-136.963	
11.00	-64.919	-145.836	
12.00	-65.104	-166.210	
13.00	-68.324	-168.267	
14.00	-67.167	175.905	
15.00	-68.084	166.622	
16.00	-72.677	131.259	
17.00	-91.987	116.884	
18.00	-74.353	26.946	
19.00	-72.108	20.446	
20.00	-70.057	26.168	
21.00	-66.880	14.396	
22.00	-65.882	12.308	
23.00	-65.676	24.182	
24.00	-65.334	21.061	
25.00	-65.715	42.932	
26.00	-67.512	61.122	
27.00	-71.973	75.860	
28.00	-77.668	166.007	
29.00	-72.078	-154.900	
30.00	-68.862	-142.437	
31.00	-67.185	-133.575	
32.00	-64.218	-136.916	
33.00	-64.788	-138.052	
34.00	-63.556	-140.050	
35.00	-64.383	-155.338	
36.00	-63.880	-164.224	
37.00	-61.387	-175.588	
38.00	-62.664	-174.282	
39.00	-61.250	-173.951	
40.00	-62.048	-164.588	
41.00	-63.025	-157.040	
42.00	-64.600	-143.212	
43.00	-66.898	-137.606	
44.00	-69.192	-138.371	
45.00	-71.767	-139.075	
46.00	-68.073	-153.822	
47.00	-67.178	-161.449	
48.00	-66.409	-157.344	
49.00	-66.523	-166.453	
50.00	-67.181	-174.425	
51.00	-68.757	-175.324	
52.00	-68.669	159.719	
53.00	-69.890	144.350	
54.00	-68.078	131.917	
55.00	-69.489	116.753	
56.00	-68.639	98.190	
57.00	-67.922	95.266	
58.00	-67.613	95.543	
59.00	-67.907	101.449	
60.00	-68.459	120.597	
61.00	-71.446	172.491	
62.00	-69.665	-138.093	
63.00	-67.503	-109.004	
64.00	-66.176	-89.207	
65.00	-66.174	-66.648	
66.00	-69.058	-38.713	
67.00	-70.737	20.847	
68.00	-68.873	63.948	
69.00	-67.964	105.137	
70.00	-66.092	135.482	
71.00	-63.387	162.320	
72.00	-64.862	-170.188	
73.00	-64.372	-143.204	
74.00	-65.231	-109.108	
75.00	-65.454	-73.921	
76.00	-64.499	-38.661	
77.00	-64.824	6.453	
78.00	-62.733	35.662	
79.00	-61.866	43.708	
80.00	-60.713	80.860	
81.00	-62.078	111.265	
82.00	-60.645	140.387	
83.00	-60.222	157.325	
84.00	-59.607	175.740	
85.00	-59.754	-150.082	
86.00	-60.776	-132.189	
87.00	-60.728	-109.350	
88.00	-61.456	-82.789	
89.00	-61.025	-39.680	
90.00	-62.749	-34.532	
91.00	-63.578	4.552	
92.00	-64.682	33.554	
93.00	-65.517	62.629	
94.00	-64.590	85.608	
95.00	-64.441	109.367	
96.00	-64.285	131.575	
97.00	-65.971	158.764	
98.00	-67.359	-177.122	
99.00	-66.840	-148.631	
100.00	-67.527	-109.865	
101.00	-68.007	-51.079	
102.00	-67.914	-38.291	
103.00	-67.811	-17.020	
104.00	-68.925	2.491	
105.00	-71.531	9.018	
106.00	-79.379	27.859	
107.00	-79.215	-122.087	
108.00	-69.693	-115.298	
109.00	-65.272	-88.957	
110.00	-62.945	-79.696	
111.00	-61.168	-65.972	
112.00	-59.918	-46.924	
113.00	-59.592	-29.786	
114.00	-59.178	-11.624	
115.00	-59.200	3.497	
116.00	-58.703	20.544	
117.00	-58.327	26.021	
118.00	-57.746	29.946	
119.00	-56.640	26.165	
120.00	-54.915	26.506	
121.00	-53.297	28.060	
122.00	-51.631	32.541	
123.00	-50.834	39.915	
124.00	-50.559	49.638	
125.00	-50.293	63.009	
126.00	-50.682	75.371	
127.00	-51.066	92.262	
128.00	-52.059	103.642	
129.00	-53.452	112.909	
130.00	-55.372	111.344	
131.00	-56.093	92.645	
132.00	-54.276	72.186	
133.00	-50.702	68.706	
134.00	-48.081	72.476	
135.00	-46.036	80.977	
136.00	-44.778	91.336	
137.00	-44.087	102.114	
138.00	-43.909	112.764	
139.00	-44.293	122.512	
140.00	-45.359	131.835	
141.00	-47.091	137.085	
142.00	-50.143	137.047	
143.00	-53.958	121.828	
144.00	-53.876	81.279	
145.00	-50.949	66.639	
146.00	-48.584	65.469	
147.00	-47.151	71.127	
148.00	-46.606	78.731	
149.00	-46.529	88.259	
150.00	-46.980	97.420	
151.00	-47.548	104.705	
152.00	-48.524	110.760	
153.00	-49.100	113.686	
154.00	-49.803	112.967	
155.00	-50.032	112.921	
156.00	-50.680	108.581	
157.00	-50.704	103.320	
158.00	-50.893	95.769	
159.00	-51.054	85.088	
160.00	-50.343	73.201	
161.00	-49.224	61.677	
162.00	-47.794	53.195	
163.00	-46.665	48.481	
164.00	-45.957	46.728	
165.00	-45.924	47.706	
166.00	-46.439	49.458	
167.00	-47.771	55.033	
168.00	-49.734	66.029	
169.00	-50.726	86.871	
170.00	-49.131	108.750	
171.00	-45.732	118.215	
172.00	-41.985	118.775	
173.00	-38.735	115.876	
174.00	-35.814	112.540	
175.00	-33.369	109.182	
176.00	-31.383	106.329	
177.00	-29.865	104.134	
178.00	-28.854	102.374	
179.00	-28.310	100.447	
180.00	-28.280	98.580	
181.00	-28.787	96.451	
182.00	-29.873	94.814	
183.00	-31.611	93.330	
184.00	-34.250	91.452	
185.00	-38.140	89.634	
186.00	-44.433	89.554	
187.00	-61.565	104.424	
188.00	-51.237	-103.769	
189.00	-46.621	-100.427	
190.00	-46.228	-100.120	
191.00	-48.205	-95.238	
192.00	-51.871	-76.422	
193.00	-54.249	-36.434	
194.00	-52.241	0.598	
195.00	-50.559	12.011	
196.00	-51.026	17.113	
197.00	-54.746	19.341	
198.00	-62.845	53.215	
199.00	-57.151	146.629	
200.00	-51.080	150.392	
201.00	-48.363	144.036	
202.00	-47.413	133.812	
203.00	-48.133	120.351	
204.00	-49.863	98.239	
205.00	-51.516	55.549	
206.00	-50.130	7.392	
207.00	-46.966	-21.179	
208.00	-44.777	-41.816	
209.00	-43.437	-55.872	
210.00	-43.135	-67.491	
211.00	-43.594	-76.784	
212.00	-45.155	-85.535	
213.00	-47.849	-89.086	
214.00	-52.572	-82.653	
215.00	-56.983	-39.184	
216.00	-53.075	0.452	
217.00	-49.357	8.779	
218.00	-47.599	5.039	
219.00	-46.755	-1.139	
220.00	-46.721	-8.669	
221.00	-47.153	-17.842	
222.00	-48.114	-27.269	
223.00	-49.333	-36.960	
224.00	-50.772	-47.100	
225.00	-52.338	-58.537	
226.00	-53.905	-68.485	
227.00	-55.456	-80.069	
228.00	-57.036	-90.505	
229.00	-59.197	-101.014	
230.00	-61.640	-109.480	
231.00	-63.691	-110.270	
232.00	-65.518	-95.462	
233.00	-64.624	-74.115	
234.00	-61.121	-71.171	
235.00	-59.045	-80.404	
236.00	-56.900	-89.995	
237.00	-55.030	-106.854	
238.00	-53.598	-121.855	
239.00	-52.846	-139.611	
240.00	-51.955	-159.394	
241.00	-51.684	-177.498	
242.00	-51.549	162.078	
243.00	-51.572	142.459	
244.00	-51.627	119.306	
245.00	-51.682	98.912	
246.00	-51.964	77.188	
247.00	-52.006	57.569	
248.00	-52.285	39.392	
249.00	-52.802	21.429	
250.00	-53.386	4.879	
251.00	-54.186	-11.370	
252.00	-55.110	-28.380	
253.00	-56.016	-42.597	
254.00	-57.133	-55.387	
255.00	-58.411	-69.581	
256.00	-59.950	-84.604	
257.00	-60.969	-94.429	
258.00	-62.035	-110.993	
259.00	-63.693	-125.548	
260.00	-65.001	-148.934	
261.00	-67.075	-166.587	
262.00	-67.400	163.573	
263.00	-67.572	140.117	
264.00	-69.457	110.047	
265.00	-70.113	74.022	
266.00	-69.362	32.654	
267.00	-68.223	-3.166	
268.00	-66.654	-28.157	
269.00	-65.802	-53.316	
270.00	-65.062	-75.525	
271.00	-65.146	-98.721	
272.00	-64.345	-125.426	
273.00	-64.401	-150.312	
274.00	-63.487	-168.494	
275.00	-63.794	166.347	
276.00	-64.200	140.662	
277.00	-65.754	123.645	
278.00	-67.182	98.877	
279.00	-69.478	64.455	
280.00	-69.565	14.860	
281.00	-67.590	-16.380	
282.00	-66.205	-45.303	
283.00	-67.487	-69.887	
284.00	-66.578	-101.843	
285.00	-65.850	-131.147	
286.00	-63.332	-148.479	
287.00	-62.001	179.583	
288.00	-63.085	168.142	
289.00	-62.858	155.237	
290.00	-63.367	140.475	
291.00	-65.738	130.137	
292.00	-68.249	109.640	
293.00	-73.608	98.502	
294.00	-77.392	98.188	
295.00	-88.003	-1.818	
296.00	-82.999	-41.965	
297.00	-82.151	-14.349	
298.00	-84.082	-28.152	
299.00	-79.808	1.178	
300.00	-75.903	23.626	
301.00	-74.056	21.505	
302.00	-72.557	20.893	
303.00	-72.035	27.208	
304.00	-73.208	23.851	
305.00	-74.750	42.560	
306.00	-73.699	55.942	
307.00	-73.598	68.015	
308.00	-72.731	68.096	
309.00	-74.029	58.342	
310.00	-70.828	40.602	
311.00	-72.131	23.120	
312.00	-71.071	12.286	
313.00	-70.530	-1.788	
314.00	-70.566	-11.309	
315.00	-72.042	-16.965	
316.00	-76.775	-35.636	
317.00	-76.914	-51.291	
318.00	-86.606	-47.683	
319.00	-92.306	113.440	
320.00	-77.093	63.656	
321.00	-77.175	57.729	
322.00	-71.609	29.206	
323.00	-71.115	-4.785	
324.00	-70.182	-33.102	
325.00	-68.808	-60.503	
326.00	-66.953	-66.117	
327.00	-67.078	-81.351	
328.00	-69.742	-94.134	
329.00	-70.151	-112.211	
330.00	-69.845	-101.908	
331.00	-70.803	-96.100	
332.00	-69.271	-94.837	
333.00	-68.400	-102.035	
334.00	-68.387	-109.548	
335.00	-67.721	-123.312	
336.00	-67.812	-134.172	
337.00	-68.990	-143.267	
338.00	-71.684	-148.811	
339.00	-72.601	-169.895	
340.00	-76.228	166.864	
341.00	-76.601	154.469	
342.00	-79.578	-172.041	
343.00	-77.435	150.282	
344.00	-76.201	172.158	
345.00	-77.146	165.376	
346.00	-74.593	163.476	
347.00	-76.183	98.529	
348.00	-73.868	122.085	
349.00	-76.488	111.835	
350.00	-75.283	107.232	
351.00	-77.675	99.987	
352.00	-76.645	100.984	
353.00	-74.824	86.007	
354.00	-73.432	93.919	
355.00	-72.152	48.461	
356.00	-82.433	69.230	
357.00	-79.830	17.282	
358.00	-74.322	-29.277	
359.00	-72.648	-36.630	
Frequency	2600.00	MHz	
Channel	test		
Scan Axis name	Azimuth  [deg]		
Scan Axis	Amplitude	Phase	
			
0.00	-66.371	-135.538	
1.00	-68.121	-137.378	
2.00	-71.046	-152.913	
3.00	-77.440	-148.433	
4.00	-86.777	30.064	
5.00	-72.493	17.813	
6.00	-67.623	16.710	
7.00	-64.755	9.158	
8.00	-62.243	9.035	
9.00	-61.013	8.113	
10.00	-60.449	9.553	
11.00	-60.076	8.823	
12.00	-60.425	9.228	
13.00	-60.800	6.285	
14.00	-61.724	4.286	
15.00	-62.728	-0.192	
16.00	-64.137	-5.861	
17.00	-66.953	-9.839	
18.00	-69.948	-23.944	
19.00	-72.741	-44.063	
20.00	-74.112	-72.834	
21.00	-74.907	-91.097	
22.00	-70.231	-140.423	
23.00	-69.501	-144.169	
24.00	-67.544	-146.781	
25.00	-65.746	-153.864	
26.00	-64.283	-146.765	
27.00	-63.693	-141.013	
28.00	-64.350	-139.653	
29.00	-64.285	-134.383	
30.00	-65.495	-125.174	
31.00	-67.766	-118.703	
32.00	-70.699	-109.214	
33.00	-74.629	-83.962	
34.00	-77.084	-50.838	
35.00	-74.364	-9.335	
36.00	-72.847	-13.117	
37.00	-70.707	-13.220	
38.00	-68.754	-23.455	
39.00	-66.684	-23.992	
40.00	-65.405	-24.541	
41.00	-64.874	-12.942	
42.00	-64.533	-9.858	
43.00	-64.744	-4.093	
44.00	-65.901	-5.178	
45.00	-65.946	-8.653	
46.00	-66.799	-13.113	
47.00	-65.531	-15.724	
48.00	-65.663	-15.568	
49.00	-65.742	-15.814	
50.00	-65.887	-13.808	
51.00	-67.280	-11.056	
52.00	-67.968	-12.706	
53.00	-69.911	-21.130	
54.00	-68.253	-36.629	
55.00	-67.982	-39.611	
56.00	-65.606	-47.967	
57.00	-64.073	-47.923	
58.00	-62.245	-46.839	
59.00	-61.130	-45.298	
60.00	-60.545	-38.292	
61.00	-60.327	-29.373	
62.00	-60.564	-12.553	
63.00	-61.953	1.865	
64.00	-64.197	28.652	
65.00	-65.692	62.823	
66.00	-65.694	100.114	
67.00	-65.689	136.197	
68.00	-64.626	169.382	
69.00	-65.163	-163.853	
70.00	-64.646	-132.695	
71.00	-65.447	-110.900	
72.00	-66.084	-86.006	
73.00	-68.303	-67.771	
74.00	-70.984	-55.257	
75.00	-78.138	-61.000	
76.00	-74.144	-178.812	
77.00	-67.315	-168.342	
78.00	-64.614	-155.339	
79.00	-62.307	-129.039	
80.00	-60.933	-114.924	
81.00	-60.237	-95.318	
82.00	-59.648	-74.006	
83.00	-60.601	-56.074	
84.00	-59.964	-28.074	
85.00	-60.132	-3.834	
86.00	-60.519	22.347	
87.00	-60.235	50.774	
88.00	-59.635	76.338	
89.00	-58.308	100.006	
90.00	-57.706	115.871	
91.00	-58.159	133.797	
92.00	-58.244	152.157	
93.00	-59.465	171.293	
94.00	-60.404	-162.382	
95.00	-60.807	-137.680	
96.00	-61.399	-104.476	
97.00	-61.656	-72.224	
98.00	-60.604	-45.689	
99.00	-60.384	-19.635	
100.00	-60.129	6.046	
101.00	-59.876	41.262	
102.00	-59.917	60.508	
103.00	-60.246	83.264	
104.00	-61.869	104.079	
105.00	-63.055	129.999	
106.00	-65.508	155.183	
107.00	-67.375	-165.373	
108.00	-68.755	-132.473	
109.00	-68.222	-102.359	
110.00	-71.814	-77.355	
111.00	-79.846	-39.477	
112.00	-74.826	95.496	
113.00	-66.233	125.779	
114.00	-62.756	142.175	
115.00	-60.814	152.910	
116.00	-60.151	166.678	
117.00	-60.050	175.251	
118.00	-60.659	-170.111	
119.00	-60.687	-161.682	
120.00	-61.579	-151.223	
121.00	-61.235	-147.988	
122.00	-59.382	-142.447	
123.00	-57.418	-137.284	
124.00	-55.065	-128.272	
125.00	-53.446	-116.848	
126.00	-52.423	-104.734	
127.00	-51.639	-89.687	
128.00	-51.746	-72.935	
129.00	-52.333	-52.402	
130.00	-53.581	-29.941	
131.00	-55.346	-1.587	
132.00	-57.762	33.198	
133.00	-60.042	94.434	
134.00	-56.583	159.498	
135.00	-51.784	-166.295	
136.00	-48.211	-143.446	
137.00	-45.858	-125.507	
138.00	-44.370	-109.468	
139.00	-43.597	-94.879	
140.00	-43.504	-80.754	
141.00	-44.094	-66.902	
142.00	-45.502	-52.167	
143.00	-47.772	-38.467	
144.00	-51.653	-25.214	
145.00	-60.013	-11.794	
146.00	-64.710	177.153	
147.00	-53.839	-169.371	
148.00	-50.071	-157.743	
149.00	-48.151	-146.949	
150.00	-47.404	-135.854	
151.00	-47.528	-125.468	
152.00	-48.292	-116.903	
153.00	-49.521	-108.767	
154.00	-51.137	-100.707	
155.00	-53.017	-92.373	
156.00	-55.003	-88.032	
157.00	-56.985	-85.695	
158.00	-58.405	-88.613	
159.00	-59.207	-99.864	
160.00	-58.472	-116.019	
161.00	-56.618	-136.122	
162.00	-54.297	-149.215	
163.00	-52.096	-156.241	
164.00	-50.671	-159.083	
165.00	-49.944	-159.000	
166.00	-49.916	-157.320	
167.00	-50.832	-153.169	
168.00	-52.860	-143.263	
169.00	-55.158	-120.474	
170.00	-55.050	-88.598	
171.00	-52.553	-73.093	
172.00	-49.668	-76.214	
173.00	-46.760	-86.991	
174.00	-43.598	-99.762	
175.00	-40.444	-109.734	
176.00	-37.731	-117.020	
177.00	-35.543	-121.852	
178.00	-34.000	-125.117	
179.00	-33.000	-128.059	
180.00	-32.622	-130.322	
181.00	-32.854	-132.785	
182.00	-33.770	-134.521	
183.00	-35.407	-136.334	
184.00	-38.106	-137.797	
185.00	-42.380	-138.575	
186.00	-50.371	-135.496	
187.00	-60.604	5.573	
188.00	-49.218	24.663	
189.00	-46.400	25.059	
190.00	-46.365	23.902	
191.00	-48.099	24.270	
192.00	-52.123	29.712	
193.00	-58.269	55.681	
194.00	-59.182	119.509	
195.00	-56.273	142.190	
196.00	-56.471	146.415	
197.00	-60.286	144.459	
198.00	-72.811	-178.716	
199.00	-62.685	-69.601	
200.00	-57.175	-74.226	
201.00	-55.614	-90.346	
202.00	-55.746	-120.587	
203.00	-54.799	-162.887	
204.00	-51.692	158.763	
205.00	-48.308	133.781	
206.00	-45.843	115.714	
207.00	-44.294	101.376	
208.00	-43.661	89.696	
209.00	-43.915	78.534	
210.00	-45.156	67.799	
211.00	-47.680	58.058	
212.00	-52.293	52.828	
213.00	-62.539	69.667	
214.00	-57.799	177.157	
215.00	-51.381	177.381	
216.00	-48.612	168.299	
217.00	-47.352	157.834	
218.00	-47.121	145.983	
219.00	-47.592	133.669	
220.00	-48.779	120.980	
221.00	-50.523	106.936	
222.00	-52.728	91.668	
223.00	-55.283	76.197	
224.00	-58.560	59.752	
225.00	-62.000	45.605	
226.00	-65.848	26.989	
227.00	-70.075	10.041	
228.00	-74.958	8.010	
229.00	-79.460	10.599	
230.00	-76.704	61.822	
231.00	-71.926	78.227	
232.00	-67.517	79.304	
233.00	-63.311	69.465	
234.00	-60.143	55.637	
235.00	-57.658	42.883	
236.00	-56.033	27.536	
237.00	-54.431	11.491	
238.00	-53.392	-5.832	
239.00	-52.507	-23.674	
240.00	-51.908	-41.476	
241.00	-51.543	-58.832	
242.00	-51.286	-76.588	
243.00	-51.368	-94.079	
244.00	-51.819	-111.345	
245.00	-52.384	-129.527	
246.00	-52.954	-147.413	
247.00	-53.745	-165.462	
248.00	-54.664	175.850	
249.00	-55.040	159.389	
250.00	-55.586	142.726	
251.00	-56.124	129.252	
252.00	-56.562	116.956	
253.00	-57.113	103.936	
254.00	-57.766	89.477	
255.00	-58.256	78.068	
256.00	-58.760	60.689	
257.00	-59.097	41.657	
258.00	-59.322	20.914	
259.00	-59.323	0.828	
260.00	-59.251	-20.375	
261.00	-59.682	-39.795	
262.00	-60.355	-62.258	
263.00	-61.259	-84.250	
264.00	-62.889	-116.697	
265.00	-63.196	-147.806	
266.00	-62.624	-179.547	
267.00	-61.918	151.316	
268.00	-61.348	130.347	
269.00	-61.186	107.993	
270.00	-62.202	86.733	
271.00	-63.268	59.053	
272.00	-63.747	22.279	
273.00	-64.932	-12.888	
274.00	-63.609	-43.653	
275.00	-62.767	-69.755	
276.00	-62.504	-92.023	
277.00	-62.151	-114.696	
278.00	-61.938	-132.783	
279.00	-63.040	-161.583	
280.00	-63.042	174.860	
281.00	-63.297	153.542	
282.00	-64.468	128.861	
283.00	-65.840	97.726	
284.00	-66.727	70.685	
285.00	-66.532	38.638	
286.00	-65.700	6.226	
287.00	-67.085	-30.620	
288.00	-67.147	-47.671	
289.00	-69.244	-79.236	
290.00	-68.499	-91.013	
291.00	-68.786	-120.609	
292.00	-70.456	-130.969	
293.00	-71.597	-136.381	
294.00	-74.022	-144.852	
295.00	-73.478	-145.298	
296.00	-72.038	-138.103	
297.00	-72.610	-142.170	
298.00	-69.073	-134.127	
299.00	-69.561	-156.802	
300.00	-69.448	-177.420	
301.00	-71.730	166.156	
302.00	-71.683	125.842	
303.00	-72.238	106.074	
304.00	-72.284	67.634	
305.00	-70.672	28.843	
306.00	-72.243	18.660	
307.00	-72.525	-3.559	
308.00	-76.815	1.767	
309.00	-87.183	65.697	
310.00	-79.759	128.754	
311.00	-75.599	139.661	
312.00	-72.182	135.481	
313.00	-71.492	142.440	
314.00	-68.632	144.718	
315.00	-67.805	148.292	
316.00	-66.472	137.588	
317.00	-66.983	129.583	
318.00	-68.059	119.877	
319.00	-68.719	94.992	
320.00	-70.280	76.474	
321.00	-70.697	42.724	
322.00	-70.093	19.577	
323.00	-69.370	5.911	
324.00	-69.103	-17.231	
325.00	-67.625	-16.357	
326.00	-66.684	-32.902	
327.00	-67.276	-35.069	
328.00	-67.042	-41.018	
329.00	-68.242	-46.031	
330.00	-69.224	-40.515	
331.00	-69.807	-29.753	
332.00	-69.618	-22.897	
333.00	-68.966	-7.881	
334.00	-67.035	-15.303	
335.00	-65.828	-15.264	
336.00	-63.706	-14.892	
337.00	-63.080	-17.154	
338.00	-61.479	-24.034	
339.00	-61.543	-26.631	
340.00	-60.978	-34.218	
341.00	-61.382	-44.686	
342.00	-62.239	-54.330	
343.00	-64.194	-66.912	
344.00	-66.022	-82.764	
345.00	-69.291	-107.077	
346.00	-70.978	-132.172	
347.00	-76.800	178.869	
348.00	-75.109	160.097	
349.00	-75.659	131.985	
350.00	-74.450	94.181	
351.00	-77.937	29.595	
352.00	-76.553	-15.256	
353.00	-71.412	-50.212	
354.00	-68.760	-58.711	
355.00	-67.067	-73.484	
356.00	-66.964	-89.265	
357.00	-66.098	-104.563	
358.00	-66.543	-119.007	
359.00	-65.890	-129.114	
Frequency	2650.00	MHz	
Channel	test		
Scan Axis name	Azimuth  [deg]		
Scan Axis	Amplitude	Phase	
			
0.00	-62.497	41.204	
1.00	-64.165	-17.180	
2.00	-62.388	-7.670	
3.00	-61.393	-12.392	
4.00	-63.052	-43.143	
5.00	-64.359	-45.654	
6.00	-66.321	-73.536	
7.00	-67.970	-98.607	
8.00	-70.168	-107.257	
9.00	-67.986	-172.446	
10.00	-71.449	-152.836	
11.00	-73.127	-158.476	
12.00	-74.675	-170.757	
13.00	-73.278	-165.749	
14.00	-75.765	-169.263	
15.00	-71.015	175.602	
16.00	-70.938	-177.105	
17.00	-67.925	152.402	
18.00	-69.004	122.117	
19.00	-64.971	119.114	
20.00	-67.900	98.941	
21.00	-66.861	37.385	
22.00	-64.876	40.905	
23.00	-63.023	30.291	
24.00	-62.765	27.164	
25.00	-61.030	17.871	
26.00	-60.254	10.595	
27.00	-59.496	3.715	
28.00	-60.212	21.208	
29.00	-59.732	6.951	
30.00	-60.715	7.351	
31.00	-64.104	-0.518	
32.00	-64.297	-8.281	
33.00	-68.004	-10.953	
34.00	-68.330	-5.887	
35.00	-69.626	-13.686	
36.00	-75.578	19.973	
37.00	-70.500	20.420	
38.00	-73.193	10.807	
39.00	-76.506	-22.591	
40.00	-73.566	-58.969	
41.00	-70.775	-52.226	
42.00	-69.428	-35.383	
43.00	-69.553	-19.275	
44.00	-70.230	-17.829	
45.00	-73.279	-8.450	
46.00	-70.345	11.147	
47.00	-70.153	24.148	
48.00	-69.484	43.194	
49.00	-67.540	68.378	
50.00	-67.219	56.466	
51.00	-65.644	72.323	
52.00	-66.456	50.334	
53.00	-63.742	43.551	
54.00	-62.304	51.506	
55.00	-64.163	53.135	
56.00	-62.770	56.342	
57.00	-62.198	60.239	
58.00	-62.109	60.160	
59.00	-63.643	74.357	
60.00	-66.320	82.898	
61.00	-72.900	99.243	
62.00	-77.341	-163.815	
63.00	-70.069	-106.391	
64.00	-64.380	-96.822	
65.00	-61.222	-84.425	
66.00	-60.042	-74.218	
67.00	-59.380	-56.156	
68.00	-59.574	-39.984	
69.00	-60.098	-19.446	
70.00	-59.802	1.252	
71.00	-61.186	25.795	
72.00	-61.829	42.841	
73.00	-63.588	67.634	
74.00	-66.112	91.930	
75.00	-71.144	107.387	
76.00	-82.889	-164.811	
77.00	-73.436	-64.122	
78.00	-70.274	-27.496	
79.00	-66.191	-6.825	
80.00	-64.691	22.536	
81.00	-62.319	33.445	
82.00	-61.354	63.189	
83.00	-60.901	79.721	
84.00	-60.776	94.549	
85.00	-61.618	119.720	
86.00	-61.787	144.630	
87.00	-62.071	174.965	
88.00	-61.812	-151.549	
89.00	-61.125	-127.929	
90.00	-60.102	-102.493	
91.00	-59.823	-75.403	
92.00	-59.128	-51.587	
93.00	-58.177	-22.990	
94.00	-58.133	-1.636	
95.00	-57.644	16.572	
96.00	-56.651	37.311	
97.00	-57.114	64.640	
98.00	-56.065	82.510	
99.00	-56.503	101.657	
100.00	-56.506	122.017	
101.00	-57.211	155.006	
102.00	-58.272	176.241	
103.00	-59.781	-151.415	
104.00	-59.857	-127.259	
105.00	-60.508	-96.335	
106.00	-60.733	-68.185	
107.00	-60.798	-32.228	
108.00	-60.827	-6.422	
109.00	-61.386	18.393	
110.00	-61.958	42.255	
111.00	-62.765	75.259	
112.00	-63.405	89.727	
113.00	-63.859	114.887	
114.00	-64.554	132.984	
115.00	-65.494	130.824	
116.00	-67.364	140.876	
117.00	-66.103	114.154	
118.00	-67.976	113.807	
119.00	-65.818	112.378	
120.00	-69.472	123.638	
121.00	-83.210	-135.011	
122.00	-67.608	-46.019	
123.00	-60.583	-40.802	
124.00	-56.240	-29.044	
125.00	-54.207	-10.631	
126.00	-52.416	0.693	
127.00	-51.558	18.214	
128.00	-52.022	34.001	
129.00	-53.326	56.064	
130.00	-54.820	78.928	
131.00	-58.086	106.390	
132.00	-63.883	152.283	
133.00	-64.940	-106.247	
134.00	-57.039	-51.654	
135.00	-51.867	-24.191	
136.00	-48.628	-4.901	
137.00	-46.280	13.973	
138.00	-44.934	32.166	
139.00	-44.583	49.297	
140.00	-44.814	66.113	
141.00	-45.402	84.557	
142.00	-47.082	107.857	
143.00	-49.741	135.436	
144.00	-52.603	178.362	
145.00	-52.549	-129.134	
146.00	-49.491	-88.513	
147.00	-47.223	-61.188	
148.00	-45.866	-39.509	
149.00	-45.098	-22.631	
150.00	-45.105	-6.921	
151.00	-45.521	7.538	
152.00	-46.802	20.237	
153.00	-48.366	30.311	
154.00	-51.135	37.796	
155.00	-54.708	42.068	
156.00	-59.359	34.327	
157.00	-62.361	6.463	
158.00	-61.545	-21.545	
159.00	-59.984	-30.437	
160.00	-58.616	-32.412	
161.00	-56.734	-39.317	
162.00	-55.459	-39.615	
163.00	-52.973	-44.183	
164.00	-51.459	-38.479	
165.00	-51.099	-35.943	
166.00	-51.148	-32.933	
167.00	-52.413	-30.326	
168.00	-54.535	-24.371	
169.00	-57.934	-13.596	
170.00	-61.298	-5.099	
171.00	-62.499	-17.100	
172.00	-54.697	-31.696	
173.00	-48.462	-27.546	
174.00	-43.009	-27.263	
175.00	-38.818	-23.892	
176.00	-35.686	-21.761	
177.00	-33.238	-19.154	
178.00	-31.622	-16.567	
179.00	-30.539	-15.203	
180.00	-30.129	-13.470	
181.00	-30.375	-12.076	
182.00	-31.230	-10.146	
183.00	-32.906	-7.930	
184.00	-35.430	-4.603	
185.00	-39.519	2.467	
186.00	-45.428	22.104	
187.00	-49.494	82.677	
188.00	-46.113	122.450	
189.00	-44.524	134.623	
190.00	-44.939	139.162	
191.00	-47.067	143.134	
192.00	-51.339	154.905	
193.00	-56.915	-170.232	
194.00	-55.144	-117.168	
195.00	-53.489	-106.085	
196.00	-53.863	-111.079	
197.00	-57.059	-136.938	
198.00	-59.250	158.175	
199.00	-56.117	113.554	
200.00	-53.636	83.149	
201.00	-52.818	57.703	
202.00	-52.785	24.784	
203.00	-52.587	-15.234	
204.00	-50.148	-55.417	
205.00	-47.715	-83.427	
206.00	-45.694	-105.313	
207.00	-44.545	-122.937	
208.00	-44.207	-139.004	
209.00	-44.569	-154.252	
210.00	-45.956	-168.871	
211.00	-48.567	174.968	
212.00	-54.037	157.383	
213.00	-66.959	90.441	
214.00	-55.791	-26.877	
215.00	-49.965	-46.695	
216.00	-47.040	-61.651	
217.00	-45.701	-75.289	
218.00	-44.919	-87.968	
219.00	-44.885	-100.501	
220.00	-45.503	-112.559	
221.00	-46.473	-124.818	
222.00	-48.000	-136.903	
223.00	-49.858	-149.441	
224.00	-51.689	-162.189	
225.00	-53.838	179.869	
226.00	-55.904	164.665	
227.00	-56.958	145.324	
228.00	-57.956	128.987	
229.00	-59.451	112.027	
230.00	-60.590	97.861	
231.00	-62.735	88.105	
232.00	-66.705	103.087	
233.00	-68.966	148.429	
234.00	-63.924	164.645	
235.00	-59.818	160.904	
236.00	-56.805	148.292	
237.00	-55.120	133.615	
238.00	-53.585	119.587	
239.00	-52.315	100.155	
240.00	-51.583	85.491	
241.00	-51.202	68.905	
242.00	-51.256	50.575	
243.00	-51.365	36.266	
244.00	-51.813	19.419	
245.00	-52.271	4.350	
246.00	-53.015	-12.438	
247.00	-53.827	-27.080	
248.00	-54.652	-40.960	
249.00	-55.297	-55.805	
250.00	-56.234	-69.694	
251.00	-56.523	-86.528	
252.00	-56.648	-107.225	
253.00	-57.518	-120.363	
254.00	-57.457	-141.138	
255.00	-57.689	-162.950	
256.00	-57.359	174.666	
257.00	-57.984	157.615	
258.00	-57.884	137.007	
259.00	-57.353	108.245	
260.00	-57.461	88.439	
261.00	-57.649	56.321	
262.00	-57.816	34.706	
263.00	-57.347	9.479	
264.00	-57.404	-18.795	
265.00	-57.340	-41.759	
266.00	-57.868	-54.800	
267.00	-58.552	-77.580	
268.00	-61.640	-107.163	
269.00	-63.563	-127.323	
270.00	-65.371	177.746	
271.00	-65.035	143.362	
272.00	-63.513	104.720	
273.00	-61.376	79.665	
274.00	-60.425	59.991	
275.00	-60.528	36.368	
276.00	-60.771	15.411	
277.00	-61.241	-2.991	
278.00	-61.514	-25.714	
279.00	-61.889	-38.140	
280.00	-63.027	-48.622	
281.00	-66.415	-80.420	
282.00	-68.613	-118.126	
283.00	-72.647	-126.641	
284.00	-72.872	170.479	
285.00	-73.869	124.565	
286.00	-67.783	79.044	
287.00	-68.535	27.200	
288.00	-68.042	21.054	
289.00	-67.391	12.541	
290.00	-69.010	7.110	
291.00	-68.883	-4.815	
292.00	-70.729	-20.689	
293.00	-71.753	-21.151	
294.00	-74.830	2.557	
295.00	-80.293	-37.497	
296.00	-82.051	-76.295	
297.00	-75.543	-20.904	
298.00	-72.165	-6.781	
299.00	-75.864	31.715	
300.00	-78.142	-25.723	
301.00	-78.158	-130.140	
302.00	-71.878	-157.389	
303.00	-71.700	-116.443	
304.00	-74.232	-6.253	
305.00	-66.619	-120.024	
306.00	-68.161	-142.073	
307.00	-76.959	87.207	
308.00	-73.479	144.045	
309.00	-77.056	128.477	
310.00	-70.371	83.213	
311.00	-72.890	65.214	
312.00	-70.592	50.274	
313.00	-69.659	-10.093	
314.00	-67.718	11.030	
315.00	-66.507	-10.034	
316.00	-68.484	-44.250	
317.00	-70.553	-56.176	
318.00	-68.264	-65.080	
319.00	-72.148	-89.495	
320.00	-66.612	-103.399	
321.00	-71.347	-141.510	
322.00	-66.465	-127.434	
323.00	-73.502	-156.020	
324.00	-74.056	-147.705	
325.00	-64.520	127.392	
326.00	-80.326	47.473	
327.00	-70.291	139.240	
328.00	-80.861	131.490	
329.00	-79.311	-25.329	
330.00	-69.944	-28.047	
331.00	-75.453	-23.874	
332.00	-69.706	-40.923	
333.00	-66.759	-87.713	
334.00	-65.687	-118.258	
335.00	-74.595	-97.944	
336.00	-65.371	167.703	
337.00	-67.273	143.458	
338.00	-63.009	120.625	
339.00	-62.413	114.958	
340.00	-61.155	117.547	
341.00	-61.020	98.609	
342.00	-61.870	104.385	
343.00	-63.209	105.236	
344.00	-64.648	96.763	
345.00	-66.712	66.214	
346.00	-70.158	40.148	
347.00	-70.528	13.035	
348.00	-70.254	-29.550	
349.00	-64.283	-38.434	
350.00	-66.561	-45.619	
351.00	-66.517	-74.974	
352.00	-66.454	-124.225	
353.00	-75.128	164.011	
354.00	-66.761	143.683	
355.00	-65.423	143.114	
356.00	-66.828	136.362	
357.00	-64.291	91.808	
358.00	-64.875	73.650	
359.00	-66.115	43.105	
Frequency	2700.00	MHz	
Channel	test		
Scan Axis name	Azimuth  [deg]		
Scan Axis	Amplitude	Phase	
			
0.00	-76.681	123.040	
1.00	-68.934	72.566	
2.00	-68.493	68.366	
3.00	-67.561	83.429	
4.00	-71.521	8.416	
5.00	-73.588	-13.720	
6.00	-70.592	-19.791	
7.00	-69.880	-72.245	
8.00	-71.133	-50.553	
9.00	-72.706	-33.055	
10.00	-71.737	-48.441	
11.00	-73.222	-24.152	
12.00	-79.820	-9.328	
13.00	-85.189	39.492	
14.00	-82.478	33.219	
15.00	-73.250	-124.186	
16.00	-68.094	-140.594	
17.00	-68.717	-129.992	
18.00	-66.401	-135.189	
19.00	-63.966	-163.353	
20.00	-68.738	-167.977	
21.00	-65.223	176.905	
22.00	-66.117	161.611	
23.00	-65.456	143.407	
24.00	-62.520	144.903	
25.00	-62.488	155.966	
26.00	-63.653	145.847	
27.00	-64.162	148.900	
28.00	-64.903	163.477	
29.00	-67.156	170.282	
30.00	-72.610	-175.094	
31.00	-67.407	-107.102	
32.00	-67.915	-91.635	
33.00	-67.188	-75.470	
34.00	-67.274	-79.579	
35.00	-67.314	-26.290	
36.00	-67.862	-76.189	
37.00	-66.989	-49.250	
38.00	-71.729	-47.141	
39.00	-72.837	-29.971	
40.00	-74.763	-2.229	
41.00	-72.058	31.268	
42.00	-69.957	80.930	
43.00	-69.946	107.098	
44.00	-69.465	122.529	
45.00	-67.269	113.928	
46.00	-68.221	139.168	
47.00	-71.304	151.253	
48.00	-70.226	166.881	
49.00	-71.173	-179.475	
50.00	-68.242	179.233	
51.00	-71.097	173.874	
52.00	-69.433	-177.222	
53.00	-69.837	-170.045	
54.00	-67.453	-174.522	
55.00	-64.964	172.446	
56.00	-64.137	176.156	
57.00	-63.332	-171.053	
58.00	-64.218	-162.224	
59.00	-64.443	-162.562	
60.00	-66.678	-147.353	
61.00	-68.141	-134.968	
62.00	-83.805	-76.934	
63.00	-92.851	141.361	
64.00	-80.247	94.705	
65.00	-74.065	95.328	
66.00	-68.682	152.414	
67.00	-67.321	153.327	
68.00	-66.283	163.169	
69.00	-63.101	-169.869	
70.00	-64.557	-156.214	
71.00	-65.043	-140.136	
72.00	-66.147	-104.135	
73.00	-70.407	-85.394	
74.00	-71.095	-13.201	
75.00	-69.626	27.306	
76.00	-65.500	63.861	
77.00	-64.032	99.752	
78.00	-62.278	90.284	
79.00	-66.110	106.086	
80.00	-67.442	-175.378	
81.00	-65.497	-118.458	
82.00	-68.394	-178.761	
83.00	-64.824	-139.663	
84.00	-55.447	-163.269	
85.00	-67.064	15.272	
86.00	-57.660	-42.068	
87.00	-80.158	60.796	
88.00	-66.683	63.972	
89.00	-67.373	36.706	
90.00	-66.402	117.406	
91.00	-66.178	116.179	
92.00	-62.885	135.232	
93.00	-61.696	151.223	
94.00	-62.707	158.942	
95.00	-61.016	177.531	
96.00	-59.583	-161.645	
97.00	-59.446	-147.394	
98.00	-60.605	-127.112	
99.00	-59.109	-107.707	
100.00	-59.868	-84.978	
101.00	-58.273	-46.421	
102.00	-57.434	-28.651	
103.00	-56.729	0.220	
104.00	-57.346	18.585	
105.00	-57.162	49.415	
106.00	-56.664	71.275	
107.00	-56.391	97.924	
108.00	-56.781	122.569	
109.00	-56.560	147.856	
110.00	-57.388	168.423	
111.00	-57.632	-160.771	
112.00	-57.899	-133.686	
113.00	-58.531	-104.295	
114.00	-59.328	-69.273	
115.00	-59.668	-39.912	
116.00	-60.154	6.976	
117.00	-59.402	31.304	
118.00	-57.176	64.021	
119.00	-56.704	87.471	
120.00	-55.742	100.266	
121.00	-54.964	114.796	
122.00	-55.351	130.576	
123.00	-54.751	126.468	
124.00	-54.889	138.829	
125.00	-54.681	146.117	
126.00	-53.337	155.931	
127.00	-52.866	173.711	
128.00	-53.281	-175.827	
129.00	-53.188	-159.217	
130.00	-54.626	-144.970	
131.00	-56.399	-131.185	
132.00	-59.592	-116.567	
133.00	-68.015	-130.663	
134.00	-63.442	135.754	
135.00	-56.816	148.479	
136.00	-51.709	157.762	
137.00	-49.006	167.377	
138.00	-47.080	-178.114	
139.00	-46.245	-163.715	
140.00	-46.166	-149.370	
141.00	-47.055	-133.620	
142.00	-48.993	-117.308	
143.00	-53.446	-102.393	
144.00	-63.751	-71.732	
145.00	-59.507	78.544	
146.00	-51.135	110.520	
147.00	-47.151	125.428	
148.00	-45.266	138.615	
149.00	-44.432	152.678	
150.00	-44.286	163.632	
151.00	-45.131	177.197	
152.00	-46.721	-172.581	
153.00	-49.430	-163.886	
154.00	-54.317	-158.189	
155.00	-63.793	-176.716	
156.00	-62.184	85.794	
157.00	-55.908	87.705	
158.00	-52.974	94.244	
159.00	-50.907	102.785	
160.00	-49.423	112.301	
161.00	-48.346	118.718	
162.00	-47.369	122.227	
163.00	-46.676	123.838	
164.00	-46.263	125.816	
165.00	-46.349	128.699	
166.00	-47.008	131.916	
167.00	-48.429	137.989	
168.00	-50.955	148.124	
169.00	-53.646	165.316	
170.00	-55.514	-173.917	
171.00	-55.680	-168.806	
172.00	-52.020	164.418	
173.00	-46.220	151.991	
174.00	-41.208	144.591	
175.00	-37.104	142.800	
176.00	-33.990	142.560	
177.00	-31.626	143.327	
178.00	-30.138	144.929	
179.00	-29.229	145.577	
180.00	-28.894	146.627	
181.00	-29.235	147.294	
182.00	-30.235	148.838	
183.00	-32.136	151.100	
184.00	-35.106	154.482	
185.00	-39.497	161.781	
186.00	-46.554	-174.133	
187.00	-48.670	-98.033	
188.00	-44.795	-67.458	
189.00	-43.450	-57.073	
190.00	-44.292	-51.232	
191.00	-46.511	-41.521	
192.00	-50.448	-19.015	
193.00	-51.847	20.209	
194.00	-50.631	45.736	
195.00	-50.918	52.422	
196.00	-53.286	48.474	
197.00	-60.248	33.289	
198.00	-61.962	-121.624	
199.00	-51.629	-136.782	
200.00	-48.878	-148.096	
201.00	-47.223	-163.762	
202.00	-47.498	173.874	
203.00	-47.378	144.331	
204.00	-46.790	109.248	
205.00	-45.181	78.209	
206.00	-43.723	57.963	
207.00	-42.703	39.342	
208.00	-42.735	25.900	
209.00	-43.451	12.979	
210.00	-45.473	2.463	
211.00	-49.353	-7.694	
212.00	-58.396	0.610	
213.00	-58.126	104.732	
214.00	-50.306	113.365	
215.00	-46.451	105.648	
216.00	-44.819	96.365	
217.00	-43.959	88.522	
218.00	-44.078	76.511	
219.00	-44.585	66.158	
220.00	-45.322	56.750	
221.00	-46.509	46.459	
222.00	-48.111	39.373	
223.00	-49.700	31.738	
224.00	-51.190	24.381	
225.00	-53.195	21.188	
226.00	-55.051	15.528	
227.00	-57.535	16.364	
228.00	-58.232	14.558	
229.00	-58.980	18.644	
230.00	-59.916	17.474	
231.00	-59.312	17.057	
232.00	-59.235	8.905	
233.00	-57.706	-8.523	
234.00	-59.381	-13.720	
235.00	-58.884	-34.700	
236.00	-58.219	-59.155	
237.00	-58.426	-71.551	
238.00	-56.661	-107.164	
239.00	-56.789	-128.831	
240.00	-56.203	-142.862	
241.00	-57.046	-164.559	
242.00	-56.292	176.151	
243.00	-56.514	162.318	
244.00	-56.837	146.388	
245.00	-56.704	130.806	
246.00	-56.427	120.822	
247.00	-56.168	110.144	
248.00	-56.246	97.724	
249.00	-55.970	85.861	
250.00	-55.321	68.178	
251.00	-54.865	52.112	
252.00	-54.378	34.170	
253.00	-53.980	15.312	
254.00	-53.579	-2.443	
255.00	-53.838	-22.405	
256.00	-53.976	-40.406	
257.00	-54.661	-66.918	
258.00	-54.800	-90.616	
259.00	-55.297	-117.896	
260.00	-55.632	-144.350	
261.00	-55.495	-173.357	
262.00	-55.717	161.007	
263.00	-56.345	136.551	
264.00	-56.816	109.953	
265.00	-57.029	85.580	
266.00	-57.906	59.215	
267.00	-58.160	28.774	
268.00	-59.251	0.248	
269.00	-59.255	-29.413	
270.00	-59.369	-53.392	
271.00	-60.768	-78.411	
272.00	-61.843	-103.983	
273.00	-64.736	-133.704	
274.00	-66.263	-173.334	
275.00	-64.827	141.940	
276.00	-64.657	105.804	
277.00	-62.929	76.719	
278.00	-63.123	54.690	
279.00	-61.579	24.936	
280.00	-63.308	12.575	
281.00	-63.862	-9.213	
282.00	-65.876	-21.742	
283.00	-68.377	-41.880	
284.00	-72.197	-67.511	
285.00	-77.412	16.084	
286.00	-74.083	41.042	
287.00	-67.488	44.916	
288.00	-66.084	14.219	
289.00	-64.884	0.521	
290.00	-63.840	-22.659	
291.00	-64.310	-44.574	
292.00	-64.983	-74.827	
293.00	-66.462	-100.434	
294.00	-64.324	-127.995	
295.00	-65.355	-164.223	
296.00	-67.410	169.873	
297.00	-65.577	142.663	
298.00	-68.782	113.888	
299.00	-70.392	108.298	
300.00	-69.141	61.681	
301.00	-71.677	64.708	
302.00	-72.171	42.707	
303.00	-74.303	48.322	
304.00	-73.272	73.346	
305.00	-71.610	63.884	
306.00	-70.758	71.123	
307.00	-70.320	56.139	
308.00	-69.520	9.978	
309.00	-70.059	-31.153	
310.00	-68.171	-80.840	
311.00	-65.742	-95.837	
312.00	-63.301	-112.369	
313.00	-63.545	-137.347	
314.00	-63.110	-146.002	
315.00	-62.708	-156.160	
316.00	-64.274	-173.779	
317.00	-63.806	169.929	
318.00	-64.647	166.523	
319.00	-66.122	144.891	
320.00	-67.260	130.589	
321.00	-68.880	121.859	
322.00	-73.616	124.211	
323.00	-73.596	125.445	
324.00	-74.930	-174.079	
325.00	-70.291	166.477	
326.00	-69.632	151.941	
327.00	-70.325	117.648	
328.00	-70.309	98.154	
329.00	-69.837	65.752	
330.00	-67.216	40.153	
331.00	-70.504	34.232	
332.00	-69.420	27.251	
333.00	-70.558	26.454	
334.00	-71.272	17.512	
335.00	-72.164	21.745	
336.00	-68.513	0.410	
337.00	-70.140	-30.482	
338.00	-68.489	-47.632	
339.00	-64.139	-54.958	
340.00	-66.442	-78.030	
341.00	-63.091	-72.302	
342.00	-62.753	-76.156	
343.00	-60.595	-93.726	
344.00	-62.344	-93.612	
345.00	-67.855	-104.231	
346.00	-71.923	-144.221	
347.00	-79.218	-123.187	
348.00	-74.214	132.121	
349.00	-71.317	100.893	
350.00	-77.271	106.126	
351.00	-66.741	86.707	
352.00	-71.362	19.491	
353.00	-77.302	-51.087	
354.00	-72.883	-89.763	
355.00	-81.742	165.101	
356.00	-68.985	-131.073	
357.00	-68.874	-157.041	
358.00	-74.155	162.998	
359.00	-69.900	146.827	
