Test Title:	Alpha Wireless Indoor Range						
Date:	02/11/2017						
Time:	16:54						
Operator Name:	FL						
Comment:	Version 2 Run 2
Cable length changed						
Caib. File Name:	C:\Program Files\Midas 2.01d\Calibration Files\test sigma 180900.cal						
							
[Scan Axis] Name: 	Azimuth  [deg]Start: 	0.000000	Stop	359.000000	Increment	1.000000[Step Axis] Name: 	Start: 	0.000000	Stop	0.000000	Increment	0.000000[Tert] Name: 	None [Forth] Name: 	None  [ Freq.]  (List) 	MHz.	1694.000000	1710.000000	1800.000000	1850.000000	1950.000000	2050.000000	2170.000000	2300.000000	2350.000000	2400.000000	2450.000000	2496.000000	2550.000000	2600.000000	2650.000000	2700.000000
 [Switch]  	None [Channel]  	test			 [ Beam] 	None			
Database:			
First Question			
2nd			
3rd			
4th			
			
Frequency	1694.00	MHz	
Channel	test		
Scan Axis name	Azimuth  [deg]		
Scan Axis	Amplitude	Phase	
			
0.00	-55.504	120.810	
1.00	-54.699	116.129	
2.00	-53.441	101.577	
3.00	-52.515	90.629	
4.00	-52.299	86.046	
5.00	-51.510	74.137	
6.00	-51.532	70.315	
7.00	-51.606	64.054	
8.00	-52.613	63.080	
9.00	-53.286	52.916	
10.00	-54.356	50.466	
11.00	-56.638	39.136	
12.00	-57.042	33.977	
13.00	-58.895	25.320	
14.00	-60.001	4.661	
15.00	-59.226	-12.340	
16.00	-58.916	-5.843	
17.00	-58.975	0.598	
18.00	-58.328	-0.670	
19.00	-58.410	1.197	
20.00	-58.198	13.653	
21.00	-57.854	22.438	
22.00	-57.916	27.225	
23.00	-58.261	24.366	
24.00	-59.225	33.091	
25.00	-61.317	31.352	
26.00	-66.109	52.149	
27.00	-71.018	50.120	
28.00	-79.828	-126.110	
29.00	-68.181	-149.179	
30.00	-63.959	-147.681	
31.00	-61.593	-133.433	
32.00	-60.520	-131.581	
33.00	-60.713	-131.049	
34.00	-61.409	-133.614	
35.00	-62.550	-143.105	
36.00	-66.220	-154.227	
37.00	-63.810	161.137	
38.00	-61.921	150.059	
39.00	-60.140	143.930	
40.00	-58.655	139.410	
41.00	-58.010	141.944	
42.00	-57.823	136.267	
43.00	-57.782	130.885	
44.00	-58.320	127.614	
45.00	-58.576	117.671	
46.00	-58.490	107.558	
47.00	-59.720	103.595	
48.00	-59.139	87.856	
49.00	-59.557	87.650	
50.00	-59.007	82.927	
51.00	-59.600	81.034	
52.00	-59.742	84.578	
53.00	-59.758	78.054	
54.00	-61.698	82.051	
55.00	-61.117	80.779	
56.00	-61.552	83.087	
57.00	-61.780	86.183	
58.00	-60.401	94.120	
59.00	-60.975	109.214	
60.00	-60.490	115.818	
61.00	-58.753	129.000	
62.00	-59.220	136.442	
63.00	-58.854	145.768	
64.00	-58.517	156.206	
65.00	-58.933	174.449	
66.00	-60.576	-174.654	
67.00	-61.116	-165.993	
68.00	-62.097	-150.607	
69.00	-64.695	-128.796	
70.00	-65.864	-106.222	
71.00	-67.924	-78.611	
72.00	-68.975	-59.494	
73.00	-71.232	-6.241	
74.00	-69.677	33.418	
75.00	-70.031	84.042	
76.00	-67.562	113.136	
77.00	-63.931	113.362	
78.00	-63.217	142.196	
79.00	-60.861	160.834	
80.00	-59.796	-177.036	
81.00	-58.696	-168.804	
82.00	-57.162	-152.397	
83.00	-57.600	-138.837	
84.00	-58.296	-118.005	
85.00	-55.807	-116.066	
86.00	-54.335	-103.754	
87.00	-56.963	-80.988	
88.00	-58.499	-59.785	
89.00	-56.792	-46.487	
90.00	-53.684	-36.543	
91.00	-50.983	-32.786	
92.00	-54.413	-26.135	
93.00	-52.717	2.127	
94.00	-53.433	12.553	
95.00	-52.547	28.193	
96.00	-53.210	31.298	
97.00	-53.032	51.892	
98.00	-52.905	63.655	
99.00	-53.887	75.117	
100.00	-54.036	92.149	
101.00	-55.177	116.318	
102.00	-56.916	140.247	
103.00	-56.784	167.007	
104.00	-55.438	-167.155	
105.00	-53.966	-141.420	
106.00	-52.294	-125.414	
107.00	-51.059	-106.283	
108.00	-49.774	-94.128	
109.00	-49.016	-82.438	
110.00	-48.398	-72.734	
111.00	-47.706	-60.831	
112.00	-47.830	-50.794	
113.00	-48.071	-37.752	
114.00	-48.161	-26.699	
115.00	-48.915	-13.037	
116.00	-49.312	1.369	
117.00	-49.931	15.091	
118.00	-50.688	30.772	
119.00	-51.444	48.618	
120.00	-52.372	65.847	
121.00	-53.188	85.947	
122.00	-53.764	108.929	
123.00	-53.762	125.336	
124.00	-55.369	143.177	
125.00	-55.116	162.530	
126.00	-54.215	179.821	
127.00	-53.775	-172.466	
128.00	-54.433	-156.523	
129.00	-53.330	-147.915	
130.00	-54.839	-140.297	
131.00	-53.563	-143.830	
132.00	-53.973	-145.274	
133.00	-53.500	-150.183	
134.00	-52.031	-151.256	
135.00	-50.944	-149.984	
136.00	-49.316	-152.208	
137.00	-48.397	-149.070	
138.00	-47.233	-144.661	
139.00	-46.333	-140.397	
140.00	-45.992	-135.379	
141.00	-45.749	-132.526	
142.00	-45.967	-128.639	
143.00	-46.446	-123.123	
144.00	-47.560	-118.802	
145.00	-49.060	-113.427	
146.00	-52.197	-109.002	
147.00	-55.991	-94.452	
148.00	-63.746	-52.187	
149.00	-59.195	41.339	
150.00	-53.458	59.815	
151.00	-49.910	64.714	
152.00	-47.905	68.942	
153.00	-45.949	70.173	
154.00	-45.120	71.814	
155.00	-44.357	72.271	
156.00	-43.866	68.952	
157.00	-43.944	67.039	
158.00	-43.853	62.380	
159.00	-44.044	59.075	
160.00	-44.535	52.961	
161.00	-45.242	46.733	
162.00	-46.250	39.320	
163.00	-48.071	29.662	
164.00	-50.155	13.972	
165.00	-53.508	-19.886	
166.00	-53.230	-65.555	
167.00	-48.809	-97.148	
168.00	-45.219	-110.936	
169.00	-42.762	-119.403	
170.00	-41.255	-125.788	
171.00	-39.844	-131.423	
172.00	-39.324	-137.816	
173.00	-39.403	-146.043	
174.00	-39.566	-159.067	
175.00	-39.910	-177.236	
176.00	-39.315	161.043	
177.00	-37.820	139.822	
178.00	-35.880	123.615	
179.00	-33.887	112.542	
180.00	-32.134	104.223	
181.00	-30.751	97.855	
182.00	-29.707	93.226	
183.00	-28.988	89.093	
184.00	-28.596	84.724	
185.00	-28.539	80.439	
186.00	-28.724	76.162	
187.00	-29.215	71.414	
188.00	-30.013	66.298	
189.00	-31.085	60.764	
190.00	-32.566	53.924	
191.00	-34.436	45.452	
192.00	-36.573	31.939	
193.00	-38.996	18.767	
194.00	-41.145	-1.306	
195.00	-42.571	-26.907	
196.00	-43.168	-47.165	
197.00	-43.069	-61.805	
198.00	-43.456	-70.527	
199.00	-44.029	-74.424	
200.00	-45.051	-70.087	
201.00	-45.812	-59.902	
202.00	-46.147	-45.986	
203.00	-45.411	-33.303	
204.00	-43.854	-26.308	
205.00	-42.752	-24.512	
206.00	-41.709	-25.799	
207.00	-41.455	-29.948	
208.00	-41.532	-35.107	
209.00	-42.005	-42.232	
210.00	-42.671	-50.157	
211.00	-43.724	-59.494	
212.00	-45.330	-72.780	
213.00	-46.963	-84.005	
214.00	-49.295	-98.210	
215.00	-50.886	-114.395	
216.00	-53.523	-133.387	
217.00	-56.755	-152.207	
218.00	-61.049	-149.349	
219.00	-65.477	-130.533	
220.00	-60.802	-77.123	
221.00	-55.302	-76.767	
222.00	-51.939	-83.767	
223.00	-49.168	-88.767	
224.00	-47.118	-99.807	
225.00	-45.320	-110.555	
226.00	-44.235	-119.563	
227.00	-42.759	-127.175	
228.00	-41.903	-137.817	
229.00	-41.664	-146.072	
230.00	-41.216	-153.331	
231.00	-41.534	-161.607	
232.00	-41.589	-171.724	
233.00	-41.970	179.859	
234.00	-42.341	170.285	
235.00	-43.027	159.992	
236.00	-43.789	149.681	
237.00	-44.733	140.416	
238.00	-45.574	129.687	
239.00	-46.020	120.774	
240.00	-47.105	109.892	
241.00	-47.438	96.430	
242.00	-47.830	89.899	
243.00	-48.740	80.223	
244.00	-47.841	67.956	
245.00	-49.144	63.622	
246.00	-49.439	54.984	
247.00	-49.470	50.702	
248.00	-50.192	45.320	
249.00	-50.659	44.924	
250.00	-51.266	35.983	
251.00	-52.101	37.281	
252.00	-53.420	33.093	
253.00	-53.969	28.842	
254.00	-54.749	19.713	
255.00	-55.667	19.656	
256.00	-56.399	15.760	
257.00	-57.537	10.036	
258.00	-58.249	3.855	
259.00	-58.843	1.250	
260.00	-59.033	-7.476	
261.00	-59.616	-14.349	
262.00	-59.451	-16.517	
263.00	-59.438	-27.888	
264.00	-59.634	-34.042	
265.00	-60.013	-43.147	
266.00	-61.566	-48.403	
267.00	-62.217	-54.678	
268.00	-63.379	-66.385	
269.00	-64.496	-79.693	
270.00	-65.549	-101.875	
271.00	-66.942	-122.180	
272.00	-67.375	-137.849	
273.00	-68.878	-165.152	
274.00	-70.560	-169.327	
275.00	-70.889	165.425	
276.00	-75.758	-174.270	
277.00	-85.253	97.324	
278.00	-78.983	-2.211	
279.00	-71.158	-11.298	
280.00	-70.095	-39.559	
281.00	-64.094	-47.717	
282.00	-65.074	-60.574	
283.00	-64.492	-63.785	
284.00	-62.581	-75.276	
285.00	-62.664	-79.155	
286.00	-64.432	-76.981	
287.00	-63.651	-90.915	
288.00	-64.816	-82.490	
289.00	-64.707	-80.530	
290.00	-66.167	-64.246	
291.00	-63.841	-63.828	
292.00	-65.094	-57.466	
293.00	-62.872	-48.610	
294.00	-61.375	-57.409	
295.00	-59.986	-64.850	
296.00	-59.775	-73.997	
297.00	-60.119	-83.362	
298.00	-59.813	-98.129	
299.00	-59.657	-111.928	
300.00	-61.550	-132.512	
301.00	-61.390	-148.732	
302.00	-61.274	-167.041	
303.00	-60.849	168.093	
304.00	-59.572	152.262	
305.00	-58.291	139.249	
306.00	-57.912	129.804	
307.00	-57.968	116.605	
308.00	-56.931	104.571	
309.00	-57.367	101.950	
310.00	-56.824	95.400	
311.00	-56.912	84.953	
312.00	-57.485	86.321	
313.00	-56.937	77.767	
314.00	-58.767	70.882	
315.00	-58.934	61.439	
316.00	-59.849	59.962	
317.00	-62.271	49.329	
318.00	-63.710	28.730	
319.00	-68.717	-0.009	
320.00	-67.372	-32.911	
321.00	-66.591	-78.980	
322.00	-63.395	-100.216	
323.00	-61.692	-116.270	
324.00	-59.475	-128.914	
325.00	-57.932	-141.018	
326.00	-57.276	-148.090	
327.00	-56.831	-158.153	
328.00	-56.228	-165.264	
329.00	-55.585	-173.924	
330.00	-55.460	176.981	
331.00	-55.327	167.187	
332.00	-55.709	159.511	
333.00	-55.840	151.100	
334.00	-56.177	142.335	
335.00	-56.011	130.411	
336.00	-57.548	113.276	
337.00	-56.945	95.124	
338.00	-56.757	84.878	
339.00	-56.834	68.604	
340.00	-56.856	52.406	
341.00	-56.837	42.981	
342.00	-56.801	28.408	
343.00	-56.587	20.373	
344.00	-56.993	10.583	
345.00	-57.533	-1.404	
346.00	-58.004	-13.853	
347.00	-58.126	-22.576	
348.00	-58.989	-28.299	
349.00	-59.055	-38.098	
350.00	-60.110	-49.637	
351.00	-60.414	-66.236	
352.00	-62.073	-79.585	
353.00	-61.323	-106.314	
354.00	-61.406	-126.121	
355.00	-59.677	-132.936	
356.00	-59.145	-160.809	
357.00	-58.783	177.767	
358.00	-58.759	157.350	
359.00	-56.787	138.833	
Frequency	1710.00	MHz	
Channel	test		
Scan Axis name	Azimuth  [deg]		
Scan Axis	Amplitude	Phase	
			
0.00	-60.847	38.619	
1.00	-59.725	13.287	
2.00	-56.355	47.277	
3.00	-56.830	28.156	
4.00	-54.849	22.490	
5.00	-55.357	10.793	
6.00	-56.107	9.835	
7.00	-56.165	-2.847	
8.00	-55.641	-1.799	
9.00	-54.082	-1.521	
10.00	-55.589	-12.710	
11.00	-55.659	0.597	
12.00	-55.706	3.948	
13.00	-57.534	-11.740	
14.00	-59.233	-7.131	
15.00	-58.098	-5.313	
16.00	-59.888	-34.078	
17.00	-59.776	-7.500	
18.00	-60.075	4.576	
19.00	-58.175	-12.038	
20.00	-60.499	-5.936	
21.00	-62.639	-26.207	
22.00	-65.792	13.390	
23.00	-72.810	-18.391	
24.00	-65.971	-16.824	
25.00	-59.781	-28.668	
26.00	-68.317	-82.209	
27.00	-73.246	53.989	
28.00	-69.461	144.421	
29.00	-63.605	147.986	
30.00	-60.106	174.565	
31.00	-56.955	157.312	
32.00	-58.214	166.102	
33.00	-54.957	170.308	
34.00	-55.657	179.536	
35.00	-55.591	175.584	
36.00	-55.401	-167.698	
37.00	-58.355	172.160	
38.00	-59.182	-175.657	
39.00	-60.355	-167.710	
40.00	-65.162	-163.328	
41.00	-63.233	-103.718	
42.00	-65.166	-92.424	
43.00	-64.339	-63.571	
44.00	-68.598	22.470	
45.00	-62.810	-8.818	
46.00	-62.115	21.491	
47.00	-68.500	-6.955	
48.00	-56.877	42.829	
49.00	-56.918	61.045	
50.00	-58.149	71.541	
51.00	-58.737	83.499	
52.00	-57.312	107.592	
53.00	-57.344	106.984	
54.00	-59.292	130.502	
55.00	-57.057	140.866	
56.00	-60.483	131.580	
57.00	-61.630	154.528	
58.00	-62.530	128.673	
59.00	-73.378	68.611	
60.00	-64.610	71.022	
61.00	-62.278	66.362	
62.00	-60.303	75.797	
63.00	-60.911	86.911	
64.00	-58.780	104.950	
65.00	-58.496	122.013	
66.00	-58.148	135.583	
67.00	-59.576	163.948	
68.00	-58.036	172.935	
69.00	-57.983	-167.034	
70.00	-56.794	-135.997	
71.00	-58.025	-125.004	
72.00	-56.283	-110.018	
73.00	-57.487	-95.029	
74.00	-57.792	-86.401	
75.00	-58.607	-68.293	
76.00	-59.707	-50.807	
77.00	-59.410	-33.435	
78.00	-59.034	-14.164	
79.00	-62.179	1.457	
80.00	-65.277	52.234	
81.00	-68.099	20.711	
82.00	-62.306	131.138	
83.00	-57.703	142.047	
84.00	-62.306	172.294	
85.00	-57.727	-161.223	
86.00	-52.946	-153.750	
87.00	-55.699	-154.457	
88.00	-52.101	-134.697	
89.00	-52.432	-115.814	
90.00	-49.945	-102.618	
91.00	-51.842	-92.243	
92.00	-50.806	-81.067	
93.00	-50.036	-75.152	
94.00	-51.400	-54.127	
95.00	-50.776	-37.526	
96.00	-51.218	-16.764	
97.00	-51.288	0.706	
98.00	-51.870	17.889	
99.00	-51.778	36.025	
100.00	-50.668	57.957	
101.00	-50.417	82.158	
102.00	-49.844	102.328	
103.00	-49.231	116.668	
104.00	-49.359	133.840	
105.00	-48.785	147.292	
106.00	-48.763	167.254	
107.00	-48.670	-173.619	
108.00	-48.066	-163.178	
109.00	-47.815	-137.217	
110.00	-47.619	-122.529	
111.00	-48.530	-109.065	
112.00	-48.923	-95.983	
113.00	-49.318	-76.845	
114.00	-50.401	-60.200	
115.00	-49.292	-40.468	
116.00	-51.753	-16.137	
117.00	-52.488	9.504	
118.00	-52.154	34.878	
119.00	-51.355	60.561	
120.00	-50.399	83.031	
121.00	-49.320	101.754	
122.00	-48.992	120.127	
123.00	-48.619	132.597	
124.00	-47.699	145.007	
125.00	-48.789	152.870	
126.00	-48.612	160.263	
127.00	-49.760	168.476	
128.00	-51.940	168.657	
129.00	-53.767	155.346	
130.00	-53.587	137.371	
131.00	-51.451	124.826	
132.00	-49.126	120.376	
133.00	-47.045	122.552	
134.00	-45.114	129.392	
135.00	-43.548	136.731	
136.00	-42.225	146.374	
137.00	-41.282	155.839	
138.00	-40.614	164.927	
139.00	-40.151	176.514	
140.00	-39.950	-172.925	
141.00	-40.066	-161.044	
142.00	-40.281	-148.095	
143.00	-40.787	-136.119	
144.00	-41.445	-119.961	
145.00	-42.218	-104.018	
146.00	-43.129	-88.414	
147.00	-44.029	-65.870	
148.00	-44.511	-45.580	
149.00	-44.826	-22.876	
150.00	-44.706	-1.912	
151.00	-44.704	14.266	
152.00	-44.419	31.436	
153.00	-44.425	43.485	
154.00	-44.431	55.233	
155.00	-45.283	61.693	
156.00	-46.162	66.714	
157.00	-47.805	67.624	
158.00	-50.200	58.056	
159.00	-52.285	41.919	
160.00	-52.275	20.242	
161.00	-52.059	1.654	
162.00	-51.157	-3.318	
163.00	-51.702	-5.426	
164.00	-53.883	12.722	
165.00	-61.566	39.116	
166.00	-60.800	147.292	
167.00	-50.843	158.610	
168.00	-47.030	171.105	
169.00	-44.093	170.472	
170.00	-42.680	170.802	
171.00	-42.136	166.936	
172.00	-41.990	159.076	
173.00	-41.896	141.389	
174.00	-41.005	116.763	
175.00	-38.589	95.247	
176.00	-35.515	81.871	
177.00	-32.812	74.566	
178.00	-30.566	70.904	
179.00	-28.701	68.680	
180.00	-27.298	68.117	
181.00	-26.179	67.582	
182.00	-25.546	67.535	
183.00	-25.207	67.592	
184.00	-25.045	68.189	
185.00	-25.294	68.615	
186.00	-25.905	69.019	
187.00	-26.810	69.417	
188.00	-28.186	70.660	
189.00	-30.012	71.312	
190.00	-32.479	73.919	
191.00	-36.048	77.689	
192.00	-41.223	90.988	
193.00	-47.987	132.788	
194.00	-45.576	-157.197	
195.00	-41.248	-135.250	
196.00	-39.113	-127.029	
197.00	-38.186	-121.587	
198.00	-38.183	-115.487	
199.00	-38.969	-106.529	
200.00	-39.925	-95.695	
201.00	-40.867	-79.115	
202.00	-41.281	-59.490	
203.00	-40.813	-43.600	
204.00	-40.192	-31.469	
205.00	-39.769	-24.015	
206.00	-39.727	-19.385	
207.00	-40.313	-17.678	
208.00	-41.567	-16.391	
209.00	-43.800	-17.572	
210.00	-47.771	-20.672	
211.00	-55.456	-31.455	
212.00	-60.785	-159.861	
213.00	-50.159	174.209	
214.00	-46.028	171.931	
215.00	-43.780	169.952	
216.00	-42.461	168.550	
217.00	-41.738	168.701	
218.00	-41.739	169.667	
219.00	-41.650	171.722	
220.00	-41.729	175.017	
221.00	-41.972	178.725	
222.00	-41.965	-177.005	
223.00	-41.859	-173.921	
224.00	-41.608	-171.044	
225.00	-41.269	-169.571	
226.00	-40.818	-170.129	
227.00	-40.375	-172.067	
228.00	-40.116	-175.827	
229.00	-39.906	179.951	
230.00	-39.732	175.508	
231.00	-39.524	170.344	
232.00	-39.596	164.957	
233.00	-39.706	158.970	
234.00	-39.730	154.161	
235.00	-39.911	148.899	
236.00	-40.273	143.696	
237.00	-40.497	138.531	
238.00	-40.923	133.966	
239.00	-41.350	129.612	
240.00	-41.650	124.699	
241.00	-41.947	120.407	
242.00	-42.353	115.618	
243.00	-42.655	110.665	
244.00	-42.936	106.294	
245.00	-43.016	101.269	
246.00	-43.334	96.124	
247.00	-43.404	89.717	
248.00	-43.313	84.715	
249.00	-43.507	77.953	
250.00	-43.511	72.527	
251.00	-43.628	64.578	
252.00	-43.959	55.719	
253.00	-43.767	46.325	
254.00	-44.086	37.201	
255.00	-44.398	27.315	
256.00	-44.525	14.658	
257.00	-44.234	5.386	
258.00	-44.584	-7.519	
259.00	-44.602	-16.895	
260.00	-44.935	-29.382	
261.00	-45.420	-39.040	
262.00	-45.769	-54.450	
263.00	-46.434	-67.629	
264.00	-46.880	-81.596	
265.00	-47.456	-102.819	
266.00	-47.396	-116.227	
267.00	-47.904	-134.628	
268.00	-47.791	-150.595	
269.00	-47.723	-165.967	
270.00	-48.175	179.366	
271.00	-48.404	163.680	
272.00	-48.730	149.479	
273.00	-49.377	131.543	
274.00	-50.035	115.289	
275.00	-50.873	93.604	
276.00	-51.825	76.607	
277.00	-51.312	55.415	
278.00	-51.328	30.136	
279.00	-51.517	8.046	
280.00	-52.331	-12.760	
281.00	-52.454	-27.663	
282.00	-52.409	-50.551	
283.00	-53.061	-76.991	
284.00	-51.709	-97.134	
285.00	-51.925	-119.964	
286.00	-51.608	-137.942	
287.00	-51.041	-157.238	
288.00	-51.068	-169.065	
289.00	-52.266	169.785	
290.00	-53.387	163.853	
291.00	-54.212	140.682	
292.00	-56.616	119.005	
293.00	-58.597	89.657	
294.00	-60.916	52.165	
295.00	-61.256	6.105	
296.00	-60.329	-33.870	
297.00	-56.518	-51.122	
298.00	-54.941	-66.560	
299.00	-54.380	-87.614	
300.00	-53.615	-96.014	
301.00	-54.238	-108.746	
302.00	-55.910	-117.179	
303.00	-57.067	-140.573	
304.00	-57.291	-140.412	
305.00	-60.276	-149.792	
306.00	-60.283	-151.656	
307.00	-74.806	-112.926	
308.00	-70.271	127.869	
309.00	-79.810	-4.800	
310.00	-72.830	89.289	
311.00	-64.669	45.097	
312.00	-65.526	34.998	
313.00	-64.812	69.644	
314.00	-63.077	76.201	
315.00	-62.933	42.871	
316.00	-62.737	26.827	
317.00	-60.468	51.328	
318.00	-59.336	22.890	
319.00	-57.927	10.361	
320.00	-57.906	-4.502	
321.00	-62.243	-18.385	
322.00	-59.493	-63.350	
323.00	-63.000	-50.170	
324.00	-66.075	-104.622	
325.00	-64.408	-97.552	
326.00	-64.746	-90.038	
327.00	-72.441	-113.285	
328.00	-62.692	-130.156	
329.00	-64.609	-146.440	
330.00	-65.333	-153.093	
331.00	-57.733	154.575	
332.00	-58.605	162.461	
333.00	-57.952	132.523	
334.00	-55.978	148.227	
335.00	-57.198	141.857	
336.00	-59.214	117.718	
337.00	-57.823	114.978	
338.00	-58.966	63.049	
339.00	-62.939	90.618	
340.00	-66.497	4.225	
341.00	-60.106	-51.106	
342.00	-64.669	-55.056	
343.00	-57.236	-51.995	
344.00	-60.173	-106.515	
345.00	-58.460	-90.212	
346.00	-56.309	-118.547	
347.00	-58.046	-135.017	
348.00	-65.478	-172.380	
349.00	-65.673	-141.695	
350.00	-61.608	-145.677	
351.00	-58.915	-170.902	
352.00	-64.468	154.890	
353.00	-65.315	153.027	
354.00	-61.429	145.344	
355.00	-58.964	126.782	
356.00	-62.622	125.225	
357.00	-61.092	124.236	
358.00	-64.821	77.042	
359.00	-63.170	13.950	
Frequency	1800.00	MHz	
Channel	test		
Scan Axis name	Azimuth  [deg]		
Scan Axis	Amplitude	Phase	
			
0.00	-59.354	41.220	
1.00	-57.544	30.553	
2.00	-56.449	32.567	
3.00	-56.568	25.304	
4.00	-57.479	16.795	
5.00	-59.184	-1.635	
6.00	-61.521	-21.334	
7.00	-62.401	-48.268	
8.00	-60.822	-79.642	
9.00	-59.728	-98.983	
10.00	-57.587	-111.987	
11.00	-56.664	-117.343	
12.00	-56.592	-120.282	
13.00	-56.660	-125.671	
14.00	-56.923	-116.038	
15.00	-58.635	-117.331	
16.00	-59.487	-114.323	
17.00	-60.992	-114.359	
18.00	-62.965	-115.624	
19.00	-63.512	-122.780	
20.00	-64.420	-128.832	
21.00	-64.475	-120.945	
22.00	-64.624	-113.926	
23.00	-63.132	-105.002	
24.00	-63.338	-90.697	
25.00	-63.130	-81.621	
26.00	-62.641	-68.154	
27.00	-63.312	-49.089	
28.00	-63.644	-35.989	
29.00	-63.412	-12.118	
30.00	-63.200	4.101	
31.00	-62.407	21.327	
32.00	-61.320	41.551	
33.00	-60.016	58.170	
34.00	-60.238	65.258	
35.00	-59.884	74.886	
36.00	-59.625	91.688	
37.00	-59.669	104.354	
38.00	-60.160	119.410	
39.00	-62.207	132.901	
40.00	-63.746	149.184	
41.00	-65.083	169.322	
42.00	-67.970	-173.850	
43.00	-70.140	-149.008	
44.00	-71.006	-151.412	
45.00	-71.115	-135.478	
46.00	-71.968	-154.127	
47.00	-72.055	-149.504	
48.00	-69.938	-144.404	
49.00	-67.183	-115.030	
50.00	-67.016	-110.540	
51.00	-66.862	-88.954	
52.00	-63.863	-52.722	
53.00	-60.552	-46.063	
54.00	-59.623	-18.092	
55.00	-58.948	-3.006	
56.00	-58.620	13.036	
57.00	-57.887	32.808	
58.00	-58.474	44.449	
59.00	-58.124	62.048	
60.00	-58.479	77.694	
61.00	-59.452	88.493	
62.00	-61.255	98.591	
63.00	-63.153	99.554	
64.00	-67.644	75.103	
65.00	-68.009	24.214	
66.00	-62.591	15.328	
67.00	-58.742	18.609	
68.00	-56.982	20.705	
69.00	-55.024	26.817	
70.00	-54.227	32.759	
71.00	-53.787	43.580	
72.00	-53.828	53.072	
73.00	-54.409	61.074	
74.00	-54.866	75.578	
75.00	-56.039	87.735	
76.00	-56.912	105.342	
77.00	-58.049	122.149	
78.00	-59.590	140.280	
79.00	-59.824	154.122	
80.00	-60.578	170.277	
81.00	-61.838	-176.330	
82.00	-62.971	179.082	
83.00	-62.292	-143.182	
84.00	-65.453	-153.748	
85.00	-61.595	-125.136	
86.00	-58.607	-153.423	
87.00	-72.528	-42.644	
88.00	-60.869	-109.427	
89.00	-58.146	-101.188	
90.00	-56.664	-61.837	
91.00	-55.996	-51.527	
92.00	-55.032	-41.683	
93.00	-53.146	-33.566	
94.00	-52.847	-24.578	
95.00	-51.676	-11.082	
96.00	-50.992	-3.135	
97.00	-50.623	12.063	
98.00	-50.741	23.515	
99.00	-50.743	37.020	
100.00	-51.153	51.940	
101.00	-52.471	75.412	
102.00	-53.304	100.296	
103.00	-54.218	131.635	
104.00	-53.487	167.903	
105.00	-51.845	-162.476	
106.00	-49.806	-138.624	
107.00	-47.790	-116.742	
108.00	-46.116	-99.641	
109.00	-44.567	-80.710	
110.00	-43.040	-65.986	
111.00	-41.723	-49.305	
112.00	-40.575	-36.236	
113.00	-39.537	-21.245	
114.00	-38.656	-8.130	
115.00	-38.025	5.183	
116.00	-37.455	17.900	
117.00	-37.058	30.781	
118.00	-36.944	43.780	
119.00	-36.930	57.112	
120.00	-37.131	71.009	
121.00	-37.409	84.502	
122.00	-37.929	99.820	
123.00	-38.649	114.808	
124.00	-39.348	131.248	
125.00	-40.310	147.847	
126.00	-41.531	165.579	
127.00	-43.092	-171.979	
128.00	-45.031	-150.005	
129.00	-46.828	-118.223	
130.00	-47.687	-78.024	
131.00	-46.640	-39.637	
132.00	-44.604	-10.074	
133.00	-42.694	14.047	
134.00	-41.044	32.229	
135.00	-39.836	49.454	
136.00	-38.858	65.539	
137.00	-38.202	80.656	
138.00	-37.763	95.673	
139.00	-37.493	111.294	
140.00	-37.383	126.692	
141.00	-37.407	141.438	
142.00	-37.525	157.990	
143.00	-37.812	174.124	
144.00	-38.216	-168.519	
145.00	-38.577	-150.010	
146.00	-38.853	-130.501	
147.00	-39.002	-109.395	
148.00	-38.834	-88.251	
149.00	-38.497	-68.442	
150.00	-37.987	-50.434	
151.00	-37.490	-34.361	
152.00	-37.182	-20.023	
153.00	-37.052	-6.791	
154.00	-37.323	5.719	
155.00	-37.603	18.712	
156.00	-38.216	31.496	
157.00	-38.983	44.954	
158.00	-39.702	57.960	
159.00	-40.314	72.051	
160.00	-40.970	85.272	
161.00	-41.168	95.647	
162.00	-41.426	103.293	
163.00	-41.532	107.730	
164.00	-41.427	108.187	
165.00	-41.094	107.133	
166.00	-40.498	104.525	
167.00	-39.546	102.593	
168.00	-38.665	102.114	
169.00	-37.751	103.426	
170.00	-37.007	106.778	
171.00	-36.364	112.141	
172.00	-35.756	119.295	
173.00	-35.120	128.010	
174.00	-34.302	137.064	
175.00	-33.298	145.568	
176.00	-32.190	153.361	
177.00	-30.925	159.194	
178.00	-29.758	163.518	
179.00	-28.638	166.422	
180.00	-27.690	167.993	
181.00	-26.852	168.885	
182.00	-26.218	168.922	
183.00	-25.789	168.164	
184.00	-25.574	166.544	
185.00	-25.562	165.353	
186.00	-25.783	163.716	
187.00	-26.298	161.588	
188.00	-27.070	159.979	
189.00	-28.223	158.408	
190.00	-29.824	156.804	
191.00	-31.980	155.054	
192.00	-34.771	155.278	
193.00	-38.776	158.048	
194.00	-44.609	172.318	
195.00	-50.232	-134.029	
196.00	-46.257	-87.478	
197.00	-43.159	-78.364	
198.00	-42.300	-79.462	
199.00	-42.528	-83.237	
200.00	-44.119	-90.558	
201.00	-47.171	-101.317	
202.00	-53.538	-128.181	
203.00	-55.659	138.753	
204.00	-49.113	98.672	
205.00	-45.464	84.734	
206.00	-43.780	72.301	
207.00	-43.083	61.297	
208.00	-43.444	50.886	
209.00	-44.768	35.089	
210.00	-47.041	12.004	
211.00	-49.523	-25.907	
212.00	-48.196	-73.988	
213.00	-45.045	-104.604	
214.00	-42.308	-123.698	
215.00	-40.267	-135.484	
216.00	-39.079	-144.707	
217.00	-38.329	-153.153	
218.00	-38.244	-158.284	
219.00	-38.446	-161.374	
220.00	-39.010	-162.836	
221.00	-39.768	-159.941	
222.00	-40.405	-152.395	
223.00	-40.306	-142.386	
224.00	-39.524	-134.850	
225.00	-38.161	-130.040	
226.00	-36.831	-130.346	
227.00	-35.570	-133.626	
228.00	-34.654	-139.140	
229.00	-33.873	-146.016	
230.00	-33.376	-154.198	
231.00	-33.020	-162.466	
232.00	-32.864	-171.526	
233.00	-32.886	178.979	
234.00	-33.103	169.449	
235.00	-33.494	159.628	
236.00	-33.966	149.645	
237.00	-34.685	139.791	
238.00	-35.536	129.199	
239.00	-36.601	119.155	
240.00	-37.761	109.109	
241.00	-39.153	98.557	
242.00	-40.677	88.807	
243.00	-42.396	79.077	
244.00	-44.242	68.845	
245.00	-46.329	60.740	
246.00	-48.367	55.852	
247.00	-50.353	53.770	
248.00	-51.655	54.640	
249.00	-53.221	60.869	
250.00	-52.703	68.040	
251.00	-52.264	64.602	
252.00	-51.623	61.357	
253.00	-50.731	55.989	
254.00	-50.361	44.718	
255.00	-49.992	33.675	
256.00	-49.870	21.055	
257.00	-49.623	6.591	
258.00	-49.493	-9.109	
259.00	-49.385	-24.131	
260.00	-49.162	-39.475	
261.00	-49.052	-56.344	
262.00	-49.121	-69.824	
263.00	-49.233	-85.931	
264.00	-49.417	-101.958	
265.00	-49.630	-116.604	
266.00	-50.212	-136.190	
267.00	-50.352	-155.463	
268.00	-50.490	-172.893	
269.00	-50.222	166.624	
270.00	-50.272	148.915	
271.00	-50.010	132.908	
272.00	-50.201	117.210	
273.00	-50.331	98.935	
274.00	-50.885	83.331	
275.00	-50.661	65.635	
276.00	-52.020	46.133	
277.00	-52.292	26.644	
278.00	-52.021	9.579	
279.00	-53.296	-22.527	
280.00	-52.869	-28.650	
281.00	-53.327	-49.312	
282.00	-53.405	-70.195	
283.00	-53.994	-85.765	
284.00	-55.495	-102.334	
285.00	-56.330	-131.015	
286.00	-57.764	-157.995	
287.00	-56.375	167.863	
288.00	-56.439	149.891	
289.00	-57.245	131.107	
290.00	-58.185	110.492	
291.00	-58.839	87.068	
292.00	-59.574	64.888	
293.00	-60.176	37.745	
294.00	-60.174	6.375	
295.00	-59.694	-16.103	
296.00	-59.777	-33.607	
297.00	-60.139	-52.197	
298.00	-59.477	-67.044	
299.00	-61.718	-81.819	
300.00	-65.675	-88.884	
301.00	-68.044	-136.096	
302.00	-69.496	144.190	
303.00	-66.619	129.078	
304.00	-66.130	107.803	
305.00	-63.057	101.538	
306.00	-61.547	89.376	
307.00	-61.294	78.391	
308.00	-60.395	71.677	
309.00	-59.055	64.579	
310.00	-58.239	55.777	
311.00	-57.275	51.039	
312.00	-57.031	41.525	
313.00	-55.778	28.972	
314.00	-55.545	19.164	
315.00	-54.985	7.726	
316.00	-54.775	-5.536	
317.00	-55.142	-19.389	
318.00	-55.753	-30.771	
319.00	-56.852	-47.591	
320.00	-58.612	-65.574	
321.00	-60.194	-90.573	
322.00	-62.175	-123.596	
323.00	-62.126	-151.298	
324.00	-63.250	175.602	
325.00	-62.235	150.098	
326.00	-62.136	123.884	
327.00	-61.668	101.228	
328.00	-61.536	75.233	
329.00	-60.739	50.168	
330.00	-59.629	23.857	
331.00	-58.417	5.601	
332.00	-56.694	-15.292	
333.00	-55.428	-30.913	
334.00	-53.861	-47.483	
335.00	-52.726	-60.222	
336.00	-51.784	-71.149	
337.00	-51.495	-81.974	
338.00	-51.149	-93.952	
339.00	-51.533	-103.880	
340.00	-52.082	-118.164	
341.00	-52.861	-133.894	
342.00	-53.938	-149.131	
343.00	-54.887	-166.484	
344.00	-56.148	172.951	
345.00	-56.901	152.473	
346.00	-57.994	138.049	
347.00	-59.255	116.609	
348.00	-60.804	99.784	
349.00	-63.674	77.393	
350.00	-67.592	36.537	
351.00	-69.081	-14.700	
352.00	-66.540	-57.433	
353.00	-62.986	-74.277	
354.00	-62.872	-86.923	
355.00	-61.856	-97.421	
356.00	-64.998	-109.403	
357.00	-71.634	-103.171	
358.00	-78.754	24.730	
359.00	-66.528	41.483	
Frequency	1850.00	MHz	
Channel	test		
Scan Axis name	Azimuth  [deg]		
Scan Axis	Amplitude	Phase	
			
0.00	-61.585	31.715	
1.00	-62.923	22.109	
2.00	-68.622	22.581	
3.00	-70.775	39.334	
4.00	-76.721	-136.720	
5.00	-69.601	-148.492	
6.00	-66.457	-146.452	
7.00	-63.915	-149.124	
8.00	-65.301	-152.570	
9.00	-67.506	-166.687	
10.00	-65.738	-168.232	
11.00	-71.088	-167.799	
12.00	-78.410	85.923	
13.00	-68.024	36.523	
14.00	-61.369	34.378	
15.00	-56.762	42.637	
16.00	-55.492	38.681	
17.00	-53.979	41.155	
18.00	-53.585	43.426	
19.00	-54.180	47.222	
20.00	-53.953	46.736	
21.00	-57.603	46.087	
22.00	-60.636	37.689	
23.00	-63.829	15.156	
24.00	-64.449	-6.205	
25.00	-63.767	-31.886	
26.00	-63.151	-43.415	
27.00	-61.628	-53.425	
28.00	-60.152	-75.391	
29.00	-58.161	-53.882	
30.00	-54.386	-52.328	
31.00	-56.883	-51.036	
32.00	-56.947	-43.571	
33.00	-55.885	-48.688	
34.00	-59.203	-29.035	
35.00	-61.712	-9.746	
36.00	-67.031	-7.862	
37.00	-65.991	56.738	
38.00	-67.258	53.108	
39.00	-66.512	78.268	
40.00	-65.239	92.160	
41.00	-66.008	105.797	
42.00	-64.390	97.337	
43.00	-64.616	103.026	
44.00	-64.258	133.385	
45.00	-65.732	158.340	
46.00	-68.058	-147.636	
47.00	-62.240	-131.034	
48.00	-57.117	-99.110	
49.00	-57.547	-82.974	
50.00	-55.817	-78.900	
51.00	-53.339	-33.253	
52.00	-54.549	-29.776	
53.00	-53.395	-29.159	
54.00	-55.573	5.144	
55.00	-56.126	22.484	
56.00	-58.832	51.146	
57.00	-61.679	78.508	
58.00	-63.424	134.189	
59.00	-61.052	-165.156	
60.00	-57.178	-133.696	
61.00	-54.871	-112.675	
62.00	-52.678	-95.512	
63.00	-51.414	-80.491	
64.00	-50.717	-67.153	
65.00	-50.417	-54.883	
66.00	-50.643	-41.732	
67.00	-51.192	-27.985	
68.00	-52.861	-15.859	
69.00	-55.211	0.838	
70.00	-57.907	20.373	
71.00	-61.267	48.167	
72.00	-63.882	94.318	
73.00	-62.689	147.878	
74.00	-61.589	169.263	
75.00	-59.692	-170.674	
76.00	-59.141	-160.271	
77.00	-59.139	-140.425	
78.00	-60.629	-123.945	
79.00	-60.187	-103.794	
80.00	-64.516	-65.961	
81.00	-64.401	-36.003	
82.00	-63.227	17.083	
83.00	-64.496	36.411	
84.00	-61.653	55.059	
85.00	-61.303	71.805	
86.00	-60.089	100.418	
87.00	-58.334	126.194	
88.00	-57.500	139.027	
89.00	-56.637	148.180	
90.00	-56.083	171.915	
91.00	-55.337	-177.568	
92.00	-55.642	-169.175	
93.00	-56.251	-154.113	
94.00	-55.713	-135.006	
95.00	-55.877	-106.771	
96.00	-53.137	-99.878	
97.00	-55.827	-86.305	
98.00	-54.801	-73.816	
99.00	-54.246	-62.843	
100.00	-53.869	-50.835	
101.00	-53.807	-36.366	
102.00	-53.403	-23.086	
103.00	-53.440	-12.195	
104.00	-55.129	10.360	
105.00	-53.055	12.704	
106.00	-52.640	25.607	
107.00	-51.916	38.671	
108.00	-50.947	48.634	
109.00	-50.163	62.175	
110.00	-49.157	70.665	
111.00	-48.454	83.103	
112.00	-47.622	91.975	
113.00	-46.553	103.313	
114.00	-45.929	113.857	
115.00	-45.288	125.204	
116.00	-44.736	136.845	
117.00	-43.986	148.518	
118.00	-43.455	160.725	
119.00	-42.710	171.285	
120.00	-42.145	-177.330	
121.00	-41.730	-167.529	
122.00	-41.277	-157.546	
123.00	-41.042	-147.280	
124.00	-40.912	-136.871	
125.00	-40.901	-128.387	
126.00	-41.109	-120.160	
127.00	-41.553	-114.402	
128.00	-42.345	-105.318	
129.00	-43.103	-101.272	
130.00	-45.123	-102.639	
131.00	-46.606	-104.387	
132.00	-48.531	-119.127	
133.00	-49.022	-141.114	
134.00	-47.394	-159.593	
135.00	-45.125	-166.975	
136.00	-43.170	-166.996	
137.00	-41.686	-164.212	
138.00	-40.609	-158.965	
139.00	-39.928	-152.154	
140.00	-39.529	-144.065	
141.00	-39.228	-135.619	
142.00	-39.214	-126.766	
143.00	-39.435	-118.395	
144.00	-39.957	-109.474	
145.00	-40.809	-101.811	
146.00	-41.999	-94.082	
147.00	-43.712	-86.714	
148.00	-46.254	-79.630	
149.00	-50.156	-72.395	
150.00	-55.867	-64.904	
151.00	-67.719	-67.232	
152.00	-63.527	143.884	
153.00	-58.355	153.877	
154.00	-56.240	173.865	
155.00	-54.888	-160.371	
156.00	-52.607	-133.468	
157.00	-49.881	-111.352	
158.00	-47.080	-97.740	
159.00	-44.717	-88.269	
160.00	-42.803	-82.897	
161.00	-41.465	-79.653	
162.00	-40.472	-76.662	
163.00	-39.873	-77.634	
164.00	-39.721	-79.264	
165.00	-39.955	-82.620	
166.00	-40.710	-87.972	
167.00	-41.914	-97.349	
168.00	-43.369	-112.380	
169.00	-45.283	-129.184	
170.00	-46.648	-153.753	
171.00	-47.693	178.155	
172.00	-47.983	148.288	
173.00	-48.055	102.092	
174.00	-44.975	59.229	
175.00	-40.727	34.211	
176.00	-36.890	18.236	
177.00	-33.638	6.872	
178.00	-30.966	-0.946	
179.00	-28.785	-7.361	
180.00	-26.974	-12.849	
181.00	-25.591	-17.957	
182.00	-24.547	-22.546	
183.00	-23.838	-27.129	
184.00	-23.428	-31.871	
185.00	-23.361	-36.648	
186.00	-23.539	-41.686	
187.00	-24.040	-47.282	
188.00	-24.843	-53.479	
189.00	-25.987	-60.501	
190.00	-27.448	-68.364	
191.00	-29.363	-78.461	
192.00	-31.598	-91.558	
193.00	-34.443	-107.707	
194.00	-36.692	-132.571	
195.00	-38.816	-161.460	
196.00	-39.066	173.405	
197.00	-39.109	151.659	
198.00	-39.566	136.209	
199.00	-40.505	123.092	
200.00	-42.178	115.702	
201.00	-44.887	112.130	
202.00	-48.201	117.899	
203.00	-51.262	140.520	
204.00	-50.538	171.429	
205.00	-48.318	-179.466	
206.00	-47.166	178.906	
207.00	-47.091	169.443	
208.00	-48.157	149.662	
209.00	-49.346	125.359	
210.00	-50.080	87.017	
211.00	-48.107	49.744	
212.00	-45.786	22.476	
213.00	-43.920	1.922	
214.00	-42.639	-15.778	
215.00	-41.860	-30.845	
216.00	-41.643	-45.544	
217.00	-42.226	-61.854	
218.00	-42.868	-75.661	
219.00	-44.622	-93.123	
220.00	-47.428	-114.231	
221.00	-51.257	-152.875	
222.00	-52.024	144.707	
223.00	-48.402	96.797	
224.00	-44.513	77.248	
225.00	-42.140	54.164	
226.00	-40.745	38.121	
227.00	-39.832	21.468	
228.00	-39.040	8.302	
229.00	-38.782	-7.147	
230.00	-38.739	-21.579	
231.00	-38.967	-34.964	
232.00	-39.449	-49.116	
233.00	-40.172	-63.093	
234.00	-41.236	-78.331	
235.00	-42.955	-92.646	
236.00	-45.004	-109.357	
237.00	-47.782	-129.027	
238.00	-50.975	-153.169	
239.00	-55.435	172.627	
240.00	-56.994	119.478	
241.00	-54.907	72.555	
242.00	-54.412	41.714	
243.00	-52.751	16.986	
244.00	-51.968	-16.421	
245.00	-50.874	-41.050	
246.00	-50.606	-63.263	
247.00	-49.389	-87.986	
248.00	-48.478	-109.586	
249.00	-47.662	-128.228	
250.00	-47.132	-147.795	
251.00	-46.853	-164.634	
252.00	-46.265	-179.896	
253.00	-46.527	162.715	
254.00	-46.717	146.527	
255.00	-47.168	127.960	
256.00	-47.371	112.342	
257.00	-48.029	94.677	
258.00	-48.215	76.973	
259.00	-48.696	58.548	
260.00	-49.082	40.053	
261.00	-49.492	21.357	
262.00	-49.938	1.725	
263.00	-50.202	-15.317	
264.00	-50.648	-33.511	
265.00	-50.655	-49.904	
266.00	-51.034	-67.621	
267.00	-51.377	-82.997	
268.00	-51.661	-97.575	
269.00	-52.514	-111.134	
270.00	-52.926	-125.440	
271.00	-53.772	-139.463	
272.00	-54.777	-150.502	
273.00	-57.303	-165.108	
274.00	-58.739	-178.742	
275.00	-60.506	164.119	
276.00	-65.302	138.546	
277.00	-71.118	101.544	
278.00	-73.355	53.640	
279.00	-67.948	-13.083	
280.00	-64.942	-36.969	
281.00	-62.324	-57.091	
282.00	-60.964	-66.751	
283.00	-60.901	-89.212	
284.00	-58.819	-96.395	
285.00	-58.064	-107.039	
286.00	-58.960	-119.531	
287.00	-60.006	-133.755	
288.00	-60.668	-141.429	
289.00	-62.185	-156.355	
290.00	-65.151	-168.853	
291.00	-69.256	-152.231	
292.00	-72.860	-148.232	
293.00	-63.162	-77.616	
294.00	-67.826	-73.735	
295.00	-65.148	-81.040	
296.00	-62.558	-82.409	
297.00	-60.845	-92.824	
298.00	-61.180	-59.201	
299.00	-61.224	-98.782	
300.00	-62.048	-108.138	
301.00	-64.347	-111.294	
302.00	-67.843	-102.949	
303.00	-69.008	-75.949	
304.00	-64.966	-52.710	
305.00	-63.387	-54.826	
306.00	-59.263	-55.819	
307.00	-57.334	-60.278	
308.00	-55.072	-71.957	
309.00	-54.073	-73.107	
310.00	-52.752	-93.843	
311.00	-52.231	-105.337	
312.00	-51.680	-118.339	
313.00	-51.948	-129.193	
314.00	-52.408	-143.336	
315.00	-53.257	-159.338	
316.00	-54.811	-171.586	
317.00	-56.387	170.444	
318.00	-57.891	151.582	
319.00	-59.561	131.940	
320.00	-61.779	104.952	
321.00	-62.938	103.630	
322.00	-66.243	62.130	
323.00	-70.625	32.968	
324.00	-72.377	-38.793	
325.00	-67.587	-88.405	
326.00	-63.378	-110.870	
327.00	-59.960	-121.778	
328.00	-58.827	-132.022	
329.00	-58.159	-143.183	
330.00	-57.874	-152.782	
331.00	-58.459	-164.460	
332.00	-59.962	-178.208	
333.00	-62.405	164.337	
334.00	-68.596	123.329	
335.00	-64.252	69.133	
336.00	-61.501	24.401	
337.00	-56.885	6.619	
338.00	-55.364	-8.907	
339.00	-54.192	-13.264	
340.00	-54.775	-25.813	
341.00	-54.499	-29.371	
342.00	-55.575	-33.928	
343.00	-61.865	-93.113	
344.00	-61.924	-67.930	
345.00	-66.515	-110.179	
346.00	-66.501	-164.913	
347.00	-63.133	178.996	
348.00	-61.391	153.729	
349.00	-60.188	166.819	
350.00	-58.209	131.547	
351.00	-59.202	112.926	
352.00	-60.321	107.581	
353.00	-62.677	89.289	
354.00	-62.356	84.406	
355.00	-64.916	67.255	
356.00	-65.880	44.451	
357.00	-63.605	36.050	
358.00	-62.174	26.145	
359.00	-64.065	18.463	
Frequency	1950.00	MHz	
Channel	test		
Scan Axis name	Azimuth  [deg]		
Scan Axis	Amplitude	Phase	
			
0.00	-59.976	-50.951	
1.00	-59.645	-61.734	
2.00	-59.156	-69.487	
3.00	-58.931	-75.828	
4.00	-59.561	-82.674	
5.00	-60.411	-90.476	
6.00	-62.804	-99.973	
7.00	-61.774	-135.917	
8.00	-61.213	-149.169	
9.00	-60.069	-170.375	
10.00	-58.209	-179.705	
11.00	-56.892	176.038	
12.00	-56.495	172.634	
13.00	-56.754	172.700	
14.00	-57.630	165.824	
15.00	-58.580	162.311	
16.00	-60.877	162.478	
17.00	-64.726	151.962	
18.00	-67.431	137.613	
19.00	-73.220	73.006	
20.00	-69.246	74.365	
21.00	-69.622	53.080	
22.00	-71.014	77.255	
23.00	-71.776	88.768	
24.00	-70.790	137.397	
25.00	-66.172	176.753	
26.00	-64.594	-163.142	
27.00	-61.946	-156.955	
28.00	-61.484	-150.206	
29.00	-62.012	-139.341	
30.00	-61.014	-133.388	
31.00	-62.571	-110.853	
32.00	-66.736	-83.075	
33.00	-64.300	-56.190	
34.00	-65.594	-48.209	
35.00	-63.195	4.286	
36.00	-65.559	0.010	
37.00	-67.724	3.213	
38.00	-64.998	38.482	
39.00	-66.860	56.178	
40.00	-68.730	67.672	
41.00	-70.598	86.217	
42.00	-79.445	58.092	
43.00	-74.859	19.515	
44.00	-66.713	1.613	
45.00	-62.867	1.953	
46.00	-58.341	7.561	
47.00	-57.107	30.773	
48.00	-56.221	38.104	
49.00	-57.018	43.369	
50.00	-56.730	59.506	
51.00	-57.920	66.124	
52.00	-58.648	71.297	
53.00	-61.868	70.709	
54.00	-65.495	82.028	
55.00	-73.672	50.137	
56.00	-69.362	-31.771	
57.00	-68.394	-49.779	
58.00	-66.719	-47.762	
59.00	-65.858	-62.215	
60.00	-65.223	-76.594	
61.00	-65.178	-85.137	
62.00	-62.810	-97.940	
63.00	-61.233	-110.043	
64.00	-60.153	-108.846	
65.00	-59.050	-104.632	
66.00	-58.808	-93.026	
67.00	-59.185	-86.939	
68.00	-59.128	-74.013	
69.00	-61.636	-61.011	
70.00	-63.226	-46.542	
71.00	-65.494	-24.210	
72.00	-68.908	16.076	
73.00	-68.055	57.125	
74.00	-67.723	77.491	
75.00	-65.961	113.146	
76.00	-65.368	123.079	
77.00	-66.444	151.900	
78.00	-68.739	169.817	
79.00	-71.422	177.646	
80.00	-71.949	-155.625	
81.00	-77.345	-99.005	
82.00	-79.491	-144.217	
83.00	-92.606	53.728	
84.00	-66.312	21.167	
85.00	-67.571	59.809	
86.00	-64.549	73.788	
87.00	-63.966	76.383	
88.00	-60.967	98.135	
89.00	-60.864	106.006	
90.00	-61.184	115.086	
91.00	-59.972	142.248	
92.00	-60.783	159.887	
93.00	-59.171	-175.214	
94.00	-58.494	-154.817	
95.00	-56.872	-135.711	
96.00	-54.976	-117.315	
97.00	-53.207	-107.391	
98.00	-52.225	-97.272	
99.00	-52.224	-83.195	
100.00	-51.450	-75.707	
101.00	-51.145	-60.061	
102.00	-51.507	-45.140	
103.00	-51.878	-33.279	
104.00	-52.449	-14.680	
105.00	-53.154	-3.499	
106.00	-53.953	12.670	
107.00	-54.966	37.321	
108.00	-55.416	52.854	
109.00	-55.567	76.235	
110.00	-56.013	93.334	
111.00	-56.319	111.891	
112.00	-57.224	130.253	
113.00	-58.767	148.627	
114.00	-60.167	170.911	
115.00	-63.446	-161.319	
116.00	-65.371	-113.353	
117.00	-62.740	-67.706	
118.00	-60.371	-34.626	
119.00	-58.023	-15.920	
120.00	-56.800	6.620	
121.00	-56.432	24.346	
122.00	-56.009	46.370	
123.00	-55.178	73.172	
124.00	-54.311	88.496	
125.00	-53.221	108.170	
126.00	-51.850	127.617	
127.00	-50.739	141.326	
128.00	-50.171	150.693	
129.00	-50.143	158.467	
130.00	-50.431	163.759	
131.00	-51.577	167.792	
132.00	-53.365	168.072	
133.00	-56.045	162.077	
134.00	-59.355	138.221	
135.00	-59.040	104.495	
136.00	-55.953	77.127	
137.00	-53.010	69.642	
138.00	-50.875	69.505	
139.00	-49.427	72.772	
140.00	-48.439	77.892	
141.00	-47.857	82.876	
142.00	-47.179	89.928	
143.00	-47.091	94.483	
144.00	-47.072	101.540	
145.00	-47.291	106.657	
146.00	-47.959	110.528	
147.00	-49.132	113.059	
148.00	-51.257	109.676	
149.00	-53.793	105.835	
150.00	-55.933	79.777	
151.00	-55.153	39.524	
152.00	-52.256	19.367	
153.00	-49.500	20.126	
154.00	-47.781	20.757	
155.00	-47.066	27.003	
156.00	-46.370	35.504	
157.00	-46.111	44.541	
158.00	-46.608	58.877	
159.00	-47.025	75.188	
160.00	-47.157	94.292	
161.00	-46.844	115.539	
162.00	-46.256	132.967	
163.00	-45.594	147.342	
164.00	-45.388	154.319	
165.00	-45.878	158.709	
166.00	-46.833	157.643	
167.00	-48.352	150.437	
168.00	-49.350	132.230	
169.00	-48.979	109.896	
170.00	-47.427	95.772	
171.00	-46.162	92.695	
172.00	-45.810	97.434	
173.00	-46.318	112.748	
174.00	-46.313	142.611	
175.00	-43.750	178.111	
176.00	-39.825	-159.781	
177.00	-36.099	-148.033	
178.00	-33.256	-141.718	
179.00	-31.020	-137.587	
180.00	-29.310	-134.889	
181.00	-28.091	-133.132	
182.00	-27.299	-132.057	
183.00	-26.858	-131.749	
184.00	-26.845	-131.376	
185.00	-27.190	-131.678	
186.00	-27.923	-132.175	
187.00	-29.149	-132.850	
188.00	-30.877	-134.067	
189.00	-33.438	-135.160	
190.00	-36.977	-135.559	
191.00	-42.776	-134.455	
192.00	-56.279	-103.132	
193.00	-48.923	17.449	
194.00	-43.193	23.378	
195.00	-41.032	22.576	
196.00	-40.613	20.330	
197.00	-41.196	17.662	
198.00	-42.728	14.934	
199.00	-45.594	13.360	
200.00	-49.581	16.808	
201.00	-57.315	30.215	
202.00	-60.124	129.428	
203.00	-53.536	149.238	
204.00	-50.962	153.165	
205.00	-50.313	154.575	
206.00	-50.465	158.670	
207.00	-51.395	169.997	
208.00	-51.393	-171.977	
209.00	-50.259	-158.002	
210.00	-48.508	-149.467	
211.00	-46.790	-148.745	
212.00	-45.747	-152.003	
213.00	-45.123	-156.930	
214.00	-45.034	-165.557	
215.00	-45.458	-174.589	
216.00	-46.528	174.486	
217.00	-47.971	161.683	
218.00	-50.973	144.108	
219.00	-54.041	122.393	
220.00	-60.004	76.531	
221.00	-58.125	12.086	
222.00	-55.113	-27.071	
223.00	-52.526	-50.843	
224.00	-50.930	-71.389	
225.00	-50.125	-88.422	
226.00	-49.825	-103.782	
227.00	-50.224	-122.951	
228.00	-51.038	-140.673	
229.00	-52.618	-159.293	
230.00	-54.894	176.967	
231.00	-57.130	139.827	
232.00	-57.977	92.642	
233.00	-56.018	52.498	
234.00	-53.479	24.489	
235.00	-51.957	5.778	
236.00	-51.517	-10.758	
237.00	-51.372	-28.526	
238.00	-51.854	-43.690	
239.00	-52.257	-60.984	
240.00	-54.410	-79.600	
241.00	-56.542	-103.076	
242.00	-58.918	-137.907	
243.00	-59.493	-175.198	
244.00	-60.401	144.807	
245.00	-58.898	106.705	
246.00	-57.708	80.758	
247.00	-56.437	55.102	
248.00	-55.382	32.705	
249.00	-54.217	8.955	
250.00	-53.506	-8.377	
251.00	-53.256	-26.753	
252.00	-52.669	-44.740	
253.00	-52.799	-60.602	
254.00	-52.767	-78.708	
255.00	-53.205	-96.874	
256.00	-53.200	-116.526	
257.00	-54.211	-133.301	
258.00	-53.964	-151.013	
259.00	-53.783	-171.046	
260.00	-53.918	171.337	
261.00	-54.225	154.968	
262.00	-54.601	139.948	
263.00	-54.966	126.279	
264.00	-55.554	114.879	
265.00	-56.621	101.766	
266.00	-57.927	89.166	
267.00	-60.290	73.742	
268.00	-63.845	47.380	
269.00	-67.787	48.806	
270.00	-69.191	-14.287	
271.00	-68.929	-51.273	
272.00	-65.557	-96.662	
273.00	-64.412	-97.012	
274.00	-64.260	-123.146	
275.00	-63.120	-148.454	
276.00	-61.056	-161.135	
277.00	-63.039	-172.961	
278.00	-62.410	-170.313	
279.00	-63.211	159.420	
280.00	-62.976	137.305	
281.00	-62.971	130.791	
282.00	-65.289	133.113	
283.00	-63.410	115.848	
284.00	-65.922	106.625	
285.00	-65.266	114.819	
286.00	-70.520	126.521	
287.00	-67.611	135.300	
288.00	-63.243	149.291	
289.00	-63.203	168.168	
290.00	-61.712	178.881	
291.00	-59.100	160.812	
292.00	-58.231	162.399	
293.00	-58.078	158.935	
294.00	-57.237	149.027	
295.00	-57.783	142.228	
296.00	-58.327	134.387	
297.00	-59.080	125.164	
298.00	-60.119	117.223	
299.00	-61.778	103.127	
300.00	-63.384	89.022	
301.00	-66.565	72.620	
302.00	-69.190	65.068	
303.00	-74.802	57.582	
304.00	-73.018	82.669	
305.00	-76.087	111.461	
306.00	-72.452	114.678	
307.00	-69.396	122.906	
308.00	-65.703	104.942	
309.00	-64.066	102.063	
310.00	-62.146	85.843	
311.00	-62.273	78.901	
312.00	-61.414	70.529	
313.00	-61.550	61.594	
314.00	-62.742	51.604	
315.00	-64.430	37.740	
316.00	-65.357	39.223	
317.00	-67.057	12.288	
318.00	-69.856	-9.330	
319.00	-74.174	-13.811	
320.00	-79.858	35.669	
321.00	-76.518	68.678	
322.00	-72.893	92.151	
323.00	-67.186	85.731	
324.00	-64.928	77.501	
325.00	-61.719	69.809	
326.00	-59.821	62.018	
327.00	-58.844	50.207	
328.00	-58.128	42.998	
329.00	-57.672	33.406	
330.00	-58.132	21.186	
331.00	-58.241	10.325	
332.00	-59.201	1.710	
333.00	-59.518	-17.674	
334.00	-60.274	-34.299	
335.00	-59.836	-49.390	
336.00	-63.028	-48.302	
337.00	-65.283	-90.825	
338.00	-67.178	-116.083	
339.00	-68.775	-122.914	
340.00	-68.068	-167.051	
341.00	-67.068	162.721	
342.00	-64.187	143.172	
343.00	-67.337	127.303	
344.00	-62.212	79.496	
345.00	-62.215	86.627	
346.00	-61.703	66.141	
347.00	-61.922	46.187	
348.00	-60.467	44.804	
349.00	-59.412	28.892	
350.00	-61.710	26.055	
351.00	-59.880	10.127	
352.00	-60.684	5.822	
353.00	-61.519	-12.168	
354.00	-61.911	-13.849	
355.00	-62.346	-26.509	
356.00	-61.571	-29.952	
357.00	-62.068	-46.043	
358.00	-61.281	-48.927	
359.00	-60.676	-68.157	
Frequency	2050.00	MHz	
Channel	test		
Scan Axis name	Azimuth  [deg]		
Scan Axis	Amplitude	Phase	
			
0.00	-62.822	-109.611	
1.00	-65.766	-123.979	
2.00	-75.445	-127.636	
3.00	-76.918	133.565	
4.00	-74.459	97.351	
5.00	-71.806	64.149	
6.00	-69.345	65.870	
7.00	-64.978	60.082	
8.00	-70.353	32.817	
9.00	-71.395	52.516	
10.00	-76.108	30.109	
11.00	-70.005	15.944	
12.00	-67.498	-6.198	
13.00	-65.069	-16.042	
14.00	-62.657	-27.623	
15.00	-60.536	-35.364	
16.00	-59.682	-31.180	
17.00	-60.224	-39.861	
18.00	-60.087	-42.147	
19.00	-61.112	-54.947	
20.00	-60.703	-70.087	
21.00	-60.761	-88.591	
22.00	-62.185	-85.163	
23.00	-60.646	-100.720	
24.00	-61.680	-92.014	
25.00	-64.032	-104.954	
26.00	-66.212	-102.631	
27.00	-69.755	-75.742	
28.00	-76.103	0.123	
29.00	-70.397	43.085	
30.00	-64.274	47.624	
31.00	-62.808	55.879	
32.00	-61.345	50.356	
33.00	-61.219	67.110	
34.00	-61.468	73.157	
35.00	-64.507	83.823	
36.00	-69.418	94.357	
37.00	-71.165	148.552	
38.00	-73.418	-128.492	
39.00	-70.063	-103.047	
40.00	-67.162	-82.674	
41.00	-67.043	-82.383	
42.00	-64.426	-55.075	
43.00	-66.517	-52.552	
44.00	-67.346	-41.986	
45.00	-68.192	-27.320	
46.00	-67.595	8.953	
47.00	-70.486	51.865	
48.00	-68.992	74.577	
49.00	-64.423	115.542	
50.00	-61.921	119.487	
51.00	-59.926	143.035	
52.00	-60.307	154.437	
53.00	-59.076	175.097	
54.00	-58.190	-164.733	
55.00	-58.011	-150.008	
56.00	-59.479	-136.476	
57.00	-58.506	-114.735	
58.00	-58.185	-101.234	
59.00	-59.575	-89.041	
60.00	-60.949	-78.153	
61.00	-64.999	-80.333	
62.00	-68.941	-81.581	
63.00	-77.426	-164.006	
64.00	-70.064	162.282	
65.00	-66.171	162.228	
66.00	-61.798	153.912	
67.00	-60.606	163.890	
68.00	-60.566	157.063	
69.00	-60.444	153.123	
70.00	-59.187	151.105	
71.00	-59.822	146.712	
72.00	-59.043	148.155	
73.00	-59.686	153.716	
74.00	-60.609	163.085	
75.00	-59.286	174.528	
76.00	-60.299	174.399	
77.00	-59.441	-170.377	
78.00	-61.927	-142.701	
79.00	-61.752	-131.921	
80.00	-62.065	-98.658	
81.00	-62.524	-77.321	
82.00	-64.055	-65.630	
83.00	-62.937	-46.375	
84.00	-65.435	-24.960	
85.00	-63.695	16.306	
86.00	-64.889	15.207	
87.00	-61.705	57.376	
88.00	-59.563	45.953	
89.00	-60.900	69.465	
90.00	-60.736	80.907	
91.00	-61.659	102.288	
92.00	-63.845	100.696	
93.00	-64.043	129.374	
94.00	-63.020	167.777	
95.00	-61.636	-179.926	
96.00	-62.568	-179.458	
97.00	-59.156	-161.123	
98.00	-59.947	-156.232	
99.00	-60.245	-143.335	
100.00	-60.097	-141.242	
101.00	-61.694	-112.781	
102.00	-61.453	-87.238	
103.00	-61.457	-59.833	
104.00	-58.730	-43.604	
105.00	-58.014	-31.167	
106.00	-57.269	-24.134	
107.00	-56.175	-12.071	
108.00	-56.724	-1.963	
109.00	-56.288	11.649	
110.00	-56.899	24.707	
111.00	-57.838	41.681	
112.00	-58.864	62.443	
113.00	-60.142	82.533	
114.00	-60.537	111.387	
115.00	-60.379	140.622	
116.00	-59.587	162.827	
117.00	-58.745	-173.329	
118.00	-57.531	-153.523	
119.00	-58.059	-143.727	
120.00	-58.763	-133.865	
121.00	-59.718	-128.097	
122.00	-62.574	-140.154	
123.00	-64.996	-174.857	
124.00	-60.668	149.665	
125.00	-55.965	142.579	
126.00	-52.923	146.801	
127.00	-51.359	152.813	
128.00	-49.849	157.650	
129.00	-50.042	165.333	
130.00	-50.047	-178.080	
131.00	-51.152	-164.930	
132.00	-52.394	-148.963	
133.00	-53.959	-125.359	
134.00	-55.375	-95.132	
135.00	-55.438	-65.450	
136.00	-54.859	-34.128	
137.00	-53.705	-7.710	
138.00	-52.839	8.416	
139.00	-52.435	24.408	
140.00	-52.240	35.550	
141.00	-52.757	45.913	
142.00	-53.428	51.803	
143.00	-54.227	47.565	
144.00	-55.098	39.330	
145.00	-55.055	25.467	
146.00	-53.838	8.409	
147.00	-52.572	0.723	
148.00	-51.328	-4.787	
149.00	-50.354	-12.694	
150.00	-50.068	-18.001	
151.00	-50.800	-21.045	
152.00	-50.826	-35.325	
153.00	-50.800	-51.771	
154.00	-49.736	-65.234	
155.00	-48.346	-79.239	
156.00	-47.161	-85.569	
157.00	-46.523	-89.456	
158.00	-46.414	-93.833	
159.00	-47.172	-98.160	
160.00	-48.459	-106.964	
161.00	-50.805	-122.436	
162.00	-52.467	-151.446	
163.00	-51.350	177.622	
164.00	-49.709	159.372	
165.00	-48.519	150.801	
166.00	-48.633	145.895	
167.00	-50.867	141.809	
168.00	-57.342	129.003	
169.00	-58.091	-4.187	
170.00	-48.076	-22.152	
171.00	-43.119	-25.281	
172.00	-40.257	-27.036	
173.00	-38.674	-28.220	
174.00	-38.159	-30.165	
175.00	-38.985	-34.399	
176.00	-41.420	-44.695	
177.00	-45.883	-84.992	
178.00	-42.059	-150.894	
179.00	-35.716	-173.093	
180.00	-31.552	179.826	
181.00	-28.627	176.425	
182.00	-26.495	174.354	
183.00	-25.031	172.773	
184.00	-24.053	171.630	
185.00	-23.502	170.251	
186.00	-23.377	168.999	
187.00	-23.659	167.657	
188.00	-24.348	166.213	
189.00	-25.468	164.533	
190.00	-27.042	162.769	
191.00	-29.168	160.977	
192.00	-31.962	158.741	
193.00	-35.609	157.226	
194.00	-40.802	155.330	
195.00	-48.887	154.756	
196.00	-71.623	-44.418	
197.00	-52.805	-29.781	
198.00	-50.904	-26.649	
199.00	-53.189	-15.504	
200.00	-55.480	22.861	
201.00	-52.618	69.711	
202.00	-48.584	86.247	
203.00	-46.165	91.289	
204.00	-44.848	91.342	
205.00	-44.786	91.128	
206.00	-45.294	90.769	
207.00	-46.706	92.528	
208.00	-48.849	102.262	
209.00	-50.807	117.710	
210.00	-51.354	143.387	
211.00	-50.506	161.975	
212.00	-49.589	169.346	
213.00	-49.558	172.594	
214.00	-50.641	172.172	
215.00	-54.113	170.847	
216.00	-63.217	175.018	
217.00	-61.706	-33.583	
218.00	-52.979	-34.989	
219.00	-48.489	-37.525	
220.00	-46.118	-45.004	
221.00	-44.423	-51.978	
222.00	-43.544	-59.936	
223.00	-43.017	-67.149	
224.00	-42.813	-74.558	
225.00	-42.874	-81.775	
226.00	-43.079	-88.750	
227.00	-43.461	-95.404	
228.00	-43.943	-101.612	
229.00	-44.234	-107.699	
230.00	-44.634	-113.383	
231.00	-45.041	-119.665	
232.00	-45.343	-126.250	
233.00	-45.759	-133.500	
234.00	-46.302	-141.592	
235.00	-46.931	-150.442	
236.00	-47.788	-160.214	
237.00	-48.965	-171.231	
238.00	-50.408	176.239	
239.00	-52.282	162.799	
240.00	-54.643	144.624	
241.00	-57.203	120.730	
242.00	-60.150	88.440	
243.00	-62.003	45.502	
244.00	-60.882	4.594	
245.00	-59.908	-23.950	
246.00	-58.775	-49.192	
247.00	-58.164	-70.105	
248.00	-58.406	-87.464	
249.00	-57.983	-109.253	
250.00	-58.298	-127.018	
251.00	-58.835	-146.972	
252.00	-60.152	-168.971	
253.00	-60.771	165.323	
254.00	-61.251	143.171	
255.00	-61.232	118.290	
256.00	-60.661	95.629	
257.00	-60.793	78.874	
258.00	-61.182	63.437	
259.00	-61.220	46.859	
260.00	-62.072	34.395	
261.00	-62.950	20.119	
262.00	-64.556	4.479	
263.00	-64.091	-8.908	
264.00	-65.488	-23.087	
265.00	-65.022	-28.495	
266.00	-64.824	-35.305	
267.00	-64.365	-52.838	
268.00	-63.069	-55.350	
269.00	-62.274	-65.049	
270.00	-60.392	-73.700	
271.00	-60.214	-77.467	
272.00	-59.307	-86.912	
273.00	-58.412	-99.536	
274.00	-57.891	-99.152	
275.00	-57.758	-106.756	
276.00	-57.574	-112.505	
277.00	-57.853	-115.963	
278.00	-58.752	-124.351	
279.00	-59.569	-127.793	
280.00	-61.162	-132.468	
281.00	-62.189	-136.060	
282.00	-62.944	-137.670	
283.00	-65.230	-140.492	
284.00	-67.500	-142.021	
285.00	-68.363	-149.414	
286.00	-67.349	-161.633	
287.00	-67.131	172.696	
288.00	-66.572	162.732	
289.00	-64.081	145.106	
290.00	-64.342	136.549	
291.00	-62.229	135.763	
292.00	-61.831	128.391	
293.00	-60.916	121.043	
294.00	-61.414	105.167	
295.00	-62.551	99.289	
296.00	-62.865	95.928	
297.00	-63.779	94.320	
298.00	-64.692	97.974	
299.00	-66.197	101.355	
300.00	-67.106	109.059	
301.00	-67.084	132.969	
302.00	-64.476	134.557	
303.00	-63.315	139.564	
304.00	-61.315	141.860	
305.00	-60.234	141.581	
306.00	-58.893	141.066	
307.00	-58.898	139.160	
308.00	-57.347	136.174	
309.00	-57.487	130.562	
310.00	-57.446	129.857	
311.00	-58.141	126.711	
312.00	-59.369	122.224	
313.00	-58.625	114.292	
314.00	-60.305	101.542	
315.00	-61.265	97.396	
316.00	-63.467	89.745	
317.00	-65.786	83.725	
318.00	-70.909	80.702	
319.00	-76.856	122.986	
320.00	-68.749	169.301	
321.00	-64.663	175.184	
322.00	-60.797	166.184	
323.00	-58.498	157.409	
324.00	-56.635	142.454	
325.00	-55.685	130.191	
326.00	-54.948	125.833	
327.00	-54.909	114.282	
328.00	-54.522	103.663	
329.00	-55.434	94.377	
330.00	-56.697	84.425	
331.00	-57.673	71.882	
332.00	-59.752	58.876	
333.00	-64.202	39.978	
334.00	-64.423	24.910	
335.00	-72.837	-32.543	
336.00	-73.758	-110.958	
337.00	-73.106	-179.822	
338.00	-69.203	154.071	
339.00	-64.647	118.474	
340.00	-61.681	99.673	
341.00	-58.695	89.121	
342.00	-57.558	70.823	
343.00	-56.261	60.689	
344.00	-56.134	49.961	
345.00	-56.092	42.147	
346.00	-56.665	36.960	
347.00	-58.155	28.593	
348.00	-59.366	20.938	
349.00	-63.793	15.884	
350.00	-68.483	-8.240	
351.00	-74.549	-55.371	
352.00	-70.132	-107.122	
353.00	-66.114	-113.875	
354.00	-66.407	-127.169	
355.00	-63.528	-130.644	
356.00	-60.100	-123.959	
357.00	-61.344	-124.402	
358.00	-60.965	-117.147	
359.00	-61.962	-126.227	
Frequency	2170.00	MHz	
Channel	test		
Scan Axis name	Azimuth  [deg]		
Scan Axis	Amplitude	Phase	
			
0.00	-65.354	-43.029	
1.00	-66.079	-47.758	
2.00	-70.773	-54.931	
3.00	-70.251	-49.410	
4.00	-66.296	-45.860	
5.00	-77.393	17.495	
6.00	-73.943	178.924	
7.00	-66.445	116.116	
8.00	-66.833	99.851	
9.00	-64.612	84.282	
10.00	-62.661	91.420	
11.00	-65.051	82.816	
12.00	-66.618	87.211	
13.00	-66.896	104.618	
14.00	-60.538	59.983	
15.00	-62.817	68.503	
16.00	-63.692	55.287	
17.00	-66.475	68.075	
18.00	-64.522	64.228	
19.00	-67.043	41.110	
20.00	-70.440	90.190	
21.00	-68.611	84.696	
22.00	-64.023	96.041	
23.00	-68.600	-147.700	
24.00	-71.822	155.522	
25.00	-70.210	-140.414	
26.00	-68.738	-125.885	
27.00	-67.779	-116.279	
28.00	-68.906	-106.470	
29.00	-71.839	-85.949	
30.00	-69.795	-107.483	
31.00	-65.353	-72.557	
32.00	-71.931	-75.547	
33.00	-71.733	-55.201	
34.00	-70.416	-105.785	
35.00	-73.800	-33.637	
36.00	-72.502	-70.403	
37.00	-71.878	108.487	
38.00	-74.214	30.762	
39.00	-80.707	19.564	
40.00	-68.489	62.739	
41.00	-69.654	96.735	
42.00	-66.268	82.157	
43.00	-66.116	101.397	
44.00	-61.853	130.705	
45.00	-64.226	90.911	
46.00	-64.871	122.801	
47.00	-62.764	152.908	
48.00	-64.502	140.849	
49.00	-61.456	-168.015	
50.00	-63.334	-151.149	
51.00	-75.286	-124.046	
52.00	-73.125	-77.720	
53.00	-67.935	-26.946	
54.00	-68.232	18.556	
55.00	-64.753	18.176	
56.00	-59.686	54.478	
57.00	-62.863	99.903	
58.00	-61.913	120.722	
59.00	-61.965	133.752	
60.00	-61.604	151.677	
61.00	-64.178	172.211	
62.00	-65.599	169.931	
63.00	-73.103	-160.738	
64.00	-79.466	-82.812	
65.00	-69.387	31.042	
66.00	-64.576	35.550	
67.00	-62.330	44.400	
68.00	-59.770	63.573	
69.00	-61.477	64.959	
70.00	-59.447	62.518	
71.00	-60.668	67.836	
72.00	-60.007	80.347	
73.00	-61.969	85.880	
74.00	-63.951	80.400	
75.00	-63.987	87.113	
76.00	-67.469	85.679	
77.00	-72.475	70.410	
78.00	-75.165	77.146	
79.00	-77.229	96.836	
80.00	-87.530	107.413	
81.00	-84.341	178.624	
82.00	-84.689	-151.214	
83.00	-73.242	74.310	
84.00	-69.652	92.320	
85.00	-76.142	84.727	
86.00	-71.065	93.778	
87.00	-67.753	43.117	
88.00	-65.943	38.751	
89.00	-65.642	52.083	
90.00	-61.667	37.736	
91.00	-61.971	55.198	
92.00	-60.747	63.485	
93.00	-59.592	64.919	
94.00	-59.626	77.655	
95.00	-58.574	76.611	
96.00	-59.146	87.136	
97.00	-59.614	100.449	
98.00	-61.535	119.767	
99.00	-63.513	132.674	
100.00	-64.166	152.158	
101.00	-65.576	164.718	
102.00	-69.125	-157.314	
103.00	-65.018	-119.184	
104.00	-64.324	-100.274	
105.00	-64.182	-75.468	
106.00	-62.039	-71.430	
107.00	-62.921	-56.327	
108.00	-63.005	-50.251	
109.00	-61.110	-59.022	
110.00	-62.336	-52.935	
111.00	-60.865	-37.501	
112.00	-60.872	-33.384	
113.00	-59.805	-7.336	
114.00	-60.207	-1.711	
115.00	-58.681	27.743	
116.00	-55.281	47.374	
117.00	-53.938	59.096	
118.00	-52.767	75.717	
119.00	-51.552	87.412	
120.00	-50.787	104.059	
121.00	-50.826	116.952	
122.00	-51.336	132.203	
123.00	-52.149	143.303	
124.00	-53.882	161.755	
125.00	-56.139	-176.736	
126.00	-60.851	-166.678	
127.00	-64.929	-133.511	
128.00	-67.971	17.700	
129.00	-57.360	64.386	
130.00	-52.649	78.172	
131.00	-49.655	95.944	
132.00	-47.449	109.976	
133.00	-46.145	124.948	
134.00	-45.479	138.751	
135.00	-45.282	154.574	
136.00	-45.275	169.455	
137.00	-46.245	-173.211	
138.00	-47.318	-155.025	
139.00	-49.442	-132.063	
140.00	-51.697	-99.023	
141.00	-52.719	-55.944	
142.00	-51.303	-12.701	
143.00	-49.247	14.923	
144.00	-47.623	36.183	
145.00	-46.885	52.947	
146.00	-46.533	67.593	
147.00	-46.917	82.558	
148.00	-48.014	96.406	
149.00	-49.367	109.440	
150.00	-51.090	126.137	
151.00	-52.955	142.559	
152.00	-54.860	158.154	
153.00	-56.129	174.045	
154.00	-57.371	168.616	
155.00	-58.613	164.840	
156.00	-57.744	152.639	
157.00	-57.530	138.446	
158.00	-56.085	126.674	
159.00	-56.544	118.621	
160.00	-56.914	99.830	
161.00	-55.457	74.269	
162.00	-52.623	53.923	
163.00	-49.404	46.389	
164.00	-47.335	41.379	
165.00	-45.805	40.863	
166.00	-45.013	42.448	
167.00	-44.711	43.662	
168.00	-45.804	46.346	
169.00	-48.045	49.610	
170.00	-52.488	56.621	
171.00	-64.544	74.708	
172.00	-58.678	-156.389	
173.00	-50.957	-151.666	
174.00	-48.948	-158.025	
175.00	-48.222	-178.595	
176.00	-46.550	146.409	
177.00	-42.097	117.735	
178.00	-37.781	103.442	
179.00	-34.165	96.849	
180.00	-31.440	92.456	
181.00	-29.439	89.670	
182.00	-27.956	87.197	
183.00	-27.003	85.438	
184.00	-26.462	83.821	
185.00	-26.439	82.229	
186.00	-26.804	79.964	
187.00	-27.724	78.244	
188.00	-29.208	76.367	
189.00	-31.435	73.929	
190.00	-34.649	71.072	
191.00	-39.385	69.841	
192.00	-49.081	69.152	
193.00	-52.763	-118.695	
194.00	-43.670	-119.609	
195.00	-41.117	-122.189	
196.00	-40.331	-123.821	
197.00	-40.979	-124.436	
198.00	-42.849	-121.435	
199.00	-45.853	-114.514	
200.00	-49.437	-91.960	
201.00	-50.581	-57.503	
202.00	-48.764	-34.168	
203.00	-47.481	-26.517	
204.00	-47.530	-27.767	
205.00	-48.493	-33.079	
206.00	-51.393	-43.374	
207.00	-55.722	-64.109	
208.00	-60.823	-121.443	
209.00	-57.197	177.026	
210.00	-53.373	156.874	
211.00	-51.967	147.196	
212.00	-52.322	146.592	
213.00	-54.284	147.463	
214.00	-57.052	170.697	
215.00	-56.426	-157.359	
216.00	-53.077	-137.016	
217.00	-49.727	-133.766	
218.00	-47.908	-138.135	
219.00	-46.607	-143.799	
220.00	-45.737	-151.398	
221.00	-45.504	-159.310	
222.00	-45.819	-166.453	
223.00	-46.551	-171.171	
224.00	-47.994	-175.345	
225.00	-50.155	-175.166	
226.00	-53.075	-164.514	
227.00	-55.366	-139.705	
228.00	-53.640	-108.034	
229.00	-50.809	-98.802	
230.00	-48.777	-95.019	
231.00	-47.341	-98.447	
232.00	-46.299	-103.996	
233.00	-45.917	-111.029	
234.00	-45.545	-119.546	
235.00	-45.663	-126.974	
236.00	-45.842	-137.959	
237.00	-46.502	-149.498	
238.00	-47.260	-163.326	
239.00	-48.077	-177.496	
240.00	-48.819	164.092	
241.00	-49.442	148.661	
242.00	-49.345	130.073	
243.00	-49.459	113.541	
244.00	-49.952	98.738	
245.00	-50.417	83.628	
246.00	-51.045	68.536	
247.00	-51.799	55.580	
248.00	-53.431	41.581	
249.00	-54.365	23.529	
250.00	-55.912	9.017	
251.00	-58.313	-8.741	
252.00	-59.996	-26.235	
253.00	-62.737	-48.437	
254.00	-67.619	-53.481	
255.00	-80.220	167.514	
256.00	-71.721	110.299	
257.00	-63.799	82.495	
258.00	-60.796	77.601	
259.00	-58.732	68.989	
260.00	-57.663	58.184	
261.00	-56.858	42.163	
262.00	-55.861	30.312	
263.00	-56.435	20.652	
264.00	-56.987	9.193	
265.00	-56.991	-1.425	
266.00	-57.985	-15.020	
267.00	-58.931	-37.561	
268.00	-59.711	-56.044	
269.00	-60.648	-70.929	
270.00	-62.766	-86.396	
271.00	-63.307	-110.506	
272.00	-66.534	-121.705	
273.00	-66.919	-161.526	
274.00	-67.991	153.339	
275.00	-68.296	124.786	
276.00	-65.514	86.383	
277.00	-63.104	86.483	
278.00	-61.368	65.475	
279.00	-59.373	51.636	
280.00	-60.066	51.513	
281.00	-60.108	38.288	
282.00	-60.642	39.479	
283.00	-61.920	24.660	
284.00	-62.045	13.198	
285.00	-63.114	0.802	
286.00	-68.668	-19.113	
287.00	-64.734	-42.642	
288.00	-64.811	-42.053	
289.00	-64.360	-44.467	
290.00	-65.380	-46.712	
291.00	-64.558	-56.865	
292.00	-64.102	-68.454	
293.00	-65.335	-69.498	
294.00	-68.513	-94.204	
295.00	-69.002	-96.769	
296.00	-69.863	-135.256	
297.00	-66.943	-122.214	
298.00	-73.528	142.223	
299.00	-74.496	168.419	
300.00	-84.868	71.595	
301.00	-72.739	-4.260	
302.00	-67.076	-6.691	
303.00	-69.113	-43.497	
304.00	-62.974	-37.006	
305.00	-63.761	-51.281	
306.00	-61.974	-85.838	
307.00	-62.412	-89.364	
308.00	-62.410	-112.106	
309.00	-66.614	-115.013	
310.00	-61.253	-151.081	
311.00	-61.314	-153.920	
312.00	-61.497	167.564	
313.00	-59.381	171.108	
314.00	-58.225	151.187	
315.00	-58.131	126.789	
316.00	-56.680	113.414	
317.00	-57.695	92.033	
318.00	-59.219	85.957	
319.00	-60.349	56.542	
320.00	-61.421	49.070	
321.00	-62.172	29.769	
322.00	-67.705	15.870	
323.00	-66.627	-1.348	
324.00	-68.009	-73.599	
325.00	-65.631	-106.018	
326.00	-75.190	-101.731	
327.00	-65.314	-120.346	
328.00	-69.409	-137.515	
329.00	-73.099	-173.238	
330.00	-66.295	148.161	
331.00	-62.576	40.366	
332.00	-64.787	42.267	
333.00	-61.689	56.448	
334.00	-65.318	-1.395	
335.00	-61.694	-9.768	
336.00	-59.584	-27.993	
337.00	-60.055	-21.999	
338.00	-64.353	-0.209	
339.00	-68.166	-17.904	
340.00	-75.837	-43.523	
341.00	-65.386	-158.991	
342.00	-71.791	102.173	
343.00	-68.885	146.231	
344.00	-62.883	148.274	
345.00	-63.330	123.055	
346.00	-67.589	138.289	
347.00	-67.213	115.279	
348.00	-68.123	-160.104	
349.00	-67.109	167.213	
350.00	-71.582	-179.796	
351.00	-71.432	-40.739	
352.00	-72.521	-99.401	
353.00	-62.746	-84.190	
354.00	-63.096	-62.501	
355.00	-59.115	-60.019	
356.00	-62.059	-80.235	
357.00	-64.249	-80.295	
358.00	-66.215	-86.194	
359.00	-69.129	-67.440	
Frequency	2300.00	MHz	
Channel	test		
Scan Axis name	Azimuth  [deg]		
Scan Axis	Amplitude	Phase	
			
0.00	-59.461	132.873	
1.00	-61.835	135.006	
2.00	-61.373	128.372	
3.00	-62.570	127.586	
4.00	-64.440	129.690	
5.00	-66.221	150.674	
6.00	-70.976	-176.854	
7.00	-67.634	-167.470	
8.00	-66.963	-147.761	
9.00	-67.320	-145.605	
10.00	-65.479	-135.077	
11.00	-66.604	-149.296	
12.00	-67.872	-142.113	
13.00	-75.166	-130.117	
14.00	-69.412	-129.443	
15.00	-73.847	-143.276	
16.00	-72.904	-147.129	
17.00	-71.445	-167.243	
18.00	-71.363	-156.618	
19.00	-70.088	-113.782	
20.00	-72.461	-91.552	
21.00	-75.579	-104.784	
22.00	-84.416	39.652	
23.00	-81.583	-146.800	
24.00	-77.619	-150.130	
25.00	-73.655	-101.053	
26.00	-72.563	-95.288	
27.00	-69.532	-44.493	
28.00	-65.537	-46.946	
29.00	-64.077	-49.718	
30.00	-61.588	-53.682	
31.00	-60.934	-53.176	
32.00	-59.533	-52.916	
33.00	-59.794	-43.104	
34.00	-58.979	-34.310	
35.00	-60.889	-32.680	
36.00	-63.509	-23.050	
37.00	-69.786	-56.487	
38.00	-71.450	-47.085	
39.00	-86.408	-71.039	
40.00	-74.931	-55.503	
41.00	-73.269	-0.999	
42.00	-68.310	19.352	
43.00	-62.382	41.733	
44.00	-59.989	42.022	
45.00	-59.115	57.439	
46.00	-60.295	71.881	
47.00	-59.628	72.744	
48.00	-59.992	85.742	
49.00	-60.495	85.523	
50.00	-61.806	93.049	
51.00	-59.260	106.399	
52.00	-59.421	123.095	
53.00	-59.273	138.814	
54.00	-59.312	162.381	
55.00	-59.680	179.779	
56.00	-61.466	-154.871	
57.00	-63.426	-137.464	
58.00	-64.546	-121.898	
59.00	-70.849	-105.213	
60.00	-77.825	5.899	
61.00	-69.046	69.378	
62.00	-65.024	104.301	
63.00	-62.055	112.419	
64.00	-61.098	140.450	
65.00	-61.074	145.480	
66.00	-61.290	162.958	
67.00	-64.999	169.778	
68.00	-71.819	-164.046	
69.00	-76.666	-13.804	
70.00	-69.041	14.240	
71.00	-64.796	48.301	
72.00	-63.925	61.721	
73.00	-64.519	77.875	
74.00	-66.286	105.345	
75.00	-63.962	136.050	
76.00	-65.995	174.284	
77.00	-65.123	-146.297	
78.00	-64.042	-107.877	
79.00	-62.069	-88.505	
80.00	-60.080	-58.863	
81.00	-58.412	-42.169	
82.00	-57.994	-11.760	
83.00	-57.623	-10.606	
84.00	-58.333	-14.094	
85.00	-60.487	-10.608	
86.00	-58.198	38.457	
87.00	-61.781	114.089	
88.00	-62.637	55.102	
89.00	-64.192	96.770	
90.00	-62.839	123.552	
91.00	-59.549	-158.405	
92.00	-60.170	-151.390	
93.00	-61.455	-151.389	
94.00	-57.924	-116.694	
95.00	-58.757	-120.142	
96.00	-59.701	-109.525	
97.00	-58.551	-104.124	
98.00	-58.688	-95.844	
99.00	-60.840	-79.923	
100.00	-60.189	-79.941	
101.00	-59.249	-73.416	
102.00	-61.516	-64.635	
103.00	-62.906	-55.841	
104.00	-65.959	-54.179	
105.00	-68.892	-23.258	
106.00	-72.986	-26.146	
107.00	-71.546	73.918	
108.00	-68.368	82.970	
109.00	-64.519	105.323	
110.00	-64.242	114.490	
111.00	-62.956	116.320	
112.00	-61.892	116.303	
113.00	-62.835	122.077	
114.00	-61.859	119.940	
115.00	-61.887	127.316	
116.00	-60.442	127.849	
117.00	-59.183	135.013	
118.00	-58.784	137.747	
119.00	-57.835	153.941	
120.00	-55.561	165.273	
121.00	-54.315	-179.272	
122.00	-53.451	-158.953	
123.00	-51.306	-151.998	
124.00	-50.310	-135.753	
125.00	-50.278	-122.245	
126.00	-50.666	-110.727	
127.00	-51.224	-96.024	
128.00	-51.912	-88.105	
129.00	-54.270	-69.395	
130.00	-58.655	-51.530	
131.00	-63.797	-17.162	
132.00	-63.929	95.786	
133.00	-57.166	134.366	
134.00	-52.454	154.146	
135.00	-49.761	178.184	
136.00	-47.511	-166.617	
137.00	-45.609	-152.370	
138.00	-44.474	-137.704	
139.00	-43.710	-125.885	
140.00	-43.618	-113.467	
141.00	-43.723	-100.037	
142.00	-44.677	-88.418	
143.00	-46.383	-75.976	
144.00	-48.886	-60.495	
145.00	-52.792	-41.001	
146.00	-59.176	-2.573	
147.00	-59.424	83.315	
148.00	-53.803	122.315	
149.00	-50.280	140.572	
150.00	-48.726	152.607	
151.00	-48.072	165.258	
152.00	-48.661	176.573	
153.00	-49.648	-170.418	
154.00	-50.838	-152.018	
155.00	-51.793	-131.197	
156.00	-52.273	-111.602	
157.00	-52.372	-94.477	
158.00	-52.024	-82.092	
159.00	-52.290	-76.302	
160.00	-52.821	-73.857	
161.00	-54.179	-79.887	
162.00	-56.340	-88.920	
163.00	-60.273	-123.383	
164.00	-59.368	175.887	
165.00	-53.753	146.301	
166.00	-49.760	133.183	
167.00	-47.080	125.783	
168.00	-45.379	120.798	
169.00	-44.714	116.021	
170.00	-44.925	111.289	
171.00	-46.014	104.387	
172.00	-48.333	93.593	
173.00	-51.747	72.086	
174.00	-55.690	32.037	
175.00	-55.345	-30.923	
176.00	-52.452	-76.566	
177.00	-48.498	-116.185	
178.00	-43.766	-143.128	
179.00	-39.464	-160.036	
180.00	-35.921	-170.257	
181.00	-33.247	-176.910	
182.00	-31.192	177.764	
183.00	-29.823	173.907	
184.00	-28.939	170.251	
185.00	-28.575	167.068	
186.00	-28.725	164.061	
187.00	-29.396	160.927	
188.00	-30.632	158.192	
189.00	-32.545	155.501	
190.00	-35.272	153.099	
191.00	-39.052	151.787	
192.00	-45.035	154.364	
193.00	-55.786	173.625	
194.00	-55.415	-68.830	
195.00	-50.837	-53.820	
196.00	-51.026	-49.903	
197.00	-54.046	-39.111	
198.00	-58.325	13.090	
199.00	-53.895	63.005	
200.00	-49.737	73.888	
201.00	-48.291	72.613	
202.00	-48.624	68.563	
203.00	-51.400	61.596	
204.00	-57.567	52.695	
205.00	-64.079	-79.956	
206.00	-53.399	-118.737	
207.00	-49.836	-130.140	
208.00	-48.246	-138.647	
209.00	-48.341	-147.628	
210.00	-50.073	-153.361	
211.00	-54.303	-158.854	
212.00	-64.998	-127.465	
213.00	-56.456	-30.794	
214.00	-49.869	-29.482	
215.00	-46.657	-39.128	
216.00	-44.959	-49.448	
217.00	-44.176	-59.228	
218.00	-44.202	-70.953	
219.00	-44.915	-81.000	
220.00	-46.248	-92.208	
221.00	-48.685	-106.293	
222.00	-52.861	-118.358	
223.00	-61.817	-120.141	
224.00	-63.439	14.914	
225.00	-54.165	14.058	
226.00	-50.126	0.057	
227.00	-48.025	-12.078	
228.00	-46.775	-26.137	
229.00	-46.131	-38.618	
230.00	-46.153	-50.869	
231.00	-46.482	-62.930	
232.00	-47.073	-74.775	
233.00	-48.160	-85.683	
234.00	-49.400	-97.179	
235.00	-51.083	-106.712	
236.00	-52.537	-114.655	
237.00	-54.245	-115.890	
238.00	-55.633	-121.832	
239.00	-56.775	-122.098	
240.00	-56.946	-124.391	
241.00	-56.768	-129.492	
242.00	-56.923	-136.154	
243.00	-57.773	-145.011	
244.00	-58.576	-152.704	
245.00	-60.023	-164.076	
246.00	-61.702	-176.854	
247.00	-65.305	170.321	
248.00	-68.407	155.938	
249.00	-72.256	150.881	
250.00	-79.209	138.019	
251.00	-82.366	128.651	
252.00	-83.591	129.549	
253.00	-82.384	-160.099	
254.00	-83.452	103.946	
255.00	-75.432	143.105	
256.00	-79.711	109.469	
257.00	-71.638	77.747	
258.00	-69.050	66.675	
259.00	-68.668	47.310	
260.00	-68.515	32.290	
261.00	-68.307	22.830	
262.00	-69.034	-4.925	
263.00	-69.448	-10.513	
264.00	-68.766	-28.944	
265.00	-70.800	-46.409	
266.00	-71.022	-64.348	
267.00	-72.498	-88.510	
268.00	-73.598	-98.377	
269.00	-73.178	-126.825	
270.00	-70.790	-141.195	
271.00	-69.499	-157.888	
272.00	-69.301	-159.278	
273.00	-69.708	-145.347	
274.00	-69.137	-141.656	
275.00	-69.941	-166.850	
276.00	-69.326	-143.209	
277.00	-77.083	-149.809	
278.00	-75.099	-125.067	
279.00	-75.313	-95.174	
280.00	-68.854	-63.274	
281.00	-69.589	-58.028	
282.00	-66.178	-63.889	
283.00	-65.520	-55.240	
284.00	-65.710	-74.756	
285.00	-63.166	-70.018	
286.00	-64.304	-81.491	
287.00	-64.043	-93.895	
288.00	-64.345	-93.220	
289.00	-64.849	-88.947	
290.00	-65.584	-66.015	
291.00	-67.312	-57.958	
292.00	-67.137	-53.602	
293.00	-65.647	-38.146	
294.00	-65.778	-48.414	
295.00	-65.145	-20.188	
296.00	-63.646	-27.612	
297.00	-64.156	-9.844	
298.00	-63.948	-31.349	
299.00	-64.546	-34.072	
300.00	-64.973	-23.634	
301.00	-66.144	-24.272	
302.00	-66.946	-29.073	
303.00	-66.240	-34.502	
304.00	-67.862	-30.887	
305.00	-67.644	-28.141	
306.00	-69.863	-25.291	
307.00	-70.466	-28.252	
308.00	-70.521	8.911	
309.00	-70.162	17.014	
310.00	-70.480	37.070	
311.00	-68.416	37.809	
312.00	-66.973	45.097	
313.00	-65.188	41.534	
314.00	-66.491	45.632	
315.00	-68.171	8.345	
316.00	-67.346	-8.879	
317.00	-67.702	-27.049	
318.00	-68.791	-58.043	
319.00	-66.064	-62.328	
320.00	-65.294	-79.913	
321.00	-66.875	-85.413	
322.00	-68.626	-76.071	
323.00	-72.625	-88.627	
324.00	-68.839	-44.033	
325.00	-71.753	-32.367	
326.00	-66.591	-38.098	
327.00	-65.901	-44.052	
328.00	-64.829	-53.149	
329.00	-65.327	-68.958	
330.00	-68.438	-78.326	
331.00	-68.764	-108.245	
332.00	-70.617	-150.872	
333.00	-67.941	149.662	
334.00	-66.480	128.709	
335.00	-62.790	101.173	
336.00	-62.203	88.887	
337.00	-60.504	79.650	
338.00	-60.974	61.109	
339.00	-61.056	47.338	
340.00	-61.061	42.049	
341.00	-63.681	53.257	
342.00	-65.268	45.693	
343.00	-66.861	44.604	
344.00	-71.738	50.931	
345.00	-71.436	70.075	
346.00	-76.315	-19.048	
347.00	-77.527	-68.700	
348.00	-82.120	-80.331	
349.00	-69.526	-132.296	
350.00	-66.120	-159.421	
351.00	-65.895	-158.030	
352.00	-61.538	-161.334	
353.00	-61.207	177.488	
354.00	-60.444	172.771	
355.00	-60.085	169.298	
356.00	-59.309	159.889	
357.00	-59.654	156.310	
358.00	-59.878	149.841	
359.00	-59.604	139.453	
Frequency	2350.00	MHz	
Channel	test		
Scan Axis name	Azimuth  [deg]		
Scan Axis	Amplitude	Phase	
			
0.00	-61.969	-58.692	
1.00	-64.850	-49.925	
2.00	-68.578	-32.014	
3.00	-69.256	-5.147	
4.00	-66.916	14.065	
5.00	-63.907	21.892	
6.00	-61.966	24.571	
7.00	-60.597	25.562	
8.00	-60.164	28.114	
9.00	-60.273	30.338	
10.00	-60.739	29.681	
11.00	-61.803	36.847	
12.00	-63.404	36.742	
13.00	-65.884	44.907	
14.00	-70.090	58.805	
15.00	-77.634	129.079	
16.00	-72.258	-162.789	
17.00	-67.755	-140.792	
18.00	-65.980	-143.495	
19.00	-66.008	-132.670	
20.00	-68.767	-130.146	
21.00	-71.619	-139.130	
22.00	-76.858	172.534	
23.00	-72.629	94.962	
24.00	-67.613	77.471	
25.00	-64.719	77.745	
26.00	-63.315	75.608	
27.00	-62.467	81.085	
28.00	-62.947	88.087	
29.00	-64.485	92.797	
30.00	-67.136	96.874	
31.00	-69.345	97.796	
32.00	-73.048	75.946	
33.00	-76.766	48.951	
34.00	-76.452	52.345	
35.00	-85.756	45.168	
36.00	-89.941	-63.595	
37.00	-71.982	-55.280	
38.00	-73.876	-55.404	
39.00	-73.487	-62.064	
40.00	-73.190	-72.989	
41.00	-75.756	-105.102	
42.00	-69.884	-152.552	
43.00	-64.807	-162.233	
44.00	-62.522	-152.167	
45.00	-61.053	-147.224	
46.00	-60.449	-141.176	
47.00	-60.598	-135.779	
48.00	-62.003	-131.034	
49.00	-61.956	-126.863	
50.00	-61.904	-131.459	
51.00	-62.759	-126.170	
52.00	-64.277	-112.582	
53.00	-65.466	-104.975	
54.00	-68.831	-88.069	
55.00	-84.268	-84.605	
56.00	-74.552	90.333	
57.00	-67.256	111.549	
58.00	-63.986	131.335	
59.00	-62.230	154.361	
60.00	-61.743	179.328	
61.00	-60.938	-147.669	
62.00	-58.972	-117.945	
63.00	-57.683	-92.009	
64.00	-56.606	-69.609	
65.00	-56.281	-53.283	
66.00	-56.788	-36.999	
67.00	-58.141	-20.046	
68.00	-61.046	-1.926	
69.00	-66.224	29.542	
70.00	-72.306	101.405	
71.00	-66.713	-176.406	
72.00	-61.881	-148.486	
73.00	-60.019	-129.172	
74.00	-58.417	-109.228	
75.00	-57.762	-91.753	
76.00	-57.864	-69.801	
77.00	-58.881	-49.769	
78.00	-60.615	-28.246	
79.00	-61.550	-2.217	
80.00	-62.836	34.670	
81.00	-63.538	77.554	
82.00	-61.988	120.052	
83.00	-60.391	135.520	
84.00	-59.147	168.544	
85.00	-62.018	-175.804	
86.00	-56.636	-112.996	
87.00	-54.611	-158.103	
88.00	-57.209	-57.463	
89.00	-57.516	-62.173	
90.00	-57.127	-80.218	
91.00	-58.290	-20.292	
92.00	-59.944	-46.401	
93.00	-55.562	0.389	
94.00	-57.416	11.444	
95.00	-60.981	41.608	
96.00	-60.449	61.086	
97.00	-59.785	89.024	
98.00	-61.267	110.745	
99.00	-62.171	142.688	
100.00	-60.202	172.794	
101.00	-61.020	-148.239	
102.00	-59.858	-125.552	
103.00	-59.499	-104.832	
104.00	-59.583	-84.560	
105.00	-59.663	-65.594	
106.00	-60.040	-46.546	
107.00	-61.983	-24.262	
108.00	-62.673	-4.339	
109.00	-63.721	21.639	
110.00	-64.083	45.601	
111.00	-63.072	72.903	
112.00	-62.985	87.524	
113.00	-61.631	94.789	
114.00	-61.160	103.279	
115.00	-61.700	107.635	
116.00	-61.955	111.668	
117.00	-62.457	117.846	
118.00	-64.297	123.677	
119.00	-68.311	136.797	
120.00	-76.740	-167.614	
121.00	-68.199	-79.871	
122.00	-61.233	-50.659	
123.00	-57.139	-36.256	
124.00	-54.358	-26.945	
125.00	-53.125	-17.223	
126.00	-52.303	-7.233	
127.00	-52.281	6.604	
128.00	-53.531	17.282	
129.00	-55.417	33.392	
130.00	-59.188	57.280	
131.00	-64.369	114.630	
132.00	-61.350	-166.392	
133.00	-56.822	-126.864	
134.00	-53.791	-99.077	
135.00	-51.372	-74.661	
136.00	-49.114	-51.346	
137.00	-47.133	-30.404	
138.00	-45.545	-12.669	
139.00	-44.445	3.009	
140.00	-43.876	18.261	
141.00	-43.951	32.609	
142.00	-44.593	49.101	
143.00	-45.831	66.275	
144.00	-47.610	88.487	
145.00	-49.610	116.137	
146.00	-51.263	153.853	
147.00	-51.143	-162.540	
148.00	-49.024	-129.806	
149.00	-47.129	-106.132	
150.00	-45.755	-89.581	
151.00	-45.040	-76.602	
152.00	-45.076	-64.608	
153.00	-45.675	-54.662	
154.00	-46.801	-43.588	
155.00	-48.426	-33.723	
156.00	-50.296	-23.648	
157.00	-52.629	-12.383	
158.00	-55.252	-2.338	
159.00	-57.866	9.012	
160.00	-60.641	24.045	
161.00	-63.284	37.237	
162.00	-67.535	45.237	
163.00	-77.368	-27.683	
164.00	-62.955	-98.176	
165.00	-55.573	-103.259	
166.00	-51.225	-103.428	
167.00	-48.292	-103.909	
168.00	-46.564	-104.309	
169.00	-45.759	-104.757	
170.00	-45.830	-105.879	
171.00	-46.803	-108.885	
172.00	-48.608	-116.514	
173.00	-50.697	-130.649	
174.00	-51.891	-149.419	
175.00	-51.875	-157.606	
176.00	-51.161	-144.360	
177.00	-47.922	-115.441	
178.00	-43.013	-96.363	
179.00	-38.503	-87.065	
180.00	-34.906	-82.658	
181.00	-32.147	-80.545	
182.00	-30.069	-79.654	
183.00	-28.643	-79.447	
184.00	-27.728	-79.696	
185.00	-27.350	-80.414	
186.00	-27.481	-81.466	
187.00	-28.167	-82.826	
188.00	-29.420	-84.434	
189.00	-31.411	-86.078	
190.00	-34.237	-87.525	
191.00	-38.351	-87.939	
192.00	-44.956	-84.476	
193.00	-58.312	-36.940	
194.00	-50.675	59.506	
195.00	-47.156	65.637	
196.00	-47.089	67.147	
197.00	-49.382	70.994	
198.00	-54.114	90.080	
199.00	-55.760	150.582	
200.00	-50.912	177.413	
201.00	-48.175	179.996	
202.00	-47.327	175.158	
203.00	-48.018	167.664	
204.00	-50.426	157.643	
205.00	-55.726	145.388	
206.00	-72.917	67.989	
207.00	-56.862	-41.677	
208.00	-51.784	-58.609	
209.00	-49.562	-74.874	
210.00	-48.918	-91.942	
211.00	-49.142	-112.147	
212.00	-50.207	-138.175	
213.00	-51.185	-171.687	
214.00	-50.842	147.839	
215.00	-49.097	111.735	
216.00	-47.022	87.688	
217.00	-45.660	66.593	
218.00	-45.099	52.042	
219.00	-45.298	38.694	
220.00	-46.227	26.121	
221.00	-48.085	15.045	
222.00	-51.506	6.322	
223.00	-56.957	7.600	
224.00	-61.888	66.120	
225.00	-55.682	101.579	
226.00	-51.349	97.860	
227.00	-49.182	86.731	
228.00	-47.994	74.131	
229.00	-47.563	60.461	
230.00	-47.530	46.377	
231.00	-48.019	31.681	
232.00	-48.789	17.090	
233.00	-49.977	2.370	
234.00	-51.520	-11.375	
235.00	-53.407	-23.548	
236.00	-55.969	-32.006	
237.00	-58.744	-35.522	
238.00	-61.519	-28.667	
239.00	-63.168	-19.961	
240.00	-62.993	-11.058	
241.00	-62.818	-15.552	
242.00	-62.673	-30.224	
243.00	-63.165	-51.616	
244.00	-63.207	-74.727	
245.00	-62.716	-102.868	
246.00	-62.113	-127.714	
247.00	-61.568	-147.239	
248.00	-61.523	-168.079	
249.00	-61.938	174.283	
250.00	-63.483	161.101	
251.00	-65.979	143.323	
252.00	-70.243	119.748	
253.00	-77.868	74.371	
254.00	-75.877	-31.888	
255.00	-69.380	-56.101	
256.00	-65.893	-72.346	
257.00	-64.313	-84.041	
258.00	-63.472	-93.297	
259.00	-63.900	-100.561	
260.00	-64.687	-109.418	
261.00	-66.176	-116.591	
262.00	-68.118	-121.413	
263.00	-72.246	-122.575	
264.00	-75.721	-111.393	
265.00	-82.563	-79.876	
266.00	-82.887	-35.747	
267.00	-80.214	-13.549	
268.00	-78.830	-11.825	
269.00	-79.478	-27.527	
270.00	-84.332	-25.656	
271.00	-86.479	-52.880	
272.00	-82.856	-89.609	
273.00	-82.758	-114.550	
274.00	-80.174	-143.759	
275.00	-77.641	-153.889	
276.00	-75.033	-160.401	
277.00	-74.337	-167.928	
278.00	-72.609	-176.677	
279.00	-71.481	168.110	
280.00	-70.724	159.674	
281.00	-71.465	147.967	
282.00	-70.125	136.313	
283.00	-71.477	122.776	
284.00	-72.123	104.585	
285.00	-73.226	89.761	
286.00	-73.266	73.182	
287.00	-73.148	63.461	
288.00	-74.425	66.751	
289.00	-72.893	83.545	
290.00	-71.782	100.419	
291.00	-69.276	105.236	
292.00	-67.797	106.240	
293.00	-66.995	104.844	
294.00	-67.556	97.504	
295.00	-68.723	92.602	
296.00	-70.418	72.538	
297.00	-73.965	49.554	
298.00	-80.426	5.487	
299.00	-79.206	-84.726	
300.00	-73.436	-121.894	
301.00	-69.592	-147.314	
302.00	-67.050	-171.340	
303.00	-64.711	169.849	
304.00	-63.735	152.940	
305.00	-62.962	137.194	
306.00	-62.598	121.600	
307.00	-62.328	103.629	
308.00	-62.814	85.888	
309.00	-63.681	70.681	
310.00	-65.123	55.259	
311.00	-67.262	39.982	
312.00	-72.143	21.074	
313.00	-80.628	-3.835	
314.00	-86.915	-151.079	
315.00	-77.595	177.313	
316.00	-77.333	132.706	
317.00	-75.203	75.007	
318.00	-70.289	38.387	
319.00	-65.973	18.764	
320.00	-63.276	5.346	
321.00	-61.837	-4.841	
322.00	-62.009	-15.190	
323.00	-62.901	-20.820	
324.00	-65.331	-22.295	
325.00	-71.112	-21.791	
326.00	-78.210	45.000	
327.00	-70.201	103.973	
328.00	-65.040	105.435	
329.00	-62.610	102.223	
330.00	-61.619	97.760	
331.00	-61.378	92.923	
332.00	-62.138	89.021	
333.00	-64.049	84.237	
334.00	-67.286	76.015	
335.00	-74.558	64.463	
336.00	-79.141	-23.588	
337.00	-70.949	-79.402	
338.00	-66.686	-95.694	
339.00	-64.530	-104.378	
340.00	-62.725	-109.573	
341.00	-62.158	-120.272	
342.00	-62.086	-130.973	
343.00	-62.908	-137.049	
344.00	-65.045	-153.346	
345.00	-69.529	-171.043	
346.00	-73.062	153.634	
347.00	-76.308	79.334	
348.00	-71.487	25.801	
349.00	-66.882	-6.060	
350.00	-63.545	-24.231	
351.00	-60.809	-37.354	
352.00	-59.069	-44.753	
353.00	-57.904	-50.987	
354.00	-57.256	-56.120	
355.00	-57.070	-61.146	
356.00	-57.146	-63.492	
357.00	-57.627	-64.999	
358.00	-58.489	-63.699	
359.00	-59.358	-60.560	
Frequency	2400.00	MHz	
Channel	test		
Scan Axis name	Azimuth  [deg]		
Scan Axis	Amplitude	Phase	
			
0.00	-68.708	111.251	
1.00	-68.575	149.587	
2.00	-66.412	166.500	
3.00	-64.209	169.350	
4.00	-63.016	-179.299	
5.00	-62.261	175.298	
6.00	-61.706	177.310	
7.00	-61.799	-179.219	
8.00	-62.119	-175.707	
9.00	-62.826	-166.027	
10.00	-63.603	-157.634	
11.00	-64.028	-148.436	
12.00	-64.124	-139.598	
13.00	-64.026	-127.224	
14.00	-64.676	-134.706	
15.00	-68.220	-133.398	
16.00	-82.217	-101.981	
17.00	-78.595	43.498	
18.00	-69.259	60.029	
19.00	-65.815	71.622	
20.00	-64.938	77.457	
21.00	-64.119	85.672	
22.00	-64.768	94.573	
23.00	-64.728	102.012	
24.00	-66.062	112.962	
25.00	-67.845	127.104	
26.00	-68.821	138.511	
27.00	-70.564	149.691	
28.00	-74.301	171.924	
29.00	-75.927	-159.668	
30.00	-80.279	-154.237	
31.00	-82.813	-104.974	
32.00	-84.042	-117.938	
33.00	-86.536	-111.040	
34.00	-86.608	-106.210	
35.00	-75.442	-12.983	
36.00	-90.510	173.494	
37.00	-83.096	-40.213	
38.00	-85.947	-74.303	
39.00	-89.415	143.608	
40.00	-83.522	55.942	
41.00	-97.829	-112.024	
42.00	-111.558	36.249	
43.00	-80.627	-6.742	
44.00	-77.252	-8.286	
45.00	-77.836	20.795	
46.00	-77.288	25.317	
47.00	-81.668	3.903	
48.00	-80.942	-27.669	
49.00	-78.836	-66.745	
50.00	-74.291	-81.638	
51.00	-68.589	-68.899	
52.00	-66.939	-59.687	
53.00	-68.815	-58.761	
54.00	-67.500	-42.693	
55.00	-69.884	-42.247	
56.00	-73.355	-43.807	
57.00	-71.396	-91.754	
58.00	-68.520	-78.507	
59.00	-68.795	-73.441	
60.00	-69.665	-66.874	
61.00	-70.862	-53.428	
62.00	-75.031	-17.208	
63.00	-82.527	70.454	
64.00	-71.926	145.807	
65.00	-66.494	165.163	
66.00	-62.977	175.521	
67.00	-61.796	-169.540	
68.00	-62.351	-152.938	
69.00	-62.250	-137.134	
70.00	-64.420	-112.027	
71.00	-67.966	-88.769	
72.00	-67.757	-28.475	
73.00	-66.196	14.123	
74.00	-64.633	42.585	
75.00	-63.655	71.639	
76.00	-62.639	96.916	
77.00	-62.599	126.517	
78.00	-62.363	154.215	
79.00	-61.851	-179.662	
80.00	-61.075	-155.686	
81.00	-60.410	-122.001	
82.00	-59.204	-115.205	
83.00	-58.881	-70.900	
84.00	-60.081	-50.755	
85.00	-58.709	-49.394	
86.00	-62.285	-15.631	
87.00	-59.164	4.260	
88.00	-58.479	10.437	
89.00	-55.706	57.507	
90.00	-62.176	72.554	
91.00	-55.745	95.154	
92.00	-57.423	109.379	
93.00	-56.230	132.869	
94.00	-59.238	140.465	
95.00	-57.855	173.530	
96.00	-59.576	-165.849	
97.00	-59.811	-135.385	
98.00	-59.054	-110.004	
99.00	-58.922	-84.402	
100.00	-57.886	-62.730	
101.00	-58.229	-44.120	
102.00	-58.651	-23.348	
103.00	-59.158	-4.061	
104.00	-61.505	10.227	
105.00	-62.752	40.638	
106.00	-64.499	60.920	
107.00	-65.211	96.927	
108.00	-68.080	129.514	
109.00	-69.304	154.029	
110.00	-68.684	-172.138	
111.00	-68.832	-127.222	
112.00	-67.778	-83.548	
113.00	-66.728	-53.665	
114.00	-65.984	-33.722	
115.00	-65.358	-17.613	
116.00	-65.001	-2.242	
117.00	-63.961	23.001	
118.00	-64.490	38.965	
119.00	-64.078	55.892	
120.00	-61.864	72.063	
121.00	-58.895	85.774	
122.00	-57.204	95.374	
123.00	-54.731	103.772	
124.00	-52.835	112.050	
125.00	-51.391	120.862	
126.00	-50.702	128.816	
127.00	-50.502	135.243	
128.00	-51.281	142.148	
129.00	-52.307	155.200	
130.00	-54.387	160.195	
131.00	-58.130	156.817	
132.00	-61.494	149.605	
133.00	-62.809	115.902	
134.00	-58.148	98.625	
135.00	-54.680	106.694	
136.00	-51.763	117.120	
137.00	-49.495	131.756	
138.00	-47.936	144.805	
139.00	-46.841	157.960	
140.00	-46.391	171.213	
141.00	-46.683	-175.682	
142.00	-47.604	-159.743	
143.00	-48.898	-142.420	
144.00	-51.475	-114.905	
145.00	-53.396	-79.116	
146.00	-53.315	-36.081	
147.00	-51.699	-0.352	
148.00	-49.689	21.002	
149.00	-48.337	39.278	
150.00	-47.733	53.187	
151.00	-47.647	65.136	
152.00	-47.938	76.738	
153.00	-48.672	87.122	
154.00	-49.753	99.861	
155.00	-50.853	111.835	
156.00	-52.027	123.347	
157.00	-52.845	137.143	
158.00	-53.860	149.600	
159.00	-54.393	162.262	
160.00	-54.701	172.643	
161.00	-56.337	178.288	
162.00	-58.615	174.330	
163.00	-63.327	143.566	
164.00	-59.839	76.871	
165.00	-53.743	58.834	
166.00	-49.990	53.392	
167.00	-47.942	52.913	
168.00	-47.048	52.107	
169.00	-47.066	53.534	
170.00	-48.623	53.216	
171.00	-51.473	49.387	
172.00	-58.024	41.740	
173.00	-66.051	-47.497	
174.00	-59.811	-96.971	
175.00	-62.265	-105.986	
176.00	-59.247	85.027	
177.00	-46.573	81.090	
178.00	-40.025	79.279	
179.00	-35.453	78.651	
180.00	-32.081	77.886	
181.00	-29.587	77.265	
182.00	-27.732	76.451	
183.00	-26.493	75.623	
184.00	-25.753	74.678	
185.00	-25.521	73.443	
186.00	-25.792	72.217	
187.00	-26.588	70.904	
188.00	-27.935	69.615	
189.00	-29.995	68.697	
190.00	-32.861	68.531	
191.00	-36.970	70.407	
192.00	-43.003	80.835	
193.00	-50.858	128.690	
194.00	-47.849	-168.495	
195.00	-45.641	-155.257	
196.00	-45.939	-151.159	
197.00	-48.243	-148.065	
198.00	-53.807	-133.362	
199.00	-57.975	-61.161	
200.00	-52.375	-25.614	
201.00	-49.868	-21.925	
202.00	-49.883	-25.025	
203.00	-52.426	-29.660	
204.00	-59.537	-35.715	
205.00	-64.194	134.388	
206.00	-53.194	129.855	
207.00	-49.619	121.777	
208.00	-48.122	112.658	
209.00	-48.402	103.770	
210.00	-50.441	90.355	
211.00	-54.917	72.455	
212.00	-63.478	0.708	
213.00	-54.834	-81.456	
214.00	-49.725	-104.774	
215.00	-46.872	-119.154	
216.00	-45.428	-131.434	
217.00	-44.713	-144.628	
218.00	-45.053	-155.891	
219.00	-45.782	-166.040	
220.00	-47.254	-174.392	
221.00	-49.744	-179.446	
222.00	-53.241	-176.582	
223.00	-55.876	-151.660	
224.00	-55.148	-123.899	
225.00	-52.476	-113.331	
226.00	-50.849	-117.649	
227.00	-49.878	-122.337	
228.00	-50.078	-131.453	
229.00	-50.669	-144.014	
230.00	-51.448	-154.371	
231.00	-52.896	-168.405	
232.00	-54.650	175.690	
233.00	-56.276	159.815	
234.00	-57.499	145.569	
235.00	-58.069	133.532	
236.00	-58.507	126.779	
237.00	-58.321	117.023	
238.00	-58.143	110.726	
239.00	-58.228	100.837	
240.00	-59.343	81.959	
241.00	-59.373	71.141	
242.00	-58.952	45.396	
243.00	-57.756	30.247	
244.00	-59.602	2.692	
245.00	-58.462	-22.996	
246.00	-58.785	-43.431	
247.00	-58.455	-60.311	
248.00	-59.503	-80.226	
249.00	-60.174	-97.007	
250.00	-61.027	-118.506	
251.00	-63.081	-139.541	
252.00	-65.239	-163.837	
253.00	-66.808	156.503	
254.00	-68.420	126.084	
255.00	-68.565	95.469	
256.00	-67.324	55.079	
257.00	-67.863	52.716	
258.00	-68.800	37.349	
259.00	-71.980	34.828	
260.00	-74.579	37.835	
261.00	-79.407	63.727	
262.00	-77.043	106.101	
263.00	-74.107	115.294	
264.00	-71.181	114.220	
265.00	-72.206	103.254	
266.00	-70.594	90.734	
267.00	-72.172	83.667	
268.00	-72.098	76.316	
269.00	-72.477	58.853	
270.00	-72.536	55.416	
271.00	-73.560	51.819	
272.00	-73.907	51.923	
273.00	-73.644	54.886	
274.00	-71.645	45.420	
275.00	-71.035	38.951	
276.00	-70.271	31.649	
277.00	-70.092	18.583	
278.00	-71.214	1.348	
279.00	-68.975	-13.879	
280.00	-69.457	-25.367	
281.00	-69.112	-51.320	
282.00	-71.006	-65.162	
283.00	-71.253	-102.700	
284.00	-70.284	-129.579	
285.00	-69.714	-167.583	
286.00	-69.234	-166.848	
287.00	-70.190	-178.910	
288.00	-70.946	177.139	
289.00	-72.664	-158.442	
290.00	-74.210	-136.921	
291.00	-71.114	-119.688	
292.00	-69.070	-120.439	
293.00	-67.105	-128.078	
294.00	-67.140	-142.812	
295.00	-65.818	-153.126	
296.00	-66.292	-176.273	
297.00	-65.452	161.238	
298.00	-65.481	136.191	
299.00	-65.474	113.041	
300.00	-65.304	88.097	
301.00	-65.317	62.322	
302.00	-64.568	33.596	
303.00	-63.853	10.034	
304.00	-63.731	-11.014	
305.00	-63.598	-29.753	
306.00	-64.459	-45.446	
307.00	-65.345	-62.671	
308.00	-67.749	-77.948	
309.00	-71.758	-97.846	
310.00	-79.230	-138.785	
311.00	-82.080	129.655	
312.00	-75.739	80.839	
313.00	-73.454	53.436	
314.00	-75.314	31.445	
315.00	-75.828	-17.297	
316.00	-74.217	-77.984	
317.00	-69.370	-113.561	
318.00	-65.884	-133.890	
319.00	-63.692	-146.435	
320.00	-62.192	-157.244	
321.00	-61.390	-168.890	
322.00	-61.689	-177.996	
323.00	-62.025	170.076	
324.00	-63.847	160.326	
325.00	-65.455	146.358	
326.00	-68.101	125.011	
327.00	-71.806	88.341	
328.00	-72.418	47.465	
329.00	-70.901	12.820	
330.00	-70.640	-4.588	
331.00	-70.248	-14.137	
332.00	-72.279	-17.638	
333.00	-74.640	1.806	
334.00	-75.204	36.388	
335.00	-70.807	40.100	
336.00	-66.438	45.829	
337.00	-64.880	39.169	
338.00	-62.905	42.028	
339.00	-63.323	25.187	
340.00	-62.667	20.489	
341.00	-63.699	5.971	
342.00	-70.424	8.866	
343.00	-72.661	45.449	
344.00	-71.835	20.284	
345.00	-74.090	148.824	
346.00	-74.195	144.428	
347.00	-73.127	138.546	
348.00	-71.856	147.951	
349.00	-71.233	139.784	
350.00	-68.082	116.009	
351.00	-69.211	118.442	
352.00	-68.843	100.874	
353.00	-66.068	95.796	
354.00	-65.419	104.260	
355.00	-63.724	85.691	
356.00	-63.329	86.837	
357.00	-63.885	77.536	
358.00	-64.724	82.507	
359.00	-66.713	83.715	
Frequency	2450.00	MHz	
Channel	test		
Scan Axis name	Azimuth  [deg]		
Scan Axis	Amplitude	Phase	
			
0.00	-63.680	3.963	
1.00	-61.520	6.073	
2.00	-60.109	8.703	
3.00	-59.192	2.646	
4.00	-59.030	3.915	
5.00	-59.811	-2.407	
6.00	-61.421	-10.157	
7.00	-62.589	-22.209	
8.00	-63.919	-32.505	
9.00	-65.454	-46.674	
10.00	-67.227	-52.443	
11.00	-68.744	-70.712	
12.00	-71.768	-89.189	
13.00	-72.609	-116.166	
14.00	-72.934	-142.172	
15.00	-71.368	-155.840	
16.00	-68.770	-168.281	
17.00	-66.227	-164.682	
18.00	-63.814	-161.990	
19.00	-62.469	-151.533	
20.00	-61.222	-145.816	
21.00	-61.090	-137.654	
22.00	-61.951	-130.987	
23.00	-62.068	-121.797	
24.00	-63.605	-107.401	
25.00	-65.786	-82.288	
26.00	-66.827	-59.050	
27.00	-67.158	-30.154	
28.00	-66.331	-0.142	
29.00	-64.172	19.033	
30.00	-64.108	28.636	
31.00	-64.270	36.722	
32.00	-65.381	39.820	
33.00	-66.195	40.455	
34.00	-70.260	47.204	
35.00	-72.494	44.649	
36.00	-79.551	9.226	
37.00	-79.015	120.596	
38.00	-72.830	-149.188	
39.00	-69.932	-148.018	
40.00	-67.459	-135.103	
41.00	-64.886	-137.828	
42.00	-65.388	-133.823	
43.00	-62.933	-130.669	
44.00	-64.993	-118.113	
45.00	-64.493	-116.612	
46.00	-64.967	-112.449	
47.00	-65.604	-95.140	
48.00	-66.941	-63.649	
49.00	-67.193	-51.231	
50.00	-68.544	-16.183	
51.00	-67.770	15.819	
52.00	-66.590	23.307	
53.00	-67.548	41.761	
54.00	-68.708	32.528	
55.00	-71.954	34.331	
56.00	-71.314	23.326	
57.00	-75.522	38.528	
58.00	-74.081	99.134	
59.00	-72.575	126.396	
60.00	-67.280	149.266	
61.00	-64.464	163.299	
62.00	-62.403	172.099	
63.00	-61.906	-178.133	
64.00	-62.546	-163.931	
65.00	-64.959	-154.384	
66.00	-68.146	-140.341	
67.00	-76.022	-109.081	
68.00	-84.276	-26.484	
69.00	-72.512	53.863	
70.00	-73.346	72.870	
71.00	-73.210	125.287	
72.00	-75.464	-179.757	
73.00	-69.005	-129.809	
74.00	-64.696	-98.743	
75.00	-63.262	-79.308	
76.00	-62.204	-63.781	
77.00	-61.305	-45.992	
78.00	-62.561	-25.033	
79.00	-63.356	1.724	
80.00	-63.802	31.561	
81.00	-62.398	72.527	
82.00	-62.874	106.706	
83.00	-60.373	144.088	
84.00	-62.049	136.763	
85.00	-59.125	170.045	
86.00	-59.440	-174.982	
87.00	-58.877	-174.415	
88.00	-57.991	-133.262	
89.00	-55.515	-107.203	
90.00	-63.080	-96.239	
91.00	-57.205	-74.329	
92.00	-60.304	-33.514	
93.00	-57.439	-44.946	
94.00	-58.333	5.115	
95.00	-58.709	9.982	
96.00	-57.608	28.730	
97.00	-56.913	46.993	
98.00	-56.199	63.411	
99.00	-56.603	79.886	
100.00	-55.903	102.637	
101.00	-55.734	133.874	
102.00	-55.439	154.028	
103.00	-55.244	170.211	
104.00	-56.005	-173.865	
105.00	-56.054	-155.883	
106.00	-57.772	-139.032	
107.00	-59.690	-112.457	
108.00	-60.831	-77.157	
109.00	-60.473	-49.584	
110.00	-60.829	-19.768	
111.00	-60.756	12.624	
112.00	-61.563	50.847	
113.00	-61.650	79.682	
114.00	-60.567	117.139	
115.00	-59.615	150.260	
116.00	-58.381	168.130	
117.00	-58.096	-175.167	
118.00	-57.719	-159.433	
119.00	-58.592	-147.004	
120.00	-59.817	-131.531	
121.00	-60.697	-123.445	
122.00	-62.919	-106.326	
123.00	-61.968	-99.762	
124.00	-60.722	-90.293	
125.00	-58.849	-86.243	
126.00	-56.053	-85.477	
127.00	-53.947	-74.233	
128.00	-52.654	-67.999	
129.00	-51.524	-55.074	
130.00	-51.814	-47.161	
131.00	-52.326	-36.886	
132.00	-53.100	-28.311	
133.00	-55.548	-23.962	
134.00	-56.155	-28.586	
135.00	-56.602	-38.097	
136.00	-54.681	-53.747	
137.00	-51.895	-57.376	
138.00	-49.421	-53.328	
139.00	-47.923	-47.150	
140.00	-46.830	-36.482	
141.00	-46.373	-27.751	
142.00	-46.550	-16.485	
143.00	-47.215	-6.466	
144.00	-48.700	3.793	
145.00	-50.995	12.787	
146.00	-54.232	14.798	
147.00	-60.744	0.454	
148.00	-60.721	-68.465	
149.00	-55.248	-84.712	
150.00	-52.157	-83.446	
151.00	-50.732	-79.011	
152.00	-49.920	-69.339	
153.00	-49.917	-60.504	
154.00	-50.480	-48.555	
155.00	-50.649	-39.860	
156.00	-51.272	-31.094	
157.00	-51.758	-24.896	
158.00	-52.093	-20.134	
159.00	-51.984	-15.491	
160.00	-52.097	-15.819	
161.00	-52.503	-18.264	
162.00	-54.003	-24.647	
163.00	-56.133	-41.403	
164.00	-57.298	-81.936	
165.00	-54.340	-118.720	
166.00	-50.981	-133.416	
167.00	-48.939	-140.053	
168.00	-48.129	-142.893	
169.00	-48.576	-144.496	
170.00	-50.425	-146.130	
171.00	-54.439	-146.792	
172.00	-65.110	-145.399	
173.00	-62.357	5.919	
174.00	-55.149	-6.142	
175.00	-51.226	-35.465	
176.00	-46.315	-64.530	
177.00	-41.189	-82.863	
178.00	-36.886	-93.369	
179.00	-33.381	-99.691	
180.00	-30.655	-103.940	
181.00	-28.591	-107.387	
182.00	-27.071	-110.198	
183.00	-26.076	-112.653	
184.00	-25.560	-115.093	
185.00	-25.538	-117.244	
186.00	-26.016	-119.309	
187.00	-27.053	-121.406	
188.00	-28.704	-123.301	
189.00	-31.155	-124.817	
190.00	-34.623	-125.545	
191.00	-39.985	-123.708	
192.00	-49.803	-103.681	
193.00	-50.332	11.151	
194.00	-44.685	26.467	
195.00	-43.330	30.198	
196.00	-44.041	32.868	
197.00	-46.631	40.729	
198.00	-50.412	60.888	
199.00	-52.337	103.711	
200.00	-50.431	135.064	
201.00	-49.023	148.127	
202.00	-49.381	157.941	
203.00	-50.671	169.682	
204.00	-52.458	-164.265	
205.00	-51.388	-135.430	
206.00	-49.341	-119.729	
207.00	-48.129	-113.155	
208.00	-48.255	-114.749	
209.00	-50.011	-121.806	
210.00	-55.025	-139.925	
211.00	-62.445	134.232	
212.00	-52.693	71.125	
213.00	-47.870	55.184	
214.00	-44.982	44.697	
215.00	-43.540	34.597	
216.00	-43.056	25.945	
217.00	-43.122	17.841	
218.00	-44.341	10.828	
219.00	-46.092	4.285	
220.00	-48.757	-1.940	
221.00	-52.355	-3.691	
222.00	-57.779	4.999	
223.00	-62.366	46.541	
224.00	-59.808	81.007	
225.00	-56.797	86.682	
226.00	-54.602	82.064	
227.00	-53.577	76.608	
228.00	-52.912	72.471	
229.00	-52.251	66.647	
230.00	-52.184	58.596	
231.00	-51.952	50.594	
232.00	-51.846	40.909	
233.00	-51.740	30.626	
234.00	-52.013	14.602	
235.00	-52.225	1.996	
236.00	-52.778	-15.491	
237.00	-54.116	-33.897	
238.00	-54.965	-52.331	
239.00	-56.040	-81.133	
240.00	-57.359	-108.586	
241.00	-57.926	-139.701	
242.00	-57.951	-168.909	
243.00	-57.549	166.943	
244.00	-57.924	140.467	
245.00	-58.006	122.147	
246.00	-59.272	105.466	
247.00	-60.644	83.809	
248.00	-61.557	65.147	
249.00	-64.211	58.207	
250.00	-66.721	40.183	
251.00	-68.673	36.514	
252.00	-72.032	70.085	
253.00	-71.479	80.364	
254.00	-68.885	78.932	
255.00	-65.959	73.301	
256.00	-66.094	61.973	
257.00	-64.774	52.946	
258.00	-65.969	42.250	
259.00	-65.597	32.942	
260.00	-69.015	4.792	
261.00	-74.334	-3.288	
262.00	-85.573	-149.075	
263.00	-72.517	-177.979	
264.00	-68.452	165.084	
265.00	-66.407	153.076	
266.00	-62.773	141.422	
267.00	-63.198	120.241	
268.00	-61.390	104.569	
269.00	-61.362	91.175	
270.00	-63.231	76.163	
271.00	-61.794	55.881	
272.00	-63.082	38.935	
273.00	-63.199	19.036	
274.00	-62.951	-1.271	
275.00	-63.003	-15.429	
276.00	-63.717	-32.257	
277.00	-64.640	-66.725	
278.00	-65.157	-97.008	
279.00	-67.376	-113.691	
280.00	-69.522	-128.230	
281.00	-66.408	-147.986	
282.00	-68.877	169.435	
283.00	-66.143	-177.714	
284.00	-66.134	164.369	
285.00	-68.206	142.928	
286.00	-68.418	152.668	
287.00	-68.887	152.315	
288.00	-68.419	134.327	
289.00	-69.935	158.481	
290.00	-73.255	138.877	
291.00	-72.496	118.242	
292.00	-76.735	103.180	
293.00	-94.424	166.708	
294.00	-71.091	12.102	
295.00	-78.056	-83.457	
296.00	-68.379	-101.781	
297.00	-69.131	-99.042	
298.00	-66.449	-123.716	
299.00	-64.217	-128.083	
300.00	-62.924	-144.316	
301.00	-61.665	-153.827	
302.00	-62.616	-167.557	
303.00	-63.394	176.131	
304.00	-63.363	144.672	
305.00	-63.473	137.888	
306.00	-63.411	105.036	
307.00	-62.521	87.388	
308.00	-63.084	69.877	
309.00	-62.442	49.000	
310.00	-62.210	35.564	
311.00	-62.525	22.438	
312.00	-62.797	10.396	
313.00	-63.897	-2.863	
314.00	-63.782	-11.354	
315.00	-64.091	-22.383	
316.00	-64.004	-33.577	
317.00	-64.209	-45.753	
318.00	-63.216	-51.554	
319.00	-62.152	-60.346	
320.00	-62.217	-67.887	
321.00	-61.960	-78.492	
322.00	-62.283	-83.774	
323.00	-63.017	-103.071	
324.00	-64.505	-115.935	
325.00	-65.968	-143.109	
326.00	-66.098	-167.002	
327.00	-66.272	172.193	
328.00	-64.813	155.789	
329.00	-63.843	141.260	
330.00	-64.097	128.663	
331.00	-64.951	123.693	
332.00	-65.017	121.147	
333.00	-66.751	118.039	
334.00	-69.622	115.226	
335.00	-71.912	131.348	
336.00	-75.645	124.396	
337.00	-83.705	134.450	
338.00	-84.793	-37.666	
339.00	-73.126	-22.117	
340.00	-68.064	-53.423	
341.00	-66.445	-48.748	
342.00	-64.143	-53.631	
343.00	-65.166	-62.621	
344.00	-64.745	-66.488	
345.00	-66.867	-69.810	
346.00	-69.701	-74.181	
347.00	-74.629	-67.982	
348.00	-76.457	-14.221	
349.00	-73.822	3.721	
350.00	-70.720	16.933	
351.00	-71.016	-2.037	
352.00	-70.159	-13.972	
353.00	-70.220	-31.788	
354.00	-70.473	-53.351	
355.00	-69.649	-51.708	
356.00	-69.835	-57.223	
357.00	-69.473	-41.986	
358.00	-68.976	-14.108	
359.00	-66.555	1.496	
Frequency	2496.00	MHz	
Channel	test		
Scan Axis name	Azimuth  [deg]		
Scan Axis	Amplitude	Phase	
			
0.00	-74.704	155.176	
1.00	-67.830	129.389	
2.00	-69.407	125.929	
3.00	-68.439	118.969	
4.00	-68.889	160.304	
5.00	-75.385	-166.574	
6.00	-74.746	-132.421	
7.00	-74.041	-66.401	
8.00	-69.035	-68.489	
9.00	-65.253	-66.558	
10.00	-64.414	-58.281	
11.00	-62.014	-60.067	
12.00	-61.583	-59.025	
13.00	-61.329	-49.877	
14.00	-61.257	-33.542	
15.00	-61.113	-27.555	
16.00	-62.738	-25.895	
17.00	-63.118	-25.585	
18.00	-63.862	-34.831	
19.00	-63.551	-38.198	
20.00	-65.544	-52.988	
21.00	-64.317	-62.653	
22.00	-63.974	-63.487	
23.00	-63.206	-68.984	
24.00	-63.067	-75.786	
25.00	-63.870	-82.454	
26.00	-63.956	-98.055	
27.00	-66.051	-106.575	
28.00	-66.055	-120.784	
29.00	-67.699	-128.866	
30.00	-67.034	-142.741	
31.00	-69.216	-133.796	
32.00	-71.304	-123.599	
33.00	-74.276	-29.140	
34.00	-68.482	-3.503	
35.00	-63.462	21.631	
36.00	-61.549	34.047	
37.00	-60.049	37.460	
38.00	-60.323	35.470	
39.00	-60.360	45.579	
40.00	-61.735	45.509	
41.00	-62.615	48.155	
42.00	-63.809	53.477	
43.00	-66.411	59.037	
44.00	-70.109	56.140	
45.00	-74.847	44.073	
46.00	-79.416	7.276	
47.00	-72.483	-23.076	
48.00	-75.122	9.504	
49.00	-74.027	23.169	
50.00	-79.131	55.456	
51.00	-86.832	-27.242	
52.00	-73.696	-104.944	
53.00	-68.884	-90.836	
54.00	-64.992	-81.277	
55.00	-63.153	-65.001	
56.00	-62.908	-43.398	
57.00	-63.113	-35.233	
58.00	-66.062	-25.072	
59.00	-68.773	-24.558	
60.00	-75.415	-50.442	
61.00	-74.170	-91.300	
62.00	-70.216	-155.909	
63.00	-66.531	-162.592	
64.00	-64.272	-169.202	
65.00	-63.282	-171.357	
66.00	-61.507	-176.313	
67.00	-59.501	-172.198	
68.00	-58.985	-164.031	
69.00	-60.047	-152.444	
70.00	-59.977	-145.803	
71.00	-62.078	-117.071	
72.00	-65.131	-81.295	
73.00	-65.092	-49.954	
74.00	-65.098	-2.181	
75.00	-64.006	20.352	
76.00	-65.472	44.141	
77.00	-66.698	63.764	
78.00	-70.005	116.985	
79.00	-68.753	162.385	
80.00	-65.639	-148.320	
81.00	-61.906	-116.440	
82.00	-61.059	-86.831	
83.00	-60.021	-69.906	
84.00	-58.235	-43.220	
85.00	-59.539	-29.173	
86.00	-58.131	-18.009	
87.00	-58.937	28.186	
88.00	-60.212	42.210	
89.00	-64.507	45.945	
90.00	-60.507	85.641	
91.00	-62.240	105.645	
92.00	-61.513	129.963	
93.00	-59.800	150.058	
94.00	-62.549	158.869	
95.00	-61.393	176.213	
96.00	-61.356	-167.453	
97.00	-60.206	-151.055	
98.00	-59.507	-135.103	
99.00	-58.302	-130.893	
100.00	-56.784	-118.994	
101.00	-55.829	-103.538	
102.00	-55.186	-91.495	
103.00	-55.060	-79.597	
104.00	-55.467	-66.033	
105.00	-56.617	-49.403	
106.00	-57.924	-26.994	
107.00	-59.223	5.056	
108.00	-59.288	31.331	
109.00	-58.773	56.907	
110.00	-58.784	82.158	
111.00	-59.701	94.065	
112.00	-62.024	113.653	
113.00	-64.696	138.244	
114.00	-69.376	174.695	
115.00	-71.030	-120.061	
116.00	-69.670	-89.683	
117.00	-72.871	-108.372	
118.00	-74.563	-164.507	
119.00	-66.085	171.425	
120.00	-60.698	175.105	
121.00	-57.907	178.046	
122.00	-56.925	-169.286	
123.00	-57.570	-157.271	
124.00	-59.440	-142.959	
125.00	-65.206	-112.233	
126.00	-66.221	-38.818	
127.00	-61.317	22.595	
128.00	-57.139	47.071	
129.00	-55.951	72.328	
130.00	-54.270	99.773	
131.00	-52.984	121.142	
132.00	-52.574	146.923	
133.00	-52.271	165.470	
134.00	-53.147	-176.824	
135.00	-55.124	-162.579	
136.00	-60.526	-149.824	
137.00	-73.856	130.090	
138.00	-59.505	64.158	
139.00	-53.367	75.080	
140.00	-49.846	88.926	
141.00	-47.844	103.945	
142.00	-46.787	117.332	
143.00	-46.322	130.451	
144.00	-46.461	143.786	
145.00	-47.381	154.837	
146.00	-48.971	167.095	
147.00	-52.112	-179.405	
148.00	-56.212	-166.781	
149.00	-67.336	-140.363	
150.00	-67.343	-14.444	
151.00	-60.219	15.656	
152.00	-57.882	34.311	
153.00	-56.164	52.725	
154.00	-54.806	65.226	
155.00	-55.460	68.796	
156.00	-55.296	75.500	
157.00	-55.967	81.572	
158.00	-55.918	82.177	
159.00	-55.507	86.394	
160.00	-54.517	85.093	
161.00	-53.821	81.834	
162.00	-54.108	83.526	
163.00	-54.662	76.722	
164.00	-55.871	65.733	
165.00	-57.192	38.762	
166.00	-55.887	7.302	
167.00	-53.265	-10.690	
168.00	-51.635	-19.091	
169.00	-50.814	-24.774	
170.00	-51.425	-31.818	
171.00	-54.599	-49.457	
172.00	-58.673	-86.442	
173.00	-56.250	-149.639	
174.00	-51.437	-172.871	
175.00	-49.815	173.929	
176.00	-50.083	156.862	
177.00	-51.061	118.777	
178.00	-48.371	68.904	
179.00	-42.593	40.300	
180.00	-38.442	28.011	
181.00	-35.166	21.669	
182.00	-32.940	16.234	
183.00	-31.405	12.277	
184.00	-30.569	9.209	
185.00	-30.296	5.889	
186.00	-30.673	2.914	
187.00	-31.731	-0.704	
188.00	-33.447	-4.636	
189.00	-36.204	-10.377	
190.00	-40.126	-17.527	
191.00	-46.404	-34.049	
192.00	-55.798	-100.895	
193.00	-50.106	-171.295	
194.00	-46.806	173.165	
195.00	-46.520	167.602	
196.00	-48.451	168.594	
197.00	-51.592	176.948	
198.00	-54.483	-152.509	
199.00	-53.317	-123.655	
200.00	-51.580	-110.624	
201.00	-50.954	-112.648	
202.00	-52.096	-120.874	
203.00	-53.943	-137.028	
204.00	-58.132	-155.172	
205.00	-60.922	159.569	
206.00	-63.503	112.130	
207.00	-72.226	21.180	
208.00	-63.600	-58.205	
209.00	-55.475	-99.508	
210.00	-50.421	-112.163	
211.00	-47.692	-127.901	
212.00	-46.064	-137.844	
213.00	-45.212	-150.835	
214.00	-44.687	-162.963	
215.00	-45.234	-174.316	
216.00	-46.332	176.081	
217.00	-48.112	166.918	
218.00	-50.960	162.065	
219.00	-54.377	165.259	
220.00	-57.839	-173.735	
221.00	-57.348	-145.544	
222.00	-54.417	-144.555	
223.00	-52.107	-144.492	
224.00	-51.280	-156.229	
225.00	-50.962	-165.369	
226.00	-51.313	-176.480	
227.00	-52.089	172.124	
228.00	-53.068	164.191	
229.00	-53.899	149.406	
230.00	-55.694	136.362	
231.00	-56.541	126.652	
232.00	-57.821	112.983	
233.00	-58.012	96.758	
234.00	-56.927	80.618	
235.00	-58.501	63.463	
236.00	-58.224	45.933	
237.00	-57.055	17.890	
238.00	-56.895	-4.706	
239.00	-57.609	-31.656	
240.00	-56.281	-45.145	
241.00	-56.752	-63.513	
242.00	-58.344	-78.524	
243.00	-59.212	-106.701	
244.00	-63.330	-122.253	
245.00	-68.695	-169.364	
246.00	-67.389	122.346	
247.00	-63.247	82.399	
248.00	-59.688	57.196	
249.00	-58.723	40.545	
250.00	-58.480	16.149	
251.00	-58.816	-2.080	
252.00	-59.518	-30.330	
253.00	-60.103	-58.042	
254.00	-60.903	-97.627	
255.00	-59.443	-124.590	
256.00	-59.284	-147.599	
257.00	-58.394	-166.635	
258.00	-58.673	167.298	
259.00	-59.462	143.408	
260.00	-59.897	126.471	
261.00	-61.043	99.274	
262.00	-61.346	71.358	
263.00	-61.086	47.592	
264.00	-60.922	19.063	
265.00	-61.283	-2.649	
266.00	-60.480	-28.257	
267.00	-60.670	-56.226	
268.00	-60.360	-69.386	
269.00	-60.386	-83.388	
270.00	-60.885	-106.454	
271.00	-60.810	-122.856	
272.00	-62.901	-134.981	
273.00	-63.115	-155.046	
274.00	-64.181	-175.962	
275.00	-66.045	158.534	
276.00	-65.772	136.688	
277.00	-65.979	123.420	
278.00	-66.602	112.317	
279.00	-67.344	97.992	
280.00	-67.192	79.427	
281.00	-67.906	74.154	
282.00	-68.505	68.051	
283.00	-66.518	51.221	
284.00	-66.079	47.656	
285.00	-64.965	33.203	
286.00	-63.333	14.116	
287.00	-62.694	-4.839	
288.00	-60.989	-21.742	
289.00	-62.081	-49.516	
290.00	-61.143	-60.772	
291.00	-60.081	-79.090	
292.00	-59.223	-94.849	
293.00	-59.267	-108.708	
294.00	-60.301	-120.911	
295.00	-60.288	-137.457	
296.00	-60.992	-153.805	
297.00	-61.425	-173.730	
298.00	-63.134	164.727	
299.00	-63.089	138.849	
300.00	-63.375	117.994	
301.00	-61.914	90.319	
302.00	-60.638	72.553	
303.00	-60.216	50.840	
304.00	-59.735	28.557	
305.00	-60.179	11.918	
306.00	-60.056	-7.744	
307.00	-60.500	-16.612	
308.00	-60.954	-43.162	
309.00	-63.430	-51.330	
310.00	-66.688	-77.740	
311.00	-73.081	-139.835	
312.00	-71.831	161.007	
313.00	-69.865	120.868	
314.00	-68.929	107.197	
315.00	-64.842	100.820	
316.00	-65.249	86.864	
317.00	-66.696	77.374	
318.00	-66.611	73.515	
319.00	-65.759	62.464	
320.00	-68.865	61.843	
321.00	-71.781	65.146	
322.00	-72.511	74.984	
323.00	-75.297	117.067	
324.00	-73.182	138.706	
325.00	-70.726	143.158	
326.00	-70.838	112.577	
327.00	-72.088	111.493	
328.00	-76.198	85.849	
329.00	-77.844	29.375	
330.00	-74.730	-44.880	
331.00	-72.109	-94.748	
332.00	-71.183	-116.959	
333.00	-70.299	-129.232	
334.00	-67.870	-165.706	
335.00	-66.866	162.902	
336.00	-65.044	147.806	
337.00	-64.331	122.164	
338.00	-62.345	114.091	
339.00	-61.141	104.490	
340.00	-60.304	97.027	
341.00	-59.611	85.433	
342.00	-59.582	85.576	
343.00	-59.228	82.593	
344.00	-60.557	74.972	
345.00	-61.019	79.089	
346.00	-62.093	79.778	
347.00	-62.948	90.125	
348.00	-63.725	93.326	
349.00	-64.227	101.917	
350.00	-63.290	95.254	
351.00	-64.518	97.597	
352.00	-63.780	83.134	
353.00	-65.869	92.041	
354.00	-68.769	77.473	
355.00	-68.471	80.208	
356.00	-80.186	128.619	
357.00	-77.450	-146.125	
358.00	-73.695	161.911	
359.00	-71.510	156.039	
Frequency	2550.00	MHz	
Channel	test		
Scan Axis name	Azimuth  [deg]		
Scan Axis	Amplitude	Phase	
			
0.00	-67.473	53.745	
1.00	-64.331	35.570	
2.00	-63.754	38.865	
3.00	-64.293	35.287	
4.00	-65.368	33.041	
5.00	-68.442	29.012	
6.00	-73.010	65.344	
7.00	-71.710	122.964	
8.00	-67.943	139.677	
9.00	-64.380	148.168	
10.00	-63.748	143.079	
11.00	-64.121	140.013	
12.00	-64.086	125.608	
13.00	-64.361	110.881	
14.00	-62.921	95.371	
15.00	-61.858	86.898	
16.00	-64.082	76.064	
17.00	-65.581	73.620	
18.00	-74.593	56.560	
19.00	-77.056	5.148	
20.00	-71.385	-73.265	
21.00	-70.209	-83.550	
22.00	-67.872	-81.105	
23.00	-67.927	-82.480	
24.00	-68.972	-69.321	
25.00	-72.685	-69.239	
26.00	-75.253	-45.869	
27.00	-81.542	124.773	
28.00	-70.840	142.283	
29.00	-66.802	145.320	
30.00	-65.773	173.086	
31.00	-65.132	171.731	
32.00	-65.583	-179.766	
33.00	-66.317	-171.030	
34.00	-69.575	-137.753	
35.00	-69.483	-168.998	
36.00	-72.984	172.645	
37.00	-81.000	-171.825	
38.00	-71.531	137.640	
39.00	-68.940	131.598	
40.00	-67.341	144.278	
41.00	-66.736	159.049	
42.00	-67.910	179.516	
43.00	-72.514	-176.138	
44.00	-81.462	-58.570	
45.00	-69.150	19.858	
46.00	-64.051	37.477	
47.00	-61.478	45.714	
48.00	-60.406	62.211	
49.00	-60.947	63.443	
50.00	-62.696	70.771	
51.00	-64.058	71.133	
52.00	-65.437	66.216	
53.00	-67.505	54.596	
54.00	-67.076	66.767	
55.00	-70.105	91.867	
56.00	-74.855	123.249	
57.00	-72.312	-151.246	
58.00	-67.381	-98.091	
59.00	-62.975	-83.163	
60.00	-62.854	-67.250	
61.00	-62.640	-44.918	
62.00	-64.964	-30.845	
63.00	-69.729	-23.013	
64.00	-99.909	-14.414	
65.00	-69.296	168.225	
66.00	-65.638	-169.610	
67.00	-63.678	-145.289	
68.00	-65.112	-133.319	
69.00	-68.384	-119.395	
70.00	-72.347	-66.320	
71.00	-75.230	19.905	
72.00	-69.240	93.658	
73.00	-65.839	117.005	
74.00	-62.777	134.887	
75.00	-62.227	158.088	
76.00	-61.401	179.502	
77.00	-60.893	-153.718	
78.00	-63.457	-136.577	
79.00	-64.751	-105.361	
80.00	-69.074	-72.070	
81.00	-71.483	6.029	
82.00	-67.884	82.842	
83.00	-64.559	104.463	
84.00	-61.003	148.147	
85.00	-58.140	151.153	
86.00	-57.537	178.179	
87.00	-56.434	-154.420	
88.00	-56.622	-138.787	
89.00	-57.540	-117.753	
90.00	-56.180	-98.194	
91.00	-55.970	-80.935	
92.00	-58.361	-52.345	
93.00	-58.437	-22.466	
94.00	-59.381	1.714	
95.00	-59.659	37.085	
96.00	-60.543	55.678	
97.00	-61.669	77.913	
98.00	-64.748	91.684	
99.00	-68.660	83.647	
100.00	-78.733	44.035	
101.00	-74.151	-33.846	
102.00	-68.787	-7.170	
103.00	-66.417	13.578	
104.00	-63.881	47.621	
105.00	-61.802	79.703	
106.00	-59.807	106.423	
107.00	-58.638	131.902	
108.00	-57.178	146.601	
109.00	-56.876	170.759	
110.00	-56.869	-166.702	
111.00	-57.635	-139.627	
112.00	-58.183	-114.319	
113.00	-57.297	-78.817	
114.00	-56.091	-53.465	
115.00	-55.478	-35.588	
116.00	-55.296	-22.825	
117.00	-55.455	-16.773	
118.00	-57.118	-13.456	
119.00	-58.991	-22.312	
120.00	-60.117	-36.223	
121.00	-60.303	-53.693	
122.00	-59.826	-60.395	
123.00	-61.034	-53.724	
124.00	-65.328	-40.073	
125.00	-76.831	40.327	
126.00	-64.129	128.987	
127.00	-59.137	137.962	
128.00	-55.970	152.111	
129.00	-54.387	168.038	
130.00	-54.812	-165.561	
131.00	-56.367	-145.478	
132.00	-56.278	-121.740	
133.00	-56.493	-83.091	
134.00	-57.464	-57.739	
135.00	-57.720	-31.557	
136.00	-62.774	16.150	
137.00	-62.466	91.738	
138.00	-58.164	142.885	
139.00	-54.109	177.972	
140.00	-51.819	-156.907	
141.00	-49.747	-135.251	
142.00	-48.100	-114.236	
143.00	-47.171	-98.411	
144.00	-46.865	-81.678	
145.00	-47.171	-67.092	
146.00	-48.787	-50.980	
147.00	-51.215	-31.083	
148.00	-55.072	-4.451	
149.00	-58.914	43.798	
150.00	-58.855	108.164	
151.00	-55.561	147.686	
152.00	-53.387	170.531	
153.00	-52.301	-175.994	
154.00	-52.079	-163.876	
155.00	-52.852	-155.706	
156.00	-53.874	-150.946	
157.00	-55.244	-148.824	
158.00	-55.683	-152.866	
159.00	-55.822	-155.881	
160.00	-55.110	-155.539	
161.00	-54.126	-152.795	
162.00	-54.216	-145.690	
163.00	-54.839	-143.614	
164.00	-56.866	-145.440	
165.00	-60.677	-160.729	
166.00	-62.072	138.620	
167.00	-55.860	112.007	
168.00	-52.479	103.367	
169.00	-50.858	99.915	
170.00	-51.348	96.004	
171.00	-53.369	87.832	
172.00	-58.444	58.723	
173.00	-57.029	-9.504	
174.00	-52.127	-36.478	
175.00	-49.624	-44.495	
176.00	-50.165	-46.954	
177.00	-56.053	-54.549	
178.00	-56.088	147.508	
179.00	-44.000	137.852	
180.00	-38.330	136.419	
181.00	-34.575	134.741	
182.00	-32.004	132.918	
183.00	-30.466	131.750	
184.00	-29.502	129.996	
185.00	-29.162	128.156	
186.00	-29.518	126.099	
187.00	-30.520	123.920	
188.00	-32.164	121.162	
189.00	-34.815	118.630	
190.00	-38.719	116.845	
191.00	-45.014	117.796	
192.00	-57.970	168.576	
193.00	-50.885	-102.746	
194.00	-46.880	-96.848	
195.00	-47.103	-103.927	
196.00	-49.584	-110.093	
197.00	-55.334	-129.848	
198.00	-63.555	143.654	
199.00	-55.071	81.006	
200.00	-52.040	67.587	
201.00	-52.367	58.557	
202.00	-56.711	50.751	
203.00	-75.155	89.624	
204.00	-57.648	-158.244	
205.00	-51.989	-162.122	
206.00	-49.944	-171.978	
207.00	-49.922	178.810	
208.00	-52.696	163.354	
209.00	-59.099	125.974	
210.00	-57.207	26.063	
211.00	-51.421	-6.127	
212.00	-47.720	-26.682	
213.00	-45.775	-41.106	
214.00	-45.215	-55.106	
215.00	-45.538	-71.125	
216.00	-47.008	-88.007	
217.00	-49.604	-110.136	
218.00	-52.705	-140.753	
219.00	-55.328	170.010	
220.00	-55.055	114.955	
221.00	-52.674	74.334	
222.00	-50.666	45.625	
223.00	-49.783	21.369	
224.00	-48.860	1.080	
225.00	-48.049	-21.568	
226.00	-48.174	-41.711	
227.00	-49.255	-53.075	
228.00	-49.190	-75.316	
229.00	-49.458	-92.087	
230.00	-50.629	-108.356	
231.00	-51.470	-120.393	
232.00	-52.762	-138.152	
233.00	-53.679	-148.818	
234.00	-55.032	-162.332	
235.00	-55.133	-176.632	
236.00	-56.426	160.938	
237.00	-56.028	147.314	
238.00	-56.323	126.196	
239.00	-56.782	115.698	
240.00	-58.198	100.308	
241.00	-58.178	91.457	
242.00	-62.740	74.453	
243.00	-64.575	65.943	
244.00	-76.017	17.149	
245.00	-71.606	-133.587	
246.00	-64.665	-146.618	
247.00	-62.542	-160.231	
248.00	-60.554	173.386	
249.00	-60.251	157.696	
250.00	-61.146	136.036	
251.00	-61.046	111.971	
252.00	-62.184	81.618	
253.00	-61.979	61.428	
254.00	-62.533	29.547	
255.00	-62.568	-2.953	
256.00	-62.337	-34.927	
257.00	-61.007	-66.548	
258.00	-60.845	-90.361	
259.00	-59.525	-112.650	
260.00	-59.645	-132.282	
261.00	-58.357	-155.010	
262.00	-58.541	-167.138	
263.00	-58.329	174.427	
264.00	-59.181	157.587	
265.00	-59.725	140.244	
266.00	-60.252	122.626	
267.00	-63.773	104.047	
268.00	-66.927	83.626	
269.00	-68.237	56.032	
270.00	-68.031	1.597	
271.00	-65.465	-19.686	
272.00	-67.139	-46.022	
273.00	-66.226	-65.470	
274.00	-65.325	-87.361	
275.00	-65.598	-115.240	
276.00	-63.728	-134.852	
277.00	-65.902	-163.608	
278.00	-62.695	-165.880	
279.00	-63.499	174.889	
280.00	-64.851	171.359	
281.00	-65.793	155.405	
282.00	-66.655	160.231	
283.00	-69.305	156.861	
284.00	-67.987	146.676	
285.00	-66.521	134.905	
286.00	-66.014	134.867	
287.00	-65.021	130.799	
288.00	-64.057	132.368	
289.00	-63.628	118.757	
290.00	-64.148	109.185	
291.00	-64.109	99.395	
292.00	-64.648	84.392	
293.00	-65.266	74.462	
294.00	-63.358	58.782	
295.00	-63.477	45.712	
296.00	-63.789	41.079	
297.00	-62.769	27.183	
298.00	-63.019	10.816	
299.00	-63.664	-3.689	
300.00	-63.563	-21.859	
301.00	-63.501	-49.172	
302.00	-63.534	-75.206	
303.00	-62.057	-104.876	
304.00	-61.411	-135.571	
305.00	-59.827	-159.288	
306.00	-58.986	177.827	
307.00	-59.035	161.016	
308.00	-58.859	141.191	
309.00	-59.787	122.635	
310.00	-60.639	100.954	
311.00	-62.221	72.050	
312.00	-63.146	41.298	
313.00	-62.874	14.921	
314.00	-63.014	-5.997	
315.00	-62.639	-17.908	
316.00	-63.388	-34.555	
317.00	-64.400	-47.287	
318.00	-64.825	-52.732	
319.00	-67.662	-48.083	
320.00	-68.946	-48.364	
321.00	-68.016	-40.352	
322.00	-65.826	-41.241	
323.00	-64.598	-41.932	
324.00	-63.035	-45.533	
325.00	-62.943	-53.866	
326.00	-64.221	-64.002	
327.00	-66.006	-66.591	
328.00	-69.996	-76.118	
329.00	-76.573	-54.380	
330.00	-79.121	8.277	
331.00	-75.912	41.104	
332.00	-80.440	93.905	
333.00	-74.102	89.545	
334.00	-71.408	110.155	
335.00	-66.920	104.867	
336.00	-68.130	125.584	
337.00	-68.824	88.901	
338.00	-71.267	51.769	
339.00	-73.203	10.510	
340.00	-70.980	-23.284	
341.00	-66.189	-41.985	
342.00	-64.229	-59.916	
343.00	-62.582	-66.698	
344.00	-64.114	-68.389	
345.00	-64.690	-84.062	
346.00	-67.045	-86.285	
347.00	-69.468	-79.100	
348.00	-70.784	-57.875	
349.00	-71.687	-37.623	
350.00	-72.037	-24.010	
351.00	-68.967	-20.329	
352.00	-71.518	-40.341	
353.00	-68.965	-65.821	
354.00	-69.211	-97.875	
355.00	-73.740	-91.736	
356.00	-76.373	-154.156	
357.00	-76.690	-175.083	
358.00	-78.761	-53.858	
359.00	-72.043	78.072	
Frequency	2600.00	MHz	
Channel	test		
Scan Axis name	Azimuth  [deg]		
Scan Axis	Amplitude	Phase	
			
0.00	-62.485	-47.381	
1.00	-62.826	-77.528	
2.00	-61.588	-101.438	
3.00	-59.790	-119.081	
4.00	-58.464	-124.153	
5.00	-57.331	-129.198	
6.00	-57.329	-125.270	
7.00	-57.498	-128.002	
8.00	-58.854	-125.788	
9.00	-61.222	-120.009	
10.00	-62.740	-111.105	
11.00	-65.749	-104.487	
12.00	-71.214	-97.517	
13.00	-81.580	-161.525	
14.00	-70.489	135.804	
15.00	-68.472	137.231	
16.00	-68.921	139.638	
17.00	-70.665	137.856	
18.00	-73.153	94.787	
19.00	-71.976	77.109	
20.00	-68.445	66.095	
21.00	-66.887	71.639	
22.00	-65.695	77.706	
23.00	-63.987	85.596	
24.00	-64.035	96.585	
25.00	-63.921	103.212	
26.00	-64.453	113.064	
27.00	-66.111	134.187	
28.00	-69.059	161.404	
29.00	-70.728	-146.799	
30.00	-71.809	-98.483	
31.00	-71.199	-71.236	
32.00	-73.729	-46.317	
33.00	-75.340	1.318	
34.00	-74.613	140.690	
35.00	-69.903	152.678	
36.00	-65.212	170.463	
37.00	-64.577	176.605	
38.00	-62.776	-155.698	
39.00	-62.177	-132.691	
40.00	-62.180	-111.764	
41.00	-62.439	-99.752	
42.00	-63.007	-76.536	
43.00	-65.531	-54.447	
44.00	-81.524	-7.264	
45.00	-70.118	131.462	
46.00	-64.326	156.467	
47.00	-62.395	177.786	
48.00	-61.017	-158.705	
49.00	-60.352	-138.861	
50.00	-60.304	-120.194	
51.00	-62.113	-99.239	
52.00	-62.837	-83.147	
53.00	-63.090	-69.697	
54.00	-62.696	-59.200	
55.00	-61.671	-43.366	
56.00	-61.362	-26.572	
57.00	-61.266	-10.136	
58.00	-61.950	18.626	
59.00	-62.076	52.254	
60.00	-62.356	87.634	
61.00	-62.752	126.836	
62.00	-62.721	164.329	
63.00	-62.764	-162.362	
64.00	-65.279	-120.320	
65.00	-65.783	-71.062	
66.00	-63.870	-10.352	
67.00	-61.627	38.073	
68.00	-59.329	65.535	
69.00	-58.374	94.897	
70.00	-57.981	129.267	
71.00	-57.813	161.654	
72.00	-56.081	-166.114	
73.00	-55.707	-133.255	
74.00	-54.747	-105.154	
75.00	-55.049	-75.899	
76.00	-55.141	-48.353	
77.00	-56.403	-20.085	
78.00	-56.449	17.960	
79.00	-55.931	52.715	
80.00	-55.809	85.700	
81.00	-55.710	117.659	
82.00	-55.829	146.186	
83.00	-55.569	175.998	
84.00	-55.404	-148.816	
85.00	-55.239	-116.071	
86.00	-54.883	-87.828	
87.00	-54.050	-58.169	
88.00	-53.474	-30.322	
89.00	-53.318	-4.188	
90.00	-53.600	22.622	
91.00	-53.724	47.505	
92.00	-53.850	74.587	
93.00	-54.285	100.429	
94.00	-54.837	129.637	
95.00	-54.757	157.859	
96.00	-54.870	-174.094	
97.00	-54.972	-150.761	
98.00	-55.558	-126.977	
99.00	-56.743	-104.311	
100.00	-57.775	-83.489	
101.00	-60.816	-47.356	
102.00	-64.377	-15.278	
103.00	-67.219	27.966	
104.00	-70.285	96.956	
105.00	-68.508	167.696	
106.00	-63.717	-163.569	
107.00	-60.429	-127.911	
108.00	-58.426	-102.705	
109.00	-57.072	-78.200	
110.00	-56.070	-57.629	
111.00	-55.708	-36.453	
112.00	-56.364	-11.566	
113.00	-56.827	11.017	
114.00	-57.725	38.641	
115.00	-57.716	65.330	
116.00	-59.055	95.402	
117.00	-60.283	124.180	
118.00	-61.625	154.969	
119.00	-67.630	-171.069	
120.00	-67.330	-142.322	
121.00	-65.496	-73.730	
122.00	-64.537	-42.958	
123.00	-62.345	-20.283	
124.00	-60.630	-5.107	
125.00	-61.337	1.390	
126.00	-61.631	-5.691	
127.00	-60.705	-11.529	
128.00	-58.775	-8.262	
129.00	-56.976	-10.660	
130.00	-55.762	3.046	
131.00	-54.902	13.017	
132.00	-54.779	29.274	
133.00	-55.637	50.799	
134.00	-57.336	68.490	
135.00	-60.891	104.141	
136.00	-64.422	155.237	
137.00	-61.041	-120.792	
138.00	-55.847	-81.808	
139.00	-53.070	-56.025	
140.00	-50.928	-30.656	
141.00	-49.183	-7.468	
142.00	-47.723	14.385	
143.00	-46.763	32.897	
144.00	-46.700	48.807	
145.00	-47.503	64.045	
146.00	-49.461	80.011	
147.00	-53.539	102.238	
148.00	-60.134	145.773	
149.00	-59.690	-116.826	
150.00	-53.810	-80.675	
151.00	-50.976	-60.940	
152.00	-49.258	-46.719	
153.00	-48.873	-35.946	
154.00	-49.436	-29.012	
155.00	-51.368	-24.581	
156.00	-54.162	-25.200	
157.00	-58.481	-39.355	
158.00	-61.835	-60.338	
159.00	-63.134	-82.705	
160.00	-63.365	-89.753	
161.00	-65.785	-81.338	
162.00	-69.532	-69.734	
163.00	-79.727	-75.559	
164.00	-70.893	-156.981	
165.00	-61.369	-144.615	
166.00	-55.805	-131.758	
167.00	-52.064	-128.550	
168.00	-49.555	-126.771	
169.00	-48.377	-128.520	
170.00	-48.297	-134.028	
171.00	-48.975	-145.775	
172.00	-49.872	-164.598	
173.00	-49.451	174.281	
174.00	-48.294	160.798	
175.00	-48.037	158.679	
176.00	-49.584	173.244	
177.00	-50.026	-133.388	
178.00	-43.339	-91.228	
179.00	-37.555	-79.039	
180.00	-33.384	-74.050	
181.00	-30.518	-71.833	
182.00	-28.525	-71.165	
183.00	-27.280	-70.740	
184.00	-26.663	-70.541	
185.00	-26.659	-70.650	
186.00	-27.275	-70.773	
187.00	-28.576	-70.815	
188.00	-30.651	-70.408	
189.00	-33.809	-68.150	
190.00	-38.335	-60.509	
191.00	-44.443	-33.307	
192.00	-45.635	23.213	
193.00	-43.198	46.290	
194.00	-42.322	51.534	
195.00	-43.394	50.218	
196.00	-46.239	46.365	
197.00	-52.360	41.410	
198.00	-71.446	-8.782	
199.00	-56.092	-138.229	
200.00	-52.231	-147.431	
201.00	-52.346	-151.358	
202.00	-56.003	-146.380	
203.00	-63.145	-82.870	
204.00	-55.001	-32.682	
205.00	-50.450	-29.221	
206.00	-48.526	-32.848	
207.00	-48.940	-43.207	
208.00	-51.197	-53.760	
209.00	-57.557	-75.567	
210.00	-62.391	158.375	
211.00	-52.008	120.002	
212.00	-47.489	104.003	
213.00	-45.311	91.561	
214.00	-44.409	78.989	
215.00	-44.459	67.000	
216.00	-45.659	54.540	
217.00	-47.973	41.888	
218.00	-51.922	28.119	
219.00	-60.447	10.387	
220.00	-65.969	-165.334	
221.00	-54.788	178.365	
222.00	-50.694	163.846	
223.00	-48.787	153.062	
224.00	-47.971	143.033	
225.00	-47.900	131.830	
226.00	-48.487	120.668	
227.00	-49.521	110.407	
228.00	-50.625	99.359	
229.00	-51.722	87.381	
230.00	-52.889	77.540	
231.00	-53.963	65.995	
232.00	-54.320	56.412	
233.00	-54.624	45.385	
234.00	-55.333	31.902	
235.00	-55.963	16.747	
236.00	-57.034	-3.702	
237.00	-57.298	-21.627	
238.00	-57.748	-38.794	
239.00	-58.203	-51.711	
240.00	-57.640	-57.908	
241.00	-57.964	-59.567	
242.00	-57.713	-60.347	
243.00	-57.669	-61.548	
244.00	-56.662	-66.167	
245.00	-55.873	-75.508	
246.00	-55.282	-88.496	
247.00	-55.191	-103.688	
248.00	-54.598	-124.910	
249.00	-54.290	-140.238	
250.00	-54.333	-160.176	
251.00	-54.340	-177.999	
252.00	-54.610	162.552	
253.00	-55.762	139.187	
254.00	-56.407	114.516	
255.00	-56.802	87.352	
256.00	-56.480	62.035	
257.00	-56.262	35.528	
258.00	-55.864	15.787	
259.00	-55.810	-4.034	
260.00	-56.186	-19.337	
261.00	-56.157	-38.632	
262.00	-56.871	-58.887	
263.00	-57.732	-78.427	
264.00	-59.297	-87.546	
265.00	-59.478	-110.743	
266.00	-61.529	-134.915	
267.00	-62.563	-164.704	
268.00	-62.723	171.153	
269.00	-63.911	149.498	
270.00	-63.616	130.317	
271.00	-62.866	113.377	
272.00	-64.293	98.680	
273.00	-65.345	84.596	
274.00	-69.810	69.898	
275.00	-68.209	63.217	
276.00	-69.713	70.646	
277.00	-71.180	84.720	
278.00	-68.368	81.710	
279.00	-67.995	57.956	
280.00	-68.825	72.811	
281.00	-65.302	58.156	
282.00	-64.878	32.464	
283.00	-64.092	35.262	
284.00	-63.908	19.468	
285.00	-64.541	-1.884	
286.00	-64.131	-21.956	
287.00	-64.182	-49.174	
288.00	-68.052	-72.608	
289.00	-70.262	-118.869	
290.00	-70.691	-159.204	
291.00	-70.784	147.763	
292.00	-66.961	103.921	
293.00	-66.727	66.984	
294.00	-63.797	50.077	
295.00	-62.746	25.105	
296.00	-61.692	8.337	
297.00	-61.784	-17.552	
298.00	-61.810	-40.327	
299.00	-62.863	-62.231	
300.00	-66.151	-85.064	
301.00	-69.049	-126.350	
302.00	-70.520	160.927	
303.00	-65.676	98.937	
304.00	-62.458	74.972	
305.00	-59.936	53.180	
306.00	-58.622	35.547	
307.00	-57.609	20.935	
308.00	-57.917	1.865	
309.00	-58.793	-18.461	
310.00	-59.737	-42.495	
311.00	-60.865	-68.747	
312.00	-61.003	-91.848	
313.00	-60.779	-112.789	
314.00	-60.381	-130.955	
315.00	-61.022	-141.558	
316.00	-61.432	-149.159	
317.00	-63.623	-160.670	
318.00	-64.117	-156.473	
319.00	-64.875	-149.769	
320.00	-65.190	-145.757	
321.00	-64.848	-150.450	
322.00	-64.892	-159.742	
323.00	-63.909	-176.640	
324.00	-63.894	160.139	
325.00	-63.765	135.672	
326.00	-63.099	109.222	
327.00	-64.408	79.993	
328.00	-64.196	50.088	
329.00	-64.595	18.140	
330.00	-64.311	-15.000	
331.00	-63.646	-39.841	
332.00	-63.593	-68.701	
333.00	-63.717	-85.175	
334.00	-62.700	-115.744	
335.00	-62.952	-122.440	
336.00	-63.268	-137.310	
337.00	-63.741	-157.383	
338.00	-65.535	-177.244	
339.00	-65.713	159.754	
340.00	-65.997	136.939	
341.00	-65.270	122.134	
342.00	-63.998	109.034	
343.00	-63.471	99.459	
344.00	-63.172	90.684	
345.00	-63.577	81.243	
346.00	-66.388	85.192	
347.00	-72.046	93.707	
348.00	-76.500	131.336	
349.00	-75.217	178.129	
350.00	-73.094	-172.601	
351.00	-72.068	-160.878	
352.00	-74.292	-135.158	
353.00	-75.235	-82.874	
354.00	-71.017	-49.902	
355.00	-68.023	-26.021	
356.00	-65.098	-21.974	
357.00	-62.820	-16.431	
358.00	-61.372	-17.748	
359.00	-61.068	-25.674	
Frequency	2650.00	MHz	
Channel	test		
Scan Axis name	Azimuth  [deg]		
Scan Axis	Amplitude	Phase	
			
0.00	-57.831	82.492	
1.00	-60.292	72.290	
2.00	-69.064	81.112	
3.00	-62.454	63.966	
4.00	-63.656	-5.711	
5.00	-69.042	34.151	
6.00	-71.232	-9.405	
7.00	-80.382	176.916	
8.00	-67.081	-123.335	
9.00	-65.490	35.999	
10.00	-69.607	28.625	
11.00	-69.568	-10.420	
12.00	-63.505	56.996	
13.00	-65.214	44.397	
14.00	-67.554	66.244	
15.00	-69.188	-66.348	
16.00	-66.305	97.652	
17.00	-71.335	-9.782	
18.00	-60.600	-79.169	
19.00	-64.227	-69.579	
20.00	-64.642	-38.133	
21.00	-65.008	-91.571	
22.00	-69.720	-42.691	
23.00	-62.482	4.495	
24.00	-85.163	-8.048	
25.00	-72.402	-116.107	
26.00	-79.804	-1.240	
27.00	-65.398	-88.363	
28.00	-60.716	-96.997	
29.00	-59.051	-70.266	
30.00	-58.345	-56.571	
31.00	-63.714	-57.115	
32.00	-58.693	-66.328	
33.00	-61.657	-68.153	
34.00	-68.918	-93.702	
35.00	-67.462	-132.522	
36.00	-61.611	-148.452	
37.00	-60.075	-158.782	
38.00	-57.568	-150.213	
39.00	-59.378	-122.690	
40.00	-60.898	-94.736	
41.00	-65.104	-104.724	
42.00	-63.965	-58.052	
43.00	-69.055	4.149	
44.00	-67.502	71.538	
45.00	-67.379	99.876	
46.00	-63.200	110.496	
47.00	-72.961	112.977	
48.00	-66.509	4.800	
49.00	-74.335	49.166	
50.00	-77.190	34.005	
51.00	-64.486	45.698	
52.00	-78.343	139.925	
53.00	-68.940	22.151	
54.00	-65.759	30.928	
55.00	-71.188	-0.635	
56.00	-72.023	33.472	
57.00	-69.713	178.704	
58.00	-66.582	-162.095	
59.00	-60.263	-135.067	
60.00	-58.450	-113.286	
61.00	-56.680	-86.923	
62.00	-57.997	-63.610	
63.00	-58.071	-32.430	
64.00	-60.061	11.614	
65.00	-59.270	58.558	
66.00	-56.950	88.894	
67.00	-55.875	122.948	
68.00	-55.515	142.421	
69.00	-55.775	169.096	
70.00	-57.061	-159.546	
71.00	-61.323	-118.520	
72.00	-61.066	-65.948	
73.00	-58.624	-5.318	
74.00	-57.222	36.189	
75.00	-56.486	67.979	
76.00	-56.139	95.337	
77.00	-55.115	120.456	
78.00	-54.496	153.668	
79.00	-54.172	-173.650	
80.00	-54.084	-139.965	
81.00	-54.463	-107.725	
82.00	-54.374	-66.881	
83.00	-52.718	-38.123	
84.00	-51.483	-9.414	
85.00	-51.426	22.752	
86.00	-50.254	46.417	
87.00	-50.914	77.304	
88.00	-49.591	95.788	
89.00	-49.601	130.823	
90.00	-49.682	160.228	
91.00	-49.291	-179.351	
92.00	-49.317	-153.794	
93.00	-48.837	-128.607	
94.00	-49.117	-96.178	
95.00	-47.962	-75.211	
96.00	-47.946	-47.994	
97.00	-47.613	-27.230	
98.00	-48.012	-6.059	
99.00	-48.466	14.349	
100.00	-49.164	36.695	
101.00	-50.824	69.056	
102.00	-50.830	102.811	
103.00	-53.593	130.698	
104.00	-54.359	155.938	
105.00	-54.535	-167.903	
106.00	-52.868	-132.805	
107.00	-52.503	-104.569	
108.00	-54.185	-90.136	
109.00	-54.432	-70.511	
110.00	-55.889	-58.059	
111.00	-58.593	-41.132	
112.00	-63.176	-20.006	
113.00	-78.698	-72.598	
114.00	-65.191	-132.025	
115.00	-61.456	-137.951	
116.00	-57.622	-133.622	
117.00	-57.409	-125.600	
118.00	-57.419	-104.600	
119.00	-61.830	-95.477	
120.00	-64.654	-104.418	
121.00	-67.453	-177.655	
122.00	-63.283	153.644	
123.00	-60.298	159.074	
124.00	-57.606	158.680	
125.00	-57.638	167.116	
126.00	-57.894	-170.529	
127.00	-65.354	-137.638	
128.00	-64.433	-94.462	
129.00	-60.178	-50.225	
130.00	-59.838	-33.484	
131.00	-60.487	-32.752	
132.00	-61.614	-46.233	
133.00	-60.753	-75.275	
134.00	-58.927	-86.799	
135.00	-57.024	-89.879	
136.00	-54.925	-87.478	
137.00	-54.222	-72.013	
138.00	-55.270	-66.617	
139.00	-56.922	-67.107	
140.00	-60.876	-86.549	
141.00	-64.639	-133.822	
142.00	-57.600	-154.256	
143.00	-53.716	-161.407	
144.00	-52.098	-159.472	
145.00	-52.626	-150.026	
146.00	-54.561	-138.325	
147.00	-58.744	-115.662	
148.00	-63.650	-57.438	
149.00	-58.660	4.609	
150.00	-55.153	49.605	
151.00	-53.925	70.561	
152.00	-52.174	82.706	
153.00	-50.955	90.178	
154.00	-51.867	97.007	
155.00	-53.605	100.301	
156.00	-55.817	90.481	
157.00	-58.751	78.169	
158.00	-59.121	66.397	
159.00	-61.177	63.076	
160.00	-60.103	88.932	
161.00	-58.750	103.724	
162.00	-60.241	139.989	
163.00	-59.953	135.488	
164.00	-59.388	132.420	
165.00	-59.019	122.516	
166.00	-55.869	89.019	
167.00	-54.697	71.423	
168.00	-52.286	53.123	
169.00	-50.628	37.946	
170.00	-50.378	41.327	
171.00	-50.916	26.644	
172.00	-52.092	11.692	
173.00	-52.918	-17.556	
174.00	-52.376	-40.995	
175.00	-53.288	-59.309	
176.00	-69.939	-64.102	
177.00	-53.388	108.294	
178.00	-44.017	106.140	
179.00	-38.330	98.115	
180.00	-34.443	96.217	
181.00	-32.027	93.887	
182.00	-30.113	92.161	
183.00	-29.027	91.428	
184.00	-28.511	89.118	
185.00	-28.697	88.215	
186.00	-29.381	86.242	
187.00	-31.039	85.645	
188.00	-33.145	84.935	
189.00	-36.840	88.420	
190.00	-41.682	99.745	
191.00	-47.875	136.050	
192.00	-47.163	-171.184	
193.00	-45.181	-149.081	
194.00	-45.240	-148.004	
195.00	-47.406	-149.248	
196.00	-52.921	-147.778	
197.00	-74.037	58.538	
198.00	-54.468	26.649	
199.00	-51.475	19.525	
200.00	-49.754	21.605	
201.00	-52.167	24.405	
202.00	-52.001	46.408	
203.00	-52.087	72.687	
204.00	-50.021	91.923	
205.00	-48.741	97.208	
206.00	-48.769	95.045	
207.00	-50.524	83.895	
208.00	-55.521	63.829	
209.00	-63.068	5.757	
210.00	-54.641	-78.848	
211.00	-49.059	-102.435	
212.00	-46.462	-110.769	
213.00	-45.877	-119.991	
214.00	-45.743	-128.519	
215.00	-47.088	-132.448	
216.00	-49.621	-132.225	
217.00	-52.490	-126.337	
218.00	-56.289	-108.100	
219.00	-54.970	-73.988	
220.00	-52.520	-59.748	
221.00	-50.997	-58.317	
222.00	-51.322	-61.794	
223.00	-52.492	-69.809	
224.00	-53.812	-78.038	
225.00	-55.754	-82.670	
226.00	-58.700	-101.866	
227.00	-61.555	-118.525	
228.00	-60.987	-130.469	
229.00	-62.062	174.109	
230.00	-60.578	-170.055	
231.00	-61.747	171.298	
232.00	-59.788	164.570	
233.00	-57.686	139.996	
234.00	-57.569	117.833	
235.00	-60.794	117.387	
236.00	-62.873	72.027	
237.00	-65.374	87.260	
238.00	-69.739	47.617	
239.00	-83.640	-65.479	
240.00	-75.273	-99.677	
241.00	-69.772	-159.644	
242.00	-71.326	-155.317	
243.00	-64.480	127.086	
244.00	-63.386	79.943	
245.00	-63.150	65.307	
246.00	-59.992	32.156	
247.00	-57.708	13.901	
248.00	-57.943	-20.094	
249.00	-56.243	-28.643	
250.00	-55.735	-54.829	
251.00	-56.535	-64.675	
252.00	-57.669	-81.957	
253.00	-57.925	-108.540	
254.00	-59.345	-140.171	
255.00	-58.562	-166.568	
256.00	-62.572	178.590	
257.00	-61.815	134.924	
258.00	-59.853	123.394	
259.00	-61.045	105.882	
260.00	-61.016	94.762	
261.00	-64.451	70.152	
262.00	-64.262	39.063	
263.00	-66.384	19.946	
264.00	-65.124	4.150	
265.00	-66.548	-28.040	
266.00	-67.234	-66.128	
267.00	-66.082	-88.425	
268.00	-63.907	-97.130	
269.00	-61.663	-114.223	
270.00	-62.228	-121.855	
271.00	-62.088	-137.571	
272.00	-61.334	-147.782	
273.00	-63.463	-165.060	
274.00	-63.472	-178.757	
275.00	-62.294	160.714	
276.00	-68.232	163.926	
277.00	-68.078	125.376	
278.00	-73.413	25.324	
279.00	-84.876	81.119	
280.00	-75.087	-18.081	
281.00	-69.734	-66.071	
282.00	-65.647	-66.550	
283.00	-68.365	-44.976	
284.00	-68.581	-119.852	
285.00	-74.330	-85.604	
286.00	-72.081	149.947	
287.00	-79.762	-172.376	
288.00	-69.999	124.705	
289.00	-71.415	104.393	
290.00	-70.628	112.755	
291.00	-71.221	-25.549	
292.00	-72.388	23.298	
293.00	-73.822	18.343	
294.00	-81.323	0.567	
295.00	-68.722	31.403	
296.00	-70.536	34.725	
297.00	-72.980	47.406	
298.00	-66.524	29.013	
299.00	-68.326	20.345	
300.00	-63.359	17.610	
301.00	-64.411	0.570	
302.00	-60.470	-15.970	
303.00	-60.232	-48.328	
304.00	-62.206	-75.466	
305.00	-60.528	-78.358	
306.00	-66.055	-97.295	
307.00	-63.878	-121.204	
308.00	-62.177	170.376	
309.00	-61.610	150.271	
310.00	-59.552	137.969	
311.00	-62.082	99.277	
312.00	-58.946	91.032	
313.00	-63.151	73.681	
314.00	-62.316	45.717	
315.00	-63.424	33.219	
316.00	-58.928	8.999	
317.00	-60.633	-0.246	
318.00	-64.397	-19.061	
319.00	-61.614	-44.427	
320.00	-64.699	-17.605	
321.00	-66.697	3.262	
322.00	-67.039	1.575	
323.00	-63.449	-36.526	
324.00	-64.010	-44.318	
325.00	-62.060	-95.419	
326.00	-60.566	-90.933	
327.00	-61.248	-97.008	
328.00	-60.535	-101.919	
329.00	-64.617	-105.337	
330.00	-64.971	-145.826	
331.00	-70.400	-75.262	
332.00	-71.410	-51.542	
333.00	-67.898	-40.226	
334.00	-65.506	-47.021	
335.00	-63.181	-28.661	
336.00	-68.105	-93.175	
337.00	-58.901	-67.555	
338.00	-60.823	-82.946	
339.00	-61.615	-67.376	
340.00	-64.805	-76.415	
341.00	-64.006	-84.826	
342.00	-69.961	-118.809	
343.00	-63.499	-86.877	
344.00	-62.532	-77.284	
345.00	-60.379	-144.956	
346.00	-61.132	-172.725	
347.00	-66.859	145.200	
348.00	-77.224	6.436	
349.00	-67.267	-149.766	
350.00	-66.119	25.031	
351.00	-66.841	45.815	
352.00	-69.127	109.561	
353.00	-66.547	63.263	
354.00	-63.766	70.508	
355.00	-66.692	92.340	
356.00	-59.864	145.140	
357.00	-60.298	105.140	
358.00	-56.624	109.936	
359.00	-59.645	93.947	
Frequency	2700.00	MHz	
Channel	test		
Scan Axis name	Azimuth  [deg]		
Scan Axis	Amplitude	Phase	
			
0.00	-58.084	-157.206	
1.00	-57.886	-154.231	
2.00	-58.292	-155.017	
3.00	-60.336	-142.620	
4.00	-62.553	-122.476	
5.00	-65.772	-117.313	
6.00	-66.181	-78.375	
7.00	-70.187	-53.099	
8.00	-66.013	-30.081	
9.00	-67.391	-30.076	
10.00	-66.017	-6.864	
11.00	-73.246	-27.455	
12.00	-70.428	-25.765	
13.00	-70.387	-52.875	
14.00	-70.585	-30.294	
15.00	-69.537	-55.110	
16.00	-68.025	-6.371	
17.00	-69.022	24.959	
18.00	-67.145	46.429	
19.00	-68.105	84.831	
20.00	-66.548	117.799	
21.00	-62.448	136.830	
22.00	-60.173	146.991	
23.00	-57.875	153.190	
24.00	-57.221	172.454	
25.00	-57.157	-172.281	
26.00	-58.428	-161.342	
27.00	-61.003	-150.120	
28.00	-66.186	-143.771	
29.00	-69.707	-142.248	
30.00	-74.808	-126.761	
31.00	-89.743	-17.829	
32.00	-81.987	20.715	
33.00	-77.757	-16.403	
34.00	-70.204	76.895	
35.00	-74.058	172.683	
36.00	-67.977	-111.560	
37.00	-66.603	-67.654	
38.00	-64.911	-45.859	
39.00	-61.884	-19.021	
40.00	-63.065	14.933	
41.00	-63.487	60.404	
42.00	-62.937	110.053	
43.00	-60.989	150.696	
44.00	-59.892	178.563	
45.00	-60.322	-159.214	
46.00	-61.980	-143.530	
47.00	-64.255	-126.076	
48.00	-68.742	-117.075	
49.00	-71.620	-169.931	
50.00	-76.055	154.328	
51.00	-78.324	103.420	
52.00	-68.523	84.791	
53.00	-65.525	91.058	
54.00	-62.055	106.229	
55.00	-60.884	126.285	
56.00	-62.710	144.494	
57.00	-62.591	177.224	
58.00	-65.191	-120.818	
59.00	-63.683	-59.229	
60.00	-61.457	-10.326	
61.00	-59.059	19.236	
62.00	-59.505	48.435	
63.00	-58.522	84.949	
64.00	-58.626	124.779	
65.00	-58.873	163.376	
66.00	-59.387	-152.155	
67.00	-56.851	-103.393	
68.00	-57.247	-78.003	
69.00	-57.465	-42.718	
70.00	-57.815	12.588	
71.00	-56.757	54.935	
72.00	-54.289	96.081	
73.00	-53.280	127.866	
74.00	-51.969	158.871	
75.00	-51.554	-172.138	
76.00	-51.094	-144.971	
77.00	-51.382	-109.774	
78.00	-50.970	-82.087	
79.00	-50.800	-50.131	
80.00	-51.229	-15.155	
81.00	-51.302	14.631	
82.00	-50.683	48.596	
83.00	-50.796	87.168	
84.00	-51.296	106.014	
85.00	-48.733	133.038	
86.00	-50.369	169.232	
87.00	-50.137	-162.992	
88.00	-47.963	-132.849	
89.00	-47.218	-104.456	
90.00	-47.334	-82.049	
91.00	-48.495	-50.761	
92.00	-48.422	-23.706	
93.00	-46.687	8.161	
94.00	-47.281	29.301	
95.00	-46.735	55.029	
96.00	-46.630	81.716	
97.00	-46.819	106.728	
98.00	-46.865	129.990	
99.00	-47.040	157.686	
100.00	-47.455	-177.440	
101.00	-47.811	-138.297	
102.00	-47.766	-109.901	
103.00	-47.791	-80.748	
104.00	-47.479	-56.290	
105.00	-47.701	-29.584	
106.00	-47.561	-8.945	
107.00	-47.819	18.085	
108.00	-48.256	36.654	
109.00	-49.016	59.999	
110.00	-49.916	78.212	
111.00	-51.754	100.187	
112.00	-54.307	118.710	
113.00	-58.480	143.560	
114.00	-65.678	-162.975	
115.00	-66.110	-65.993	
116.00	-60.303	-25.804	
117.00	-58.427	-7.243	
118.00	-57.803	9.151	
119.00	-58.315	20.717	
120.00	-62.416	42.382	
121.00	-73.564	45.699	
122.00	-69.867	-108.405	
123.00	-62.417	-100.588	
124.00	-61.110	-74.825	
125.00	-60.757	-73.525	
126.00	-66.507	-57.522	
127.00	-70.057	59.604	
128.00	-61.154	107.034	
129.00	-57.482	113.471	
130.00	-54.964	139.541	
131.00	-54.881	149.251	
132.00	-56.283	161.450	
133.00	-62.077	174.613	
134.00	-76.202	-132.676	
135.00	-64.152	22.334	
136.00	-57.296	37.095	
137.00	-54.013	60.435	
138.00	-52.666	79.636	
139.00	-51.646	87.807	
140.00	-52.700	100.760	
141.00	-54.747	104.869	
142.00	-61.167	98.547	
143.00	-62.554	11.225	
144.00	-56.267	-2.134	
145.00	-52.759	3.885	
146.00	-51.437	18.146	
147.00	-51.395	34.977	
148.00	-52.320	51.124	
149.00	-54.083	73.198	
150.00	-56.361	98.945	
151.00	-60.743	132.945	
152.00	-60.647	-156.671	
153.00	-56.914	-125.058	
154.00	-57.524	-113.515	
155.00	-58.920	-96.337	
156.00	-59.333	-83.992	
157.00	-61.413	-71.124	
158.00	-63.487	-19.135	
159.00	-62.190	-4.051	
160.00	-62.035	6.789	
161.00	-61.093	-8.615	
162.00	-58.191	-12.509	
163.00	-55.336	-9.663	
164.00	-55.009	-16.315	
165.00	-54.954	-13.501	
166.00	-57.147	-22.753	
167.00	-59.989	-40.737	
168.00	-61.581	-73.345	
169.00	-60.831	-102.750	
170.00	-61.129	-116.555	
171.00	-60.418	-138.105	
172.00	-62.812	-159.100	
173.00	-65.578	178.705	
174.00	-66.712	101.973	
175.00	-63.677	51.263	
176.00	-62.880	0.090	
177.00	-55.558	-65.727	
178.00	-48.302	-87.992	
179.00	-43.300	-100.696	
180.00	-39.756	-108.086	
181.00	-37.316	-113.465	
182.00	-35.511	-116.256	
183.00	-34.390	-120.648	
184.00	-34.152	-123.406	
185.00	-34.133	-125.298	
186.00	-35.024	-128.032	
187.00	-36.715	-128.663	
188.00	-39.410	-128.039	
189.00	-43.673	-119.442	
190.00	-49.021	-94.338	
191.00	-49.793	-54.631	
192.00	-48.831	-26.847	
193.00	-48.452	-16.233	
194.00	-50.674	-28.423	
195.00	-55.927	-36.709	
196.00	-60.660	-116.086	
197.00	-54.174	-168.602	
198.00	-51.006	-178.278	
199.00	-51.009	173.240	
200.00	-52.345	174.619	
201.00	-55.025	-174.599	
202.00	-58.682	-135.450	
203.00	-56.970	-92.323	
204.00	-53.693	-81.055	
205.00	-54.323	-76.232	
206.00	-56.417	-78.253	
207.00	-60.282	-44.326	
208.00	-59.161	20.145	
209.00	-52.900	35.364	
210.00	-49.151	36.795	
211.00	-47.445	31.542	
212.00	-46.876	28.689	
213.00	-47.188	25.048	
214.00	-48.862	22.411	
215.00	-51.256	26.350	
216.00	-54.048	39.439	
217.00	-55.842	63.902	
218.00	-55.550	80.102	
219.00	-54.043	89.938	
220.00	-54.032	91.629	
221.00	-53.392	88.672	
222.00	-54.418	82.225	
223.00	-55.714	65.427	
224.00	-57.905	57.047	
225.00	-57.691	45.133	
226.00	-60.556	24.531	
227.00	-59.229	25.057	
228.00	-56.240	-0.275	
229.00	-56.333	-19.262	
230.00	-54.572	-42.339	
231.00	-53.831	-58.126	
232.00	-52.821	-77.063	
233.00	-53.033	-96.648	
234.00	-52.679	-119.979	
235.00	-53.712	-140.739	
236.00	-53.852	-168.340	
237.00	-54.505	168.854	
238.00	-54.428	149.554	
239.00	-55.531	130.932	
240.00	-56.245	111.376	
241.00	-60.817	94.707	
242.00	-64.337	63.390	
243.00	-72.111	-22.978	
244.00	-80.527	-173.258	
245.00	-62.377	-128.185	
246.00	-62.555	-153.869	
247.00	-59.917	-165.045	
248.00	-59.217	-179.310	
249.00	-59.850	163.531	
250.00	-59.907	158.426	
251.00	-59.857	142.032	
252.00	-60.129	135.017	
253.00	-62.006	123.027	
254.00	-63.550	113.631	
255.00	-65.036	91.250	
256.00	-65.462	76.403	
257.00	-65.506	56.338	
258.00	-66.089	29.137	
259.00	-68.232	10.849	
260.00	-66.851	-23.381	
261.00	-65.778	-53.960	
262.00	-64.564	-86.263	
263.00	-63.458	-107.132	
264.00	-63.090	-128.104	
265.00	-61.846	-135.116	
266.00	-62.497	-157.482	
267.00	-63.091	175.496	
268.00	-63.991	161.910	
269.00	-64.377	126.339	
270.00	-66.379	102.011	
271.00	-69.497	87.227	
272.00	-66.935	60.408	
273.00	-70.662	31.500	
274.00	-75.424	-34.933	
275.00	-68.177	-75.560	
276.00	-68.556	-142.143	
277.00	-63.509	-172.325	
278.00	-61.319	172.205	
279.00	-63.609	158.514	
280.00	-66.996	144.615	
281.00	-64.151	100.195	
282.00	-64.559	90.150	
283.00	-65.297	64.915	
284.00	-67.797	48.718	
285.00	-67.704	9.050	
286.00	-68.352	-20.855	
287.00	-68.718	-48.520	
288.00	-71.126	-61.605	
289.00	-73.792	-126.613	
290.00	-76.911	-139.444	
291.00	-77.659	164.210	
292.00	-81.383	65.536	
293.00	-79.406	93.199	
294.00	-82.688	47.475	
295.00	-76.602	-58.173	
296.00	-72.974	-83.381	
297.00	-68.532	-135.684	
298.00	-64.487	-153.149	
299.00	-64.042	-162.217	
300.00	-62.546	-175.036	
301.00	-61.161	168.247	
302.00	-61.028	159.432	
303.00	-61.849	142.509	
304.00	-61.501	124.023	
305.00	-61.610	112.768	
306.00	-62.641	99.449	
307.00	-64.444	81.665	
308.00	-65.052	64.823	
309.00	-66.371	40.260	
310.00	-67.767	26.124	
311.00	-68.128	-0.514	
312.00	-66.376	-50.048	
313.00	-67.601	-61.637	
314.00	-66.368	-79.791	
315.00	-68.856	-99.785	
316.00	-70.701	-141.038	
317.00	-68.613	-177.182	
318.00	-68.350	159.389	
319.00	-67.850	138.121	
320.00	-67.665	135.541	
321.00	-69.571	143.160	
322.00	-69.946	140.076	
323.00	-72.663	158.492	
324.00	-70.201	131.461	
325.00	-72.032	130.223	
326.00	-74.482	100.976	
327.00	-71.144	97.860	
328.00	-69.205	90.458	
329.00	-67.415	86.915	
330.00	-68.222	67.409	
331.00	-67.127	44.590	
332.00	-65.167	35.017	
333.00	-66.562	37.534	
334.00	-68.227	56.553	
335.00	-69.510	86.890	
336.00	-67.936	107.065	
337.00	-64.281	104.136	
338.00	-60.893	96.014	
339.00	-60.236	89.958	
340.00	-60.375	79.529	
341.00	-59.358	69.334	
342.00	-61.978	78.804	
343.00	-63.669	70.631	
344.00	-70.729	60.775	
345.00	-69.696	58.692	
346.00	-76.601	82.689	
347.00	-87.666	-8.341	
348.00	-77.644	80.003	
349.00	-75.477	80.383	
350.00	-72.184	63.924	
351.00	-74.466	106.183	
352.00	-84.318	-134.886	
353.00	-70.043	140.371	
354.00	-76.237	120.368	
355.00	-72.260	149.628	
356.00	-64.414	-152.523	
357.00	-62.758	-157.753	
358.00	-60.887	-144.793	
359.00	-59.362	-145.670	
