Test Title:	Alpha Wireless Indoor Range						
Date:	02/11/2017						
Time:	16:27						
Operator Name:	FL						
Comment:	Version 2 Run 2
Cable length changed						
Caib. File Name:	C:\Program Files\Midas 2.01d\Calibration Files\test sigma 180900.cal						
							
[Scan Axis] Name: 	Azimuth  [deg]Start: 	0.000000	Stop	359.000000	Increment	1.000000[Step Axis] Name: 	Start: 	0.000000	Stop	0.000000	Increment	0.000000[Tert] Name: 	None [Forth] Name: 	None  [ Freq.]  (List) 	MHz.	1694.000000	1710.000000	1800.000000	1850.000000	1950.000000	2050.000000	2170.000000	2300.000000	2350.000000	2400.000000	2450.000000	2496.000000	2550.000000	2600.000000	2650.000000	2700.000000
 [Switch]  	None [Channel]  	test			 [ Beam] 	None			
Database:			
First Question			
2nd			
3rd			
4th			
			
Frequency	1694.00	MHz	
Channel	test		
Scan Axis name	Azimuth  [deg]		
Scan Axis	Amplitude	Phase	
			
0.00	-58.907	131.354	
1.00	-59.262	141.846	
2.00	-58.931	142.783	
3.00	-58.997	160.397	
4.00	-58.036	168.809	
5.00	-58.134	173.629	
6.00	-57.958	-172.677	
7.00	-57.467	-170.486	
8.00	-58.015	-177.151	
9.00	-58.251	-160.353	
10.00	-58.785	-171.494	
11.00	-60.332	-167.762	
12.00	-63.725	-172.379	
13.00	-61.928	160.213	
14.00	-64.429	134.306	
15.00	-64.270	107.455	
16.00	-60.758	80.993	
17.00	-60.923	75.717	
18.00	-60.273	64.500	
19.00	-59.941	51.724	
20.00	-62.013	37.114	
21.00	-60.127	21.390	
22.00	-62.212	-1.436	
23.00	-61.203	-8.543	
24.00	-60.024	-22.608	
25.00	-60.146	-41.518	
26.00	-59.961	-38.607	
27.00	-61.218	-37.121	
28.00	-61.738	-50.634	
29.00	-63.422	-49.892	
30.00	-66.745	-66.677	
31.00	-70.982	-73.913	
32.00	-72.222	-136.287	
33.00	-69.874	176.885	
34.00	-65.088	158.465	
35.00	-64.932	162.855	
36.00	-61.367	171.195	
37.00	-58.882	171.608	
38.00	-58.531	-178.610	
39.00	-59.286	-169.062	
40.00	-60.144	-159.274	
41.00	-61.046	-153.237	
42.00	-63.972	-140.575	
43.00	-65.108	-120.236	
44.00	-65.983	-109.837	
45.00	-67.456	-64.197	
46.00	-68.159	-65.395	
47.00	-70.656	-50.537	
48.00	-70.554	-77.807	
49.00	-69.596	-78.932	
50.00	-68.299	-85.663	
51.00	-65.068	-88.883	
52.00	-61.568	-80.569	
53.00	-59.652	-80.142	
54.00	-58.427	-75.002	
55.00	-58.276	-72.311	
56.00	-56.585	-69.852	
57.00	-57.067	-65.174	
58.00	-57.509	-61.512	
59.00	-58.689	-58.914	
60.00	-60.729	-61.505	
61.00	-62.998	-76.785	
62.00	-63.226	-88.183	
63.00	-63.145	-99.044	
64.00	-61.079	-115.379	
65.00	-60.056	-119.804	
66.00	-59.454	-115.395	
67.00	-60.016	-114.550	
68.00	-59.786	-113.367	
69.00	-61.492	-115.339	
70.00	-61.587	-105.165	
71.00	-64.005	-96.191	
72.00	-67.955	-93.698	
73.00	-73.017	-85.467	
74.00	-74.721	-131.880	
75.00	-76.257	147.285	
76.00	-67.331	162.624	
77.00	-67.597	168.064	
78.00	-64.320	-172.383	
79.00	-62.669	-168.561	
80.00	-61.268	-149.934	
81.00	-61.091	-148.455	
82.00	-59.367	-137.980	
83.00	-58.677	-122.509	
84.00	-58.976	-111.712	
85.00	-60.439	-104.449	
86.00	-61.644	-87.626	
87.00	-62.360	-81.037	
88.00	-64.086	-72.151	
89.00	-67.254	-53.467	
90.00	-67.512	52.311	
91.00	-71.713	99.512	
92.00	-64.237	109.256	
93.00	-62.489	129.259	
94.00	-58.366	151.092	
95.00	-57.189	159.413	
96.00	-56.802	168.489	
97.00	-56.286	-178.659	
98.00	-53.541	-165.694	
99.00	-53.819	-157.054	
100.00	-53.967	-143.332	
101.00	-53.681	-125.382	
102.00	-54.088	-115.752	
103.00	-54.500	-101.784	
104.00	-54.573	-90.687	
105.00	-54.377	-66.557	
106.00	-55.879	-40.956	
107.00	-55.834	-26.919	
108.00	-55.164	-7.960	
109.00	-54.887	14.433	
110.00	-54.262	30.236	
111.00	-53.345	48.659	
112.00	-53.756	68.661	
113.00	-52.777	80.557	
114.00	-52.482	97.054	
115.00	-53.209	114.349	
116.00	-53.206	129.700	
117.00	-52.846	149.664	
118.00	-52.512	172.301	
119.00	-52.100	-167.416	
120.00	-51.666	-153.280	
121.00	-50.758	-132.860	
122.00	-49.519	-120.357	
123.00	-49.158	-106.143	
124.00	-48.227	-91.705	
125.00	-48.086	-81.225	
126.00	-47.637	-69.628	
127.00	-47.405	-57.864	
128.00	-47.442	-48.025	
129.00	-47.305	-39.556	
130.00	-47.525	-29.532	
131.00	-47.813	-20.092	
132.00	-48.161	-14.212	
133.00	-48.873	-4.512	
134.00	-49.672	1.785	
135.00	-50.537	2.694	
136.00	-51.730	7.013	
137.00	-53.326	8.450	
138.00	-56.087	7.948	
139.00	-58.679	-4.345	
140.00	-61.114	-41.035	
141.00	-59.053	-63.439	
142.00	-56.468	-82.387	
143.00	-54.312	-87.288	
144.00	-52.835	-90.575	
145.00	-50.974	-91.174	
146.00	-50.579	-92.776	
147.00	-50.207	-88.297	
148.00	-50.554	-87.762	
149.00	-50.627	-82.293	
150.00	-51.218	-79.474	
151.00	-52.263	-76.527	
152.00	-53.575	-66.422	
153.00	-53.845	-58.656	
154.00	-54.579	-38.375	
155.00	-53.856	-17.500	
156.00	-52.027	1.227	
157.00	-49.072	12.518	
158.00	-46.673	18.524	
159.00	-44.434	24.370	
160.00	-42.589	28.050	
161.00	-40.917	31.599	
162.00	-39.677	34.063	
163.00	-38.823	37.077	
164.00	-38.286	40.819	
165.00	-38.262	45.438	
166.00	-38.755	49.815	
167.00	-40.069	56.731	
168.00	-42.347	66.197	
169.00	-46.725	92.252	
170.00	-47.524	161.128	
171.00	-41.423	-159.548	
172.00	-36.477	-145.334	
173.00	-33.260	-138.689	
174.00	-30.734	-134.125	
175.00	-28.853	-130.964	
176.00	-27.355	-129.104	
177.00	-26.277	-127.080	
178.00	-25.531	-125.238	
179.00	-25.030	-123.551	
180.00	-24.880	-123.227	
181.00	-24.962	-122.239	
182.00	-25.353	-121.279	
183.00	-26.032	-120.532	
184.00	-27.081	-119.898	
185.00	-28.430	-119.287	
186.00	-30.320	-118.210	
187.00	-32.692	-114.848	
188.00	-35.950	-109.530	
189.00	-40.266	-95.819	
190.00	-44.664	-61.750	
191.00	-43.133	-13.254	
192.00	-40.877	4.562	
193.00	-38.702	9.970	
194.00	-37.867	11.206	
195.00	-37.649	9.345	
196.00	-37.829	5.952	
197.00	-38.668	1.880	
198.00	-39.790	-7.515	
199.00	-41.133	-16.088	
200.00	-43.178	-28.237	
201.00	-45.494	-45.318	
202.00	-44.374	-48.382	
203.00	-46.971	-75.842	
204.00	-48.356	-87.418	
205.00	-47.442	-99.221	
206.00	-47.234	-94.655	
207.00	-47.015	-95.129	
208.00	-47.611	-95.731	
209.00	-46.488	-93.722	
210.00	-47.029	-94.614	
211.00	-47.579	-95.155	
212.00	-47.737	-100.464	
213.00	-48.617	-103.732	
214.00	-49.773	-112.655	
215.00	-52.778	-121.332	
216.00	-57.179	-142.466	
217.00	-60.761	138.970	
218.00	-54.984	88.669	
219.00	-50.707	66.696	
220.00	-47.586	52.706	
221.00	-45.269	46.579	
222.00	-43.728	32.961	
223.00	-42.625	22.587	
224.00	-42.740	14.964	
225.00	-41.388	3.846	
226.00	-41.768	-1.681	
227.00	-41.341	-10.702	
228.00	-41.929	-21.279	
229.00	-41.714	-29.761	
230.00	-42.193	-39.051	
231.00	-43.326	-50.303	
232.00	-44.283	-56.492	
233.00	-45.497	-65.026	
234.00	-47.159	-73.846	
235.00	-49.929	-85.656	
236.00	-51.004	-95.264	
237.00	-53.220	-105.000	
238.00	-53.257	-127.481	
239.00	-53.588	-118.525	
240.00	-58.704	-123.936	
241.00	-58.048	-132.648	
242.00	-65.754	-132.697	
243.00	-61.784	-132.596	
244.00	-63.307	-112.991	
245.00	-61.983	-112.976	
246.00	-62.584	-116.333	
247.00	-59.827	-109.949	
248.00	-61.312	-105.080	
249.00	-58.908	-113.604	
250.00	-58.498	-116.291	
251.00	-60.058	-114.777	
252.00	-61.056	-120.030	
253.00	-60.918	-132.839	
254.00	-61.463	-138.340	
255.00	-61.539	-144.295	
256.00	-61.542	-156.744	
257.00	-60.357	-177.754	
258.00	-61.512	173.855	
259.00	-60.715	160.314	
260.00	-59.866	147.668	
261.00	-58.223	139.170	
262.00	-58.179	138.227	
263.00	-57.966	125.762	
264.00	-57.516	116.446	
265.00	-57.647	116.791	
266.00	-58.009	109.959	
267.00	-58.188	109.040	
268.00	-58.713	107.109	
269.00	-61.113	106.623	
270.00	-63.222	105.537	
271.00	-65.493	108.405	
272.00	-70.468	122.920	
273.00	-71.678	152.269	
274.00	-71.525	-141.648	
275.00	-67.769	-135.477	
276.00	-64.518	-137.916	
277.00	-63.102	-139.291	
278.00	-63.674	-136.672	
279.00	-63.391	-142.427	
280.00	-62.530	-146.823	
281.00	-64.675	-159.762	
282.00	-67.846	-176.716	
283.00	-67.511	165.002	
284.00	-75.224	145.548	
285.00	-71.111	111.168	
286.00	-67.207	67.946	
287.00	-64.305	31.589	
288.00	-60.807	32.594	
289.00	-59.081	20.916	
290.00	-58.672	7.728	
291.00	-57.053	4.891	
292.00	-57.434	1.550	
293.00	-56.909	-4.915	
294.00	-56.586	-0.171	
295.00	-57.517	-5.758	
296.00	-58.706	-6.511	
297.00	-57.561	-10.494	
298.00	-59.833	-6.577	
299.00	-61.826	-7.353	
300.00	-64.003	9.497	
301.00	-64.596	37.494	
302.00	-62.973	51.795	
303.00	-62.793	56.328	
304.00	-59.873	71.312	
305.00	-58.639	74.904	
306.00	-58.150	70.747	
307.00	-58.219	70.193	
308.00	-58.713	70.982	
309.00	-60.045	60.449	
310.00	-61.341	59.797	
311.00	-64.479	53.901	
312.00	-67.096	72.182	
313.00	-72.016	85.999	
314.00	-69.859	149.595	
315.00	-65.371	169.460	
316.00	-62.424	169.357	
317.00	-59.849	164.369	
318.00	-58.889	151.487	
319.00	-57.972	148.557	
320.00	-56.965	135.279	
321.00	-56.123	125.947	
322.00	-56.094	118.110	
323.00	-55.059	108.863	
324.00	-55.118	98.925	
325.00	-54.700	93.873	
326.00	-54.543	85.923	
327.00	-54.787	77.184	
328.00	-54.660	69.281	
329.00	-55.624	60.503	
330.00	-56.794	49.120	
331.00	-57.972	39.927	
332.00	-60.221	19.171	
333.00	-63.047	-6.625	
334.00	-64.274	-52.178	
335.00	-62.510	-93.298	
336.00	-59.821	-113.345	
337.00	-57.523	-132.968	
338.00	-55.931	-145.517	
339.00	-54.840	-157.503	
340.00	-54.156	-166.108	
341.00	-53.523	-172.719	
342.00	-53.574	179.824	
343.00	-53.841	173.231	
344.00	-54.455	167.151	
345.00	-55.261	157.036	
346.00	-55.800	148.296	
347.00	-56.508	138.613	
348.00	-57.557	125.343	
349.00	-58.964	122.484	
350.00	-58.688	104.340	
351.00	-59.841	105.868	
352.00	-58.873	99.870	
353.00	-59.981	98.024	
354.00	-59.360	96.368	
355.00	-59.073	100.052	
356.00	-59.118	104.037	
357.00	-59.165	106.322	
358.00	-58.785	113.285	
359.00	-58.815	123.213	
Frequency	1710.00	MHz	
Channel	test		
Scan Axis name	Azimuth  [deg]		
Scan Axis	Amplitude	Phase	
			
0.00	-58.125	128.564	
1.00	-57.199	134.731	
2.00	-56.557	134.938	
3.00	-55.254	135.552	
4.00	-55.822	141.126	
5.00	-55.583	141.076	
6.00	-55.717	155.549	
7.00	-55.697	155.151	
8.00	-55.703	159.099	
9.00	-54.174	162.013	
10.00	-53.532	165.505	
11.00	-53.904	168.562	
12.00	-54.051	165.444	
13.00	-53.130	158.028	
14.00	-54.928	156.735	
15.00	-55.492	142.967	
16.00	-56.423	133.696	
17.00	-56.005	117.383	
18.00	-55.781	113.553	
19.00	-55.537	107.961	
20.00	-56.398	105.187	
21.00	-57.066	100.158	
22.00	-58.920	99.761	
23.00	-61.125	104.651	
24.00	-64.360	95.983	
25.00	-69.015	92.155	
26.00	-75.786	67.314	
27.00	-72.273	-37.336	
28.00	-67.197	-53.621	
29.00	-64.201	-56.109	
30.00	-62.083	-57.794	
31.00	-62.071	-50.573	
32.00	-60.854	-43.860	
33.00	-60.826	-31.457	
34.00	-61.966	-17.346	
35.00	-62.183	-3.977	
36.00	-64.557	16.374	
37.00	-64.187	53.085	
38.00	-63.623	73.483	
39.00	-62.415	96.326	
40.00	-63.404	111.260	
41.00	-61.630	127.597	
42.00	-60.604	142.845	
43.00	-60.727	151.910	
44.00	-59.477	159.249	
45.00	-58.995	162.285	
46.00	-58.182	172.862	
47.00	-57.256	175.343	
48.00	-56.375	-175.274	
49.00	-55.709	-169.205	
50.00	-54.917	-154.975	
51.00	-54.693	-145.964	
52.00	-54.183	-135.739	
53.00	-53.569	-121.608	
54.00	-53.000	-107.074	
55.00	-53.017	-92.844	
56.00	-52.702	-80.981	
57.00	-52.224	-67.240	
58.00	-51.779	-54.718	
59.00	-52.205	-43.789	
60.00	-52.229	-34.809	
61.00	-52.490	-26.936	
62.00	-52.808	-17.922	
63.00	-53.614	-12.325	
64.00	-54.263	-9.843	
65.00	-55.787	-3.488	
66.00	-56.064	-1.511	
67.00	-56.736	-2.346	
68.00	-56.898	-1.835	
69.00	-57.980	-2.464	
70.00	-57.073	1.453	
71.00	-56.434	6.757	
72.00	-56.130	15.149	
73.00	-56.658	21.805	
74.00	-55.745	27.563	
75.00	-55.398	38.237	
76.00	-55.932	42.350	
77.00	-56.535	51.876	
78.00	-55.857	59.323	
79.00	-57.036	64.629	
80.00	-57.834	76.875	
81.00	-58.054	92.143	
82.00	-61.764	72.876	
83.00	-66.206	90.579	
84.00	-67.320	37.524	
85.00	-67.423	108.109	
86.00	-66.624	17.269	
87.00	-65.659	20.540	
88.00	-66.970	8.034	
89.00	-61.550	11.392	
90.00	-60.397	16.929	
91.00	-58.941	22.617	
92.00	-56.370	28.591	
93.00	-56.259	41.431	
94.00	-56.177	45.844	
95.00	-55.489	58.882	
96.00	-55.895	70.635	
97.00	-55.486	74.701	
98.00	-55.588	91.467	
99.00	-56.315	99.091	
100.00	-56.727	115.236	
101.00	-57.694	139.733	
102.00	-58.561	156.855	
103.00	-59.322	-179.804	
104.00	-59.664	-149.529	
105.00	-58.892	-120.994	
106.00	-57.037	-101.048	
107.00	-55.197	-79.921	
108.00	-53.442	-64.677	
109.00	-52.017	-53.966	
110.00	-51.071	-44.129	
111.00	-50.230	-34.327	
112.00	-49.719	-26.997	
113.00	-49.557	-16.761	
114.00	-49.702	-6.963	
115.00	-50.013	2.601	
116.00	-50.654	13.942	
117.00	-51.468	24.017	
118.00	-52.436	39.631	
119.00	-53.280	56.644	
120.00	-54.325	76.671	
121.00	-54.634	93.010	
122.00	-54.927	113.399	
123.00	-55.131	128.232	
124.00	-55.429	145.125	
125.00	-55.885	160.067	
126.00	-56.600	176.655	
127.00	-57.566	-165.637	
128.00	-58.022	-150.005	
129.00	-58.249	-127.166	
130.00	-57.596	-105.669	
131.00	-56.575	-90.654	
132.00	-55.676	-76.596	
133.00	-54.392	-68.526	
134.00	-53.622	-61.117	
135.00	-52.849	-56.877	
136.00	-52.353	-53.008	
137.00	-52.039	-48.299	
138.00	-52.176	-45.367	
139.00	-52.555	-38.522	
140.00	-53.252	-34.047	
141.00	-54.495	-22.361	
142.00	-55.682	-11.519	
143.00	-57.230	13.291	
144.00	-57.291	42.754	
145.00	-56.288	65.129	
146.00	-54.707	87.983	
147.00	-52.805	103.137	
148.00	-51.322	116.396	
149.00	-50.180	125.457	
150.00	-49.294	133.950	
151.00	-48.659	145.593	
152.00	-48.420	156.316	
153.00	-48.177	166.173	
154.00	-48.277	178.250	
155.00	-48.822	-168.879	
156.00	-48.932	-150.701	
157.00	-48.918	-129.474	
158.00	-47.852	-105.644	
159.00	-46.038	-86.713	
160.00	-44.231	-70.364	
161.00	-42.394	-58.292	
162.00	-40.751	-49.859	
163.00	-39.654	-43.361	
164.00	-38.852	-36.928	
165.00	-38.635	-31.797	
166.00	-38.967	-27.209	
167.00	-40.104	-24.756	
168.00	-42.470	-21.791	
169.00	-47.932	-21.161	
170.00	-60.297	-162.671	
171.00	-43.695	174.279	
172.00	-37.469	174.840	
173.00	-33.699	176.766	
174.00	-30.907	178.427	
175.00	-28.818	179.481	
176.00	-27.259	-179.501	
177.00	-26.060	-178.375	
178.00	-25.214	-176.887	
179.00	-24.670	-175.862	
180.00	-24.416	-175.442	
181.00	-24.439	-175.057	
182.00	-24.748	-174.225	
183.00	-25.344	-173.801	
184.00	-26.273	-173.632	
185.00	-27.522	-173.684	
186.00	-29.227	-172.964	
187.00	-31.446	-171.391	
188.00	-34.346	-169.171	
189.00	-38.160	-162.026	
190.00	-43.278	-144.586	
191.00	-47.124	-95.107	
192.00	-44.601	-58.032	
193.00	-42.544	-46.813	
194.00	-41.734	-43.382	
195.00	-42.189	-43.750	
196.00	-43.379	-50.444	
197.00	-45.900	-63.135	
198.00	-49.762	-86.096	
199.00	-52.501	-135.688	
200.00	-48.691	-175.242	
201.00	-45.700	172.123	
202.00	-43.453	143.864	
203.00	-42.937	142.381	
204.00	-41.716	140.658	
205.00	-43.218	139.291	
206.00	-44.575	141.152	
207.00	-46.558	143.454	
208.00	-47.154	153.432	
209.00	-49.504	170.986	
210.00	-48.562	179.908	
211.00	-48.222	-170.708	
212.00	-47.260	-167.398	
213.00	-46.947	-168.777	
214.00	-47.282	-177.377	
215.00	-48.671	171.352	
216.00	-50.167	152.425	
217.00	-51.889	121.828	
218.00	-50.927	77.948	
219.00	-48.432	45.360	
220.00	-46.044	26.493	
221.00	-43.672	13.119	
222.00	-42.351	-2.088	
223.00	-41.482	-14.864	
224.00	-41.093	-23.188	
225.00	-40.375	-37.430	
226.00	-40.508	-48.909	
227.00	-40.679	-55.121	
228.00	-41.031	-70.419	
229.00	-41.819	-81.456	
230.00	-42.211	-95.180	
231.00	-43.644	-110.062	
232.00	-44.643	-119.185	
233.00	-45.901	-136.856	
234.00	-47.299	-146.162	
235.00	-48.789	-170.502	
236.00	-50.575	172.822	
237.00	-53.233	149.713	
238.00	-53.324	120.980	
239.00	-65.609	146.756	
240.00	-57.404	46.661	
241.00	-59.037	22.352	
242.00	-59.066	14.799	
243.00	-60.442	-32.502	
244.00	-59.513	-33.743	
245.00	-57.315	-65.938	
246.00	-57.771	-82.603	
247.00	-57.334	-111.728	
248.00	-58.391	-123.915	
249.00	-56.538	-133.761	
250.00	-55.852	-144.079	
251.00	-56.137	-169.829	
252.00	-56.434	-177.290	
253.00	-56.581	-176.436	
254.00	-58.609	-179.191	
255.00	-59.488	169.886	
256.00	-60.389	158.916	
257.00	-61.476	158.668	
258.00	-65.171	150.839	
259.00	-65.010	145.932	
260.00	-67.097	112.459	
261.00	-69.070	100.084	
262.00	-66.453	83.229	
263.00	-64.421	69.521	
264.00	-64.902	69.989	
265.00	-61.681	55.327	
266.00	-61.261	54.381	
267.00	-59.517	42.795	
268.00	-58.489	36.562	
269.00	-58.272	29.076	
270.00	-57.667	28.570	
271.00	-57.033	30.402	
272.00	-57.434	21.888	
273.00	-56.732	20.716	
274.00	-57.653	18.282	
275.00	-57.387	10.823	
276.00	-57.067	4.278	
277.00	-57.677	1.391	
278.00	-57.540	-0.592	
279.00	-57.408	-2.519	
280.00	-56.929	-6.243	
281.00	-56.997	-9.871	
282.00	-56.118	-16.408	
283.00	-55.946	-18.356	
284.00	-56.115	-21.202	
285.00	-55.596	-24.477	
286.00	-55.319	-31.912	
287.00	-55.009	-39.186	
288.00	-54.572	-42.251	
289.00	-54.613	-47.632	
290.00	-54.545	-51.953	
291.00	-54.876	-54.288	
292.00	-55.678	-61.351	
293.00	-56.400	-64.811	
294.00	-56.585	-69.798	
295.00	-57.316	-73.679	
296.00	-58.589	-77.288	
297.00	-59.739	-89.430	
298.00	-60.252	-98.557	
299.00	-59.601	-109.622	
300.00	-61.801	-126.834	
301.00	-62.178	-144.882	
302.00	-61.762	-164.284	
303.00	-61.312	-176.097	
304.00	-61.282	171.790	
305.00	-61.972	147.710	
306.00	-62.051	132.678	
307.00	-61.808	110.881	
308.00	-62.224	83.985	
309.00	-61.571	62.869	
310.00	-58.564	33.370	
311.00	-57.690	20.398	
312.00	-56.277	9.299	
313.00	-54.882	-1.417	
314.00	-53.700	-10.465	
315.00	-53.429	-15.191	
316.00	-53.669	-25.298	
317.00	-53.914	-27.193	
318.00	-54.754	-39.572	
319.00	-55.873	-41.789	
320.00	-57.189	-39.547	
321.00	-59.311	-35.039	
322.00	-62.387	-26.440	
323.00	-63.422	-4.080	
324.00	-61.677	27.919	
325.00	-58.717	38.780	
326.00	-55.438	37.656	
327.00	-54.495	38.225	
328.00	-52.898	31.237	
329.00	-52.076	24.089	
330.00	-51.488	17.637	
331.00	-51.701	10.376	
332.00	-51.792	2.874	
333.00	-52.302	-7.601	
334.00	-52.960	-16.487	
335.00	-54.538	-31.046	
336.00	-55.383	-41.356	
337.00	-58.012	-52.669	
338.00	-60.190	-62.711	
339.00	-66.237	-101.387	
340.00	-67.284	-154.225	
341.00	-65.709	155.519	
342.00	-60.591	114.868	
343.00	-57.770	102.667	
344.00	-56.325	82.643	
345.00	-55.100	76.894	
346.00	-54.757	63.761	
347.00	-55.072	52.627	
348.00	-55.179	42.865	
349.00	-54.624	35.942	
350.00	-54.627	26.664	
351.00	-56.586	21.569	
352.00	-57.652	7.254	
353.00	-61.386	9.551	
354.00	-63.227	-5.604	
355.00	-67.337	-6.148	
356.00	-81.729	-2.131	
357.00	-67.618	142.776	
358.00	-62.018	128.347	
359.00	-59.340	133.999	
Frequency	1800.00	MHz	
Channel	test		
Scan Axis name	Azimuth  [deg]		
Scan Axis	Amplitude	Phase	
			
0.00	-68.553	7.357	
1.00	-71.954	1.018	
2.00	-65.547	11.087	
3.00	-63.877	7.508	
4.00	-62.261	16.205	
5.00	-60.485	9.406	
6.00	-59.675	16.899	
7.00	-60.923	8.877	
8.00	-62.423	3.907	
9.00	-73.692	8.706	
10.00	-81.691	56.656	
11.00	-72.801	175.186	
12.00	-63.025	-172.543	
13.00	-58.633	-178.170	
14.00	-56.272	-168.967	
15.00	-55.081	-156.293	
16.00	-54.202	-151.352	
17.00	-53.647	-144.282	
18.00	-52.658	-138.478	
19.00	-52.737	-132.238	
20.00	-53.045	-127.805	
21.00	-54.508	-121.960	
22.00	-56.342	-119.308	
23.00	-58.485	-118.483	
24.00	-63.988	-112.482	
25.00	-70.935	-70.579	
26.00	-67.705	50.017	
27.00	-62.312	66.779	
28.00	-59.659	76.630	
29.00	-58.651	81.563	
30.00	-56.260	81.918	
31.00	-56.502	95.836	
32.00	-56.999	97.296	
33.00	-59.238	114.687	
34.00	-58.789	123.641	
35.00	-60.983	158.302	
36.00	-60.211	153.227	
37.00	-60.095	174.831	
38.00	-62.810	-163.115	
39.00	-59.045	-160.837	
40.00	-59.041	-147.380	
41.00	-60.186	-139.651	
42.00	-59.115	-136.518	
43.00	-59.225	-118.647	
44.00	-60.027	-109.319	
45.00	-60.639	-107.254	
46.00	-62.408	-91.054	
47.00	-63.586	-77.140	
48.00	-63.377	-71.503	
49.00	-64.277	-64.372	
50.00	-63.220	-56.005	
51.00	-62.727	-54.184	
52.00	-62.838	-43.945	
53.00	-62.440	-38.615	
54.00	-61.442	-34.724	
55.00	-60.561	-23.014	
56.00	-61.023	-15.343	
57.00	-59.209	3.953	
58.00	-59.102	14.169	
59.00	-59.340	29.939	
60.00	-59.438	48.967	
61.00	-58.799	70.304	
62.00	-58.648	86.077	
63.00	-58.374	105.164	
64.00	-58.627	127.422	
65.00	-58.211	143.242	
66.00	-57.468	160.045	
67.00	-57.739	178.763	
68.00	-58.006	-164.750	
69.00	-58.385	-142.193	
70.00	-58.211	-123.786	
71.00	-57.779	-103.648	
72.00	-58.120	-84.458	
73.00	-57.808	-70.395	
74.00	-58.288	-55.958	
75.00	-58.930	-43.313	
76.00	-59.821	-28.216	
77.00	-61.479	-13.148	
78.00	-62.268	3.141	
79.00	-65.108	29.591	
80.00	-66.570	62.162	
81.00	-65.158	77.584	
82.00	-67.887	112.103	
83.00	-67.385	140.450	
84.00	-68.286	177.761	
85.00	-70.342	-160.588	
86.00	-71.321	-127.273	
87.00	-67.016	-87.809	
88.00	-65.237	-69.474	
89.00	-64.894	-58.038	
90.00	-63.688	-36.183	
91.00	-61.381	-24.952	
92.00	-60.476	-8.064	
93.00	-60.801	5.537	
94.00	-60.978	25.363	
95.00	-60.802	39.531	
96.00	-60.931	65.571	
97.00	-60.883	83.989	
98.00	-59.690	101.422	
99.00	-59.119	120.360	
100.00	-58.729	137.974	
101.00	-58.344	161.922	
102.00	-58.057	-178.878	
103.00	-58.476	-162.351	
104.00	-57.988	-143.581	
105.00	-57.615	-124.129	
106.00	-58.239	-109.326	
107.00	-58.172	-93.952	
108.00	-57.806	-72.385	
109.00	-58.171	-54.106	
110.00	-58.351	-49.479	
111.00	-60.612	-32.824	
112.00	-61.833	-15.665	
113.00	-64.767	18.975	
114.00	-69.141	92.828	
115.00	-61.347	129.705	
116.00	-60.022	148.795	
117.00	-56.556	166.860	
118.00	-55.699	-178.126	
119.00	-54.646	-169.022	
120.00	-54.237	-155.863	
121.00	-54.718	-143.372	
122.00	-56.023	-129.422	
123.00	-57.587	-109.741	
124.00	-60.865	-80.674	
125.00	-61.765	-35.467	
126.00	-59.697	12.054	
127.00	-56.819	45.430	
128.00	-54.619	63.958	
129.00	-53.081	86.330	
130.00	-51.713	106.410	
131.00	-50.486	124.954	
132.00	-49.864	146.204	
133.00	-48.599	169.036	
134.00	-47.605	-171.672	
135.00	-46.594	-152.117	
136.00	-45.673	-135.906	
137.00	-44.755	-119.380	
138.00	-44.187	-104.645	
139.00	-43.866	-91.100	
140.00	-43.856	-78.487	
141.00	-44.347	-65.558	
142.00	-45.247	-51.734	
143.00	-46.653	-36.903	
144.00	-48.544	-19.708	
145.00	-51.487	0.877	
146.00	-54.291	36.749	
147.00	-55.204	86.183	
148.00	-52.946	124.453	
149.00	-50.625	147.572	
150.00	-48.927	163.550	
151.00	-47.948	176.122	
152.00	-47.703	-173.907	
153.00	-47.939	-167.418	
154.00	-49.014	-161.263	
155.00	-50.479	-157.607	
156.00	-52.570	-155.479	
157.00	-55.777	-158.397	
158.00	-59.308	-170.765	
159.00	-62.009	-172.850	
160.00	-66.685	147.726	
161.00	-84.872	78.653	
162.00	-65.048	-31.588	
163.00	-57.541	-38.027	
164.00	-52.762	-39.173	
165.00	-49.327	-39.556	
166.00	-47.172	-36.639	
167.00	-45.928	-36.190	
168.00	-45.669	-35.294	
169.00	-46.695	-36.313	
170.00	-49.376	-44.060	
171.00	-55.082	-85.291	
172.00	-49.417	-159.126	
173.00	-42.823	-173.433	
174.00	-38.414	-177.040	
175.00	-35.270	-178.126	
176.00	-32.944	-177.574	
177.00	-31.180	-176.062	
178.00	-29.857	-174.034	
179.00	-28.957	-171.885	
180.00	-28.400	-170.866	
181.00	-28.219	-169.388	
182.00	-28.380	-167.339	
183.00	-28.911	-165.465	
184.00	-29.849	-163.696	
185.00	-31.188	-162.144	
186.00	-33.015	-159.466	
187.00	-35.503	-155.606	
188.00	-38.782	-149.250	
189.00	-43.285	-136.862	
190.00	-48.710	-105.651	
191.00	-49.430	-49.114	
192.00	-46.999	-20.210	
193.00	-45.466	-8.572	
194.00	-45.542	-0.253	
195.00	-45.567	5.745	
196.00	-48.077	18.490	
197.00	-50.840	38.455	
198.00	-51.041	59.338	
199.00	-51.432	89.475	
200.00	-49.350	103.056	
201.00	-49.400	99.922	
202.00	-51.963	123.767	
203.00	-49.870	102.866	
204.00	-53.661	112.271	
205.00	-59.122	115.988	
206.00	-79.952	166.621	
207.00	-59.500	-73.509	
208.00	-54.173	-91.792	
209.00	-51.796	-90.154	
210.00	-51.490	-98.918	
211.00	-53.049	-98.601	
212.00	-56.751	-89.107	
213.00	-63.161	-35.033	
214.00	-55.881	33.737	
215.00	-49.370	40.521	
216.00	-45.960	40.198	
217.00	-43.443	37.573	
218.00	-41.799	32.571	
219.00	-40.821	27.228	
220.00	-40.128	23.000	
221.00	-40.173	17.168	
222.00	-40.077	10.907	
223.00	-40.675	4.922	
224.00	-41.354	-1.632	
225.00	-42.820	-8.201	
226.00	-43.925	-19.298	
227.00	-46.904	-31.925	
228.00	-48.131	-38.163	
229.00	-51.435	-44.031	
230.00	-54.134	-54.206	
231.00	-59.949	-32.949	
232.00	-66.633	-44.829	
233.00	-63.664	34.136	
234.00	-57.738	49.539	
235.00	-54.666	37.124	
236.00	-52.357	36.449	
237.00	-50.699	32.635	
238.00	-48.943	27.937	
239.00	-47.295	26.721	
240.00	-48.249	2.911	
241.00	-46.814	3.951	
242.00	-47.610	-2.527	
243.00	-47.479	-12.260	
244.00	-47.553	-20.825	
245.00	-48.313	-34.265	
246.00	-49.053	-41.527	
247.00	-49.407	-60.802	
248.00	-50.414	-73.739	
249.00	-50.398	-91.918	
250.00	-50.535	-107.828	
251.00	-49.808	-128.331	
252.00	-49.458	-141.055	
253.00	-48.974	-155.574	
254.00	-49.235	-166.811	
255.00	-49.700	-179.278	
256.00	-49.928	170.414	
257.00	-51.124	157.206	
258.00	-51.998	141.759	
259.00	-53.051	122.908	
260.00	-54.559	104.528	
261.00	-55.068	80.986	
262.00	-55.531	51.489	
263.00	-55.133	31.245	
264.00	-54.618	8.281	
265.00	-53.913	-10.290	
266.00	-53.229	-28.368	
267.00	-52.542	-45.170	
268.00	-52.049	-59.184	
269.00	-51.853	-74.749	
270.00	-51.688	-90.456	
271.00	-51.471	-104.883	
272.00	-51.331	-120.677	
273.00	-51.278	-134.485	
274.00	-51.443	-147.536	
275.00	-51.237	-161.058	
276.00	-51.770	178.485	
277.00	-51.686	170.489	
278.00	-52.291	152.063	
279.00	-52.800	132.988	
280.00	-53.168	120.340	
281.00	-53.983	100.090	
282.00	-53.881	76.678	
283.00	-55.696	63.517	
284.00	-55.051	39.758	
285.00	-55.417	11.999	
286.00	-54.610	-8.139	
287.00	-54.826	-40.355	
288.00	-54.431	-55.866	
289.00	-54.720	-71.894	
290.00	-54.505	-84.659	
291.00	-55.196	-103.246	
292.00	-56.446	-114.412	
293.00	-57.349	-131.783	
294.00	-59.631	-144.500	
295.00	-61.722	-163.166	
296.00	-65.395	-178.370	
297.00	-74.008	169.473	
298.00	-81.695	-98.268	
299.00	-69.652	-64.187	
300.00	-64.353	-71.726	
301.00	-61.600	-86.763	
302.00	-59.731	-102.508	
303.00	-58.629	-119.131	
304.00	-58.837	-139.711	
305.00	-58.174	-161.912	
306.00	-58.624	166.662	
307.00	-57.411	138.408	
308.00	-55.547	110.964	
309.00	-53.773	89.143	
310.00	-52.413	70.091	
311.00	-51.056	54.577	
312.00	-50.231	40.313	
313.00	-49.799	25.950	
314.00	-49.498	12.828	
315.00	-49.443	1.617	
316.00	-49.656	-10.328	
317.00	-50.134	-21.855	
318.00	-50.990	-32.476	
319.00	-52.027	-44.786	
320.00	-53.516	-58.596	
321.00	-55.661	-72.600	
322.00	-58.332	-93.520	
323.00	-61.064	-127.152	
324.00	-60.421	-169.907	
325.00	-58.928	156.684	
326.00	-56.747	139.536	
327.00	-55.860	124.726	
328.00	-55.430	114.744	
329.00	-55.790	103.264	
330.00	-57.767	95.900	
331.00	-61.671	95.352	
332.00	-69.889	119.426	
333.00	-70.032	-153.362	
334.00	-60.819	-146.686	
335.00	-57.808	-145.441	
336.00	-55.950	-152.762	
337.00	-55.149	-159.688	
338.00	-54.070	-164.367	
339.00	-53.484	-173.236	
340.00	-54.596	-168.191	
341.00	-54.744	-170.249	
342.00	-55.321	-173.506	
343.00	-55.817	-177.336	
344.00	-56.159	179.636	
345.00	-57.354	173.357	
346.00	-58.618	162.561	
347.00	-58.972	148.953	
348.00	-59.545	133.987	
349.00	-61.887	121.399	
350.00	-62.163	111.673	
351.00	-63.621	103.760	
352.00	-63.752	82.334	
353.00	-64.491	87.880	
354.00	-64.883	73.753	
355.00	-64.667	60.526	
356.00	-65.098	62.362	
357.00	-67.154	41.732	
358.00	-68.012	24.688	
359.00	-69.204	7.078	
Frequency	1850.00	MHz	
Channel	test		
Scan Axis name	Azimuth  [deg]		
Scan Axis	Amplitude	Phase	
			
0.00	-61.320	-86.878	
1.00	-60.431	-75.172	
2.00	-59.891	-70.342	
3.00	-60.998	-54.077	
4.00	-61.287	-40.576	
5.00	-61.537	-26.237	
6.00	-63.757	-13.369	
7.00	-64.911	-4.417	
8.00	-66.424	16.016	
9.00	-67.068	14.876	
10.00	-67.714	31.978	
11.00	-68.558	24.400	
12.00	-69.011	47.236	
13.00	-70.526	58.903	
14.00	-72.136	57.295	
15.00	-71.485	53.249	
16.00	-71.869	43.568	
17.00	-72.701	35.430	
18.00	-69.402	29.799	
19.00	-67.490	39.196	
20.00	-66.078	39.320	
21.00	-66.967	55.454	
22.00	-65.690	64.580	
23.00	-68.764	98.290	
24.00	-68.765	151.864	
25.00	-65.016	-178.180	
26.00	-60.974	-152.265	
27.00	-57.449	-144.736	
28.00	-55.791	-136.358	
29.00	-54.137	-135.047	
30.00	-53.306	-134.032	
31.00	-53.056	-135.317	
32.00	-52.837	-134.875	
33.00	-52.909	-133.636	
34.00	-53.403	-134.995	
35.00	-55.237	-133.789	
36.00	-56.350	-129.909	
37.00	-58.903	-121.063	
38.00	-62.571	-105.158	
39.00	-64.456	-76.364	
40.00	-62.606	-35.370	
41.00	-59.887	-22.021	
42.00	-57.535	-14.061	
43.00	-55.324	-3.583	
44.00	-53.871	0.425	
45.00	-52.629	4.911	
46.00	-52.185	10.867	
47.00	-52.564	15.152	
48.00	-52.672	21.538	
49.00	-52.619	26.395	
50.00	-53.679	33.863	
51.00	-54.634	38.809	
52.00	-56.121	43.762	
53.00	-57.756	45.627	
54.00	-59.879	52.900	
55.00	-62.311	55.052	
56.00	-64.129	67.682	
57.00	-66.269	70.748	
58.00	-69.440	81.929	
59.00	-70.554	110.070	
60.00	-72.517	153.779	
61.00	-69.545	-167.317	
62.00	-67.475	-137.386	
63.00	-62.320	-117.987	
64.00	-60.445	-105.732	
65.00	-58.363	-93.501	
66.00	-57.002	-79.051	
67.00	-56.365	-69.387	
68.00	-55.742	-57.854	
69.00	-55.817	-45.527	
70.00	-55.874	-35.343	
71.00	-56.086	-21.802	
72.00	-56.674	-12.674	
73.00	-56.940	-1.018	
74.00	-57.762	9.236	
75.00	-58.238	17.245	
76.00	-58.962	22.239	
77.00	-59.685	23.919	
78.00	-60.942	22.152	
79.00	-61.936	15.966	
80.00	-62.070	10.345	
81.00	-63.519	7.260	
82.00	-62.650	-4.234	
83.00	-63.319	-5.287	
84.00	-62.694	-2.357	
85.00	-63.424	-2.604	
86.00	-67.947	17.882	
87.00	-64.161	41.098	
88.00	-62.766	64.779	
89.00	-60.358	90.943	
90.00	-58.366	98.454	
91.00	-56.795	113.848	
92.00	-54.867	124.704	
93.00	-53.910	129.135	
94.00	-53.077	142.340	
95.00	-52.554	154.529	
96.00	-51.886	166.789	
97.00	-51.880	-178.739	
98.00	-51.537	-164.498	
99.00	-50.772	-146.791	
100.00	-50.199	-129.201	
101.00	-49.478	-103.508	
102.00	-48.717	-85.617	
103.00	-48.029	-68.246	
104.00	-47.222	-54.867	
105.00	-46.609	-36.813	
106.00	-46.004	-22.925	
107.00	-45.445	-5.773	
108.00	-44.941	8.559	
109.00	-44.478	25.294	
110.00	-44.221	39.131	
111.00	-43.992	56.597	
112.00	-43.909	71.816	
113.00	-43.864	88.179	
114.00	-43.897	106.077	
115.00	-44.030	122.442	
116.00	-44.226	140.770	
117.00	-44.490	158.350	
118.00	-44.809	177.038	
119.00	-45.265	-164.130	
120.00	-45.782	-144.528	
121.00	-46.504	-125.482	
122.00	-47.489	-103.805	
123.00	-48.666	-82.633	
124.00	-50.429	-55.143	
125.00	-52.165	-20.159	
126.00	-52.550	24.520	
127.00	-50.436	65.949	
128.00	-48.010	97.996	
129.00	-45.450	122.393	
130.00	-43.370	141.386	
131.00	-41.757	159.479	
132.00	-40.373	176.439	
133.00	-39.333	-167.472	
134.00	-38.431	-151.489	
135.00	-37.698	-136.556	
136.00	-37.138	-122.298	
137.00	-36.708	-107.848	
138.00	-36.332	-94.040	
139.00	-36.358	-82.092	
140.00	-36.544	-71.295	
141.00	-37.032	-60.468	
142.00	-37.913	-49.051	
143.00	-39.105	-39.074	
144.00	-40.923	-29.363	
145.00	-43.322	-21.044	
146.00	-46.673	-12.661	
147.00	-52.941	-6.804	
148.00	-67.115	-64.966	
149.00	-54.672	-147.827	
150.00	-49.088	-147.029	
151.00	-46.178	-141.389	
152.00	-44.541	-134.829	
153.00	-43.610	-130.606	
154.00	-43.127	-125.975	
155.00	-42.999	-121.267	
156.00	-43.065	-117.979	
157.00	-43.514	-115.708	
158.00	-43.946	-115.909	
159.00	-44.327	-114.103	
160.00	-44.527	-114.571	
161.00	-44.506	-113.127	
162.00	-44.571	-111.546	
163.00	-44.492	-108.315	
164.00	-44.299	-100.693	
165.00	-44.056	-92.576	
166.00	-43.670	-84.560	
167.00	-43.106	-79.344	
168.00	-42.483	-76.938	
169.00	-41.768	-78.178	
170.00	-40.889	-84.702	
171.00	-39.548	-94.366	
172.00	-37.686	-104.366	
173.00	-35.583	-111.690	
174.00	-33.334	-116.742	
175.00	-31.471	-119.761	
176.00	-29.783	-121.975	
177.00	-28.373	-122.821	
178.00	-27.324	-122.598	
179.00	-26.575	-122.033	
180.00	-26.084	-122.264	
181.00	-26.011	-122.239	
182.00	-26.257	-121.648	
183.00	-26.822	-121.093	
184.00	-27.776	-121.039	
185.00	-29.155	-121.456	
186.00	-31.054	-121.253	
187.00	-33.604	-120.602	
188.00	-37.005	-119.715	
189.00	-42.263	-117.932	
190.00	-50.575	-102.066	
191.00	-54.313	6.827	
192.00	-47.542	31.680	
193.00	-45.628	33.306	
194.00	-45.548	31.282	
195.00	-46.615	28.690	
196.00	-51.940	14.069	
197.00	-61.280	-36.903	
198.00	-56.688	-137.326	
199.00	-49.798	-146.831	
200.00	-46.620	-151.027	
201.00	-47.352	-162.343	
202.00	-48.302	-161.976	
203.00	-48.085	-177.622	
204.00	-54.355	173.392	
205.00	-65.209	162.604	
206.00	-57.772	-17.073	
207.00	-48.906	-19.473	
208.00	-46.324	-32.267	
209.00	-44.219	-38.941	
210.00	-43.386	-49.907	
211.00	-43.062	-60.796	
212.00	-44.001	-72.176	
213.00	-45.207	-87.541	
214.00	-47.758	-112.650	
215.00	-49.230	-153.019	
216.00	-47.613	161.437	
217.00	-44.354	131.001	
218.00	-42.013	113.214	
219.00	-39.915	96.676	
220.00	-38.449	83.436	
221.00	-37.221	72.096	
222.00	-36.484	59.235	
223.00	-35.864	49.054	
224.00	-35.604	38.424	
225.00	-35.573	29.271	
226.00	-35.700	21.514	
227.00	-36.576	11.494	
228.00	-37.314	4.235	
229.00	-38.276	-5.029	
230.00	-40.314	-10.825	
231.00	-42.208	-13.001	
232.00	-45.618	-14.921	
233.00	-49.837	-8.836	
234.00	-51.942	27.547	
235.00	-49.398	55.495	
236.00	-46.556	67.661	
237.00	-43.959	63.932	
238.00	-41.951	58.359	
239.00	-40.969	52.790	
240.00	-39.937	41.878	
241.00	-40.273	30.739	
242.00	-39.633	19.277	
243.00	-39.523	8.712	
244.00	-39.482	-3.405	
245.00	-39.779	-16.165	
246.00	-39.972	-27.531	
247.00	-40.370	-41.543	
248.00	-40.904	-55.403	
249.00	-41.548	-70.264	
250.00	-42.312	-86.157	
251.00	-42.691	-103.702	
252.00	-43.347	-119.820	
253.00	-43.548	-137.943	
254.00	-43.878	-153.809	
255.00	-44.278	-172.720	
256.00	-44.404	172.182	
257.00	-44.721	156.418	
258.00	-45.101	142.184	
259.00	-45.340	125.485	
260.00	-46.147	111.502	
261.00	-46.733	94.670	
262.00	-47.407	76.439	
263.00	-48.024	58.294	
264.00	-48.465	40.434	
265.00	-48.759	22.749	
266.00	-49.029	5.032	
267.00	-49.252	-12.038	
268.00	-49.433	-27.868	
269.00	-50.009	-43.735	
270.00	-50.610	-60.682	
271.00	-51.207	-78.659	
272.00	-51.875	-98.783	
273.00	-52.082	-118.331	
274.00	-52.208	-139.667	
275.00	-52.101	-159.114	
276.00	-51.918	-176.345	
277.00	-51.791	166.794	
278.00	-51.726	151.058	
279.00	-52.375	133.470	
280.00	-52.591	117.579	
281.00	-52.891	100.541	
282.00	-53.293	80.743	
283.00	-53.213	58.874	
284.00	-53.323	40.421	
285.00	-53.461	21.053	
286.00	-53.187	6.379	
287.00	-54.006	-19.499	
288.00	-54.636	-37.963	
289.00	-55.491	-57.464	
290.00	-56.746	-74.230	
291.00	-57.892	-99.474	
292.00	-59.064	-121.429	
293.00	-60.133	-149.266	
294.00	-60.685	-179.645	
295.00	-60.831	146.218	
296.00	-60.572	116.873	
297.00	-59.919	85.258	
298.00	-58.364	65.680	
299.00	-57.790	45.785	
300.00	-57.205	27.399	
301.00	-57.325	11.584	
302.00	-57.747	-6.416	
303.00	-58.585	-25.511	
304.00	-59.602	-47.596	
305.00	-60.206	-75.341	
306.00	-60.097	-103.991	
307.00	-59.168	-128.383	
308.00	-58.064	-151.093	
309.00	-56.990	-169.273	
310.00	-55.697	175.342	
311.00	-54.576	163.534	
312.00	-53.477	152.697	
313.00	-52.376	143.266	
314.00	-51.576	133.996	
315.00	-50.676	125.956	
316.00	-50.170	117.540	
317.00	-49.739	109.364	
318.00	-49.537	100.852	
319.00	-49.594	93.122	
320.00	-50.075	84.580	
321.00	-50.842	75.854	
322.00	-51.930	66.131	
323.00	-53.500	56.786	
324.00	-56.184	47.229	
325.00	-59.841	37.431	
326.00	-67.165	27.853	
327.00	-73.706	-151.640	
328.00	-62.587	-162.175	
329.00	-57.781	-174.075	
330.00	-55.554	175.303	
331.00	-53.724	163.712	
332.00	-52.707	153.792	
333.00	-52.162	141.685	
334.00	-52.261	129.107	
335.00	-52.625	114.418	
336.00	-54.099	101.408	
337.00	-54.275	78.306	
338.00	-55.512	50.717	
339.00	-55.606	20.464	
340.00	-54.756	-7.833	
341.00	-53.769	-27.743	
342.00	-52.396	-47.033	
343.00	-51.928	-59.382	
344.00	-51.807	-71.073	
345.00	-52.312	-80.123	
346.00	-53.843	-90.756	
347.00	-55.890	-101.694	
348.00	-59.378	-116.595	
349.00	-62.504	-138.512	
350.00	-66.471	-165.936	
351.00	-68.417	149.078	
352.00	-68.178	118.909	
353.00	-68.437	102.526	
354.00	-70.501	102.530	
355.00	-77.133	128.389	
356.00	-78.986	-136.300	
357.00	-68.359	-105.786	
358.00	-64.354	-105.135	
359.00	-61.883	-93.782	
Frequency	1950.00	MHz	
Channel	test		
Scan Axis name	Azimuth  [deg]		
Scan Axis	Amplitude	Phase	
			
0.00	-77.638	101.573	
1.00	-76.231	-18.010	
2.00	-74.176	17.837	
3.00	-66.677	-9.043	
4.00	-65.795	-2.007	
5.00	-63.733	-23.524	
6.00	-60.894	-4.020	
7.00	-63.400	-9.566	
8.00	-60.546	-22.929	
9.00	-60.324	-18.453	
10.00	-61.359	-17.940	
11.00	-60.458	8.688	
12.00	-61.204	-10.913	
13.00	-63.612	6.843	
14.00	-64.414	9.872	
15.00	-66.055	48.168	
16.00	-68.265	51.035	
17.00	-68.293	85.435	
18.00	-69.570	118.518	
19.00	-69.338	162.423	
20.00	-69.530	-166.546	
21.00	-65.400	-150.915	
22.00	-62.038	-129.323	
23.00	-60.060	-109.161	
24.00	-58.997	-96.289	
25.00	-57.671	-81.174	
26.00	-58.467	-60.987	
27.00	-59.035	-47.709	
28.00	-61.383	-26.379	
29.00	-61.679	5.561	
30.00	-60.250	2.806	
31.00	-62.417	31.419	
32.00	-62.349	56.676	
33.00	-62.210	57.414	
34.00	-62.535	76.502	
35.00	-62.958	65.718	
36.00	-60.752	66.699	
37.00	-61.280	100.764	
38.00	-62.921	108.932	
39.00	-64.115	79.024	
40.00	-72.576	74.533	
41.00	-70.934	0.069	
42.00	-73.259	84.901	
43.00	-67.490	66.901	
44.00	-65.959	108.378	
45.00	-62.572	141.167	
46.00	-59.826	151.164	
47.00	-58.050	174.102	
48.00	-56.218	-172.105	
49.00	-56.617	-148.043	
50.00	-55.863	-131.174	
51.00	-55.792	-110.659	
52.00	-56.784	-84.317	
53.00	-57.205	-59.085	
54.00	-58.647	-31.695	
55.00	-59.694	-3.520	
56.00	-61.273	33.110	
57.00	-62.262	71.299	
58.00	-62.053	108.300	
59.00	-60.900	152.574	
60.00	-58.986	177.982	
61.00	-58.948	-149.623	
62.00	-57.635	-124.410	
63.00	-57.313	-95.256	
64.00	-57.016	-72.818	
65.00	-56.514	-51.721	
66.00	-56.133	-24.776	
67.00	-56.446	-2.346	
68.00	-56.869	15.996	
69.00	-56.950	45.015	
70.00	-58.016	70.489	
71.00	-58.344	95.776	
72.00	-57.661	123.398	
73.00	-57.478	144.263	
74.00	-57.289	163.814	
75.00	-57.270	-179.716	
76.00	-58.296	-168.955	
77.00	-59.432	-147.131	
78.00	-61.189	-121.007	
79.00	-64.984	-92.929	
80.00	-64.080	-62.207	
81.00	-66.082	-22.328	
82.00	-63.263	5.528	
83.00	-62.162	29.228	
84.00	-60.049	44.777	
85.00	-61.849	65.410	
86.00	-62.992	83.057	
87.00	-64.591	106.270	
88.00	-64.510	125.349	
89.00	-64.480	148.615	
90.00	-66.876	165.685	
91.00	-66.357	-146.460	
92.00	-67.345	-118.035	
93.00	-63.716	-100.174	
94.00	-63.930	-75.931	
95.00	-61.110	-59.687	
96.00	-58.999	-43.823	
97.00	-58.010	-27.160	
98.00	-57.008	-13.209	
99.00	-56.601	-2.069	
100.00	-55.416	14.515	
101.00	-54.473	35.111	
102.00	-53.497	50.723	
103.00	-52.714	66.445	
104.00	-51.934	79.786	
105.00	-51.010	97.470	
106.00	-49.950	112.495	
107.00	-48.902	124.850	
108.00	-47.804	137.658	
109.00	-46.716	150.569	
110.00	-45.574	161.975	
111.00	-44.836	175.079	
112.00	-44.121	-175.310	
113.00	-43.392	-163.819	
114.00	-43.100	-152.461	
115.00	-42.629	-141.393	
116.00	-42.316	-129.219	
117.00	-42.147	-118.034	
118.00	-42.078	-106.024	
119.00	-41.999	-94.955	
120.00	-41.985	-82.029	
121.00	-42.040	-71.305	
122.00	-42.262	-59.197	
123.00	-42.278	-48.855	
124.00	-42.424	-38.564	
125.00	-42.690	-29.799	
126.00	-43.215	-22.817	
127.00	-43.943	-18.191	
128.00	-44.328	-13.032	
129.00	-44.963	-10.081	
130.00	-45.769	-8.058	
131.00	-45.917	-10.789	
132.00	-46.222	-11.374	
133.00	-45.953	-14.993	
134.00	-45.189	-14.571	
135.00	-44.328	-15.364	
136.00	-43.068	-12.208	
137.00	-42.023	-7.954	
138.00	-41.071	-1.923	
139.00	-40.105	3.356	
140.00	-39.387	8.721	
141.00	-38.670	15.773	
142.00	-38.199	23.300	
143.00	-37.968	31.734	
144.00	-37.863	39.428	
145.00	-37.925	47.860	
146.00	-38.064	56.277	
147.00	-38.306	65.786	
148.00	-38.779	73.672	
149.00	-39.477	79.366	
150.00	-40.511	82.631	
151.00	-41.876	83.814	
152.00	-43.525	80.757	
153.00	-44.991	67.882	
154.00	-45.462	47.999	
155.00	-44.156	31.130	
156.00	-42.269	22.494	
157.00	-40.545	17.763	
158.00	-38.907	16.960	
159.00	-38.051	18.072	
160.00	-37.340	20.930	
161.00	-36.914	23.955	
162.00	-36.872	26.154	
163.00	-37.182	27.754	
164.00	-37.717	31.731	
165.00	-38.585	35.154	
166.00	-39.522	39.624	
167.00	-40.602	44.358	
168.00	-41.297	51.061	
169.00	-41.503	59.648	
170.00	-40.782	68.582	
171.00	-39.385	76.246	
172.00	-37.331	80.366	
173.00	-35.429	83.393	
174.00	-33.296	84.187	
175.00	-31.687	84.604	
176.00	-30.234	83.253	
177.00	-28.990	82.192	
178.00	-28.093	81.189	
179.00	-27.425	80.022	
180.00	-27.044	78.022	
181.00	-26.949	75.998	
182.00	-27.142	74.089	
183.00	-27.580	72.364	
184.00	-28.348	70.034	
185.00	-29.483	67.145	
186.00	-30.878	65.111	
187.00	-32.829	63.416	
188.00	-35.300	63.473	
189.00	-38.272	64.777	
190.00	-41.953	70.988	
191.00	-45.753	91.643	
192.00	-47.566	119.223	
193.00	-46.825	137.249	
194.00	-45.913	147.209	
195.00	-45.090	150.276	
196.00	-46.116	140.773	
197.00	-46.918	130.239	
198.00	-48.493	127.635	
199.00	-48.749	124.637	
200.00	-50.828	133.523	
201.00	-49.582	142.802	
202.00	-47.940	152.118	
203.00	-47.474	161.817	
204.00	-44.317	165.129	
205.00	-42.553	157.602	
206.00	-41.897	146.189	
207.00	-41.210	138.513	
208.00	-41.682	129.204	
209.00	-42.341	114.192	
210.00	-45.166	98.279	
211.00	-48.293	66.972	
212.00	-49.787	9.998	
213.00	-46.083	-39.950	
214.00	-42.220	-65.578	
215.00	-39.386	-82.469	
216.00	-37.262	-96.834	
217.00	-35.859	-108.501	
218.00	-34.829	-120.532	
219.00	-34.294	-131.645	
220.00	-34.235	-143.348	
221.00	-34.306	-154.893	
222.00	-34.866	-168.109	
223.00	-35.647	-179.921	
224.00	-36.952	166.626	
225.00	-38.238	154.012	
226.00	-40.246	140.039	
227.00	-42.948	120.589	
228.00	-46.342	105.410	
229.00	-51.432	78.762	
230.00	-58.899	33.538	
231.00	-52.937	-79.082	
232.00	-48.964	-105.320	
233.00	-45.970	-126.184	
234.00	-43.749	-140.279	
235.00	-42.272	-154.446	
236.00	-41.240	-167.730	
237.00	-40.716	176.779	
238.00	-40.179	166.302	
239.00	-40.544	155.535	
240.00	-41.239	137.155	
241.00	-40.787	123.513	
242.00	-41.497	109.460	
243.00	-41.911	95.404	
244.00	-42.821	81.676	
245.00	-43.535	68.325	
246.00	-44.374	55.887	
247.00	-45.620	41.308	
248.00	-46.728	25.794	
249.00	-48.300	10.591	
250.00	-50.392	-8.313	
251.00	-52.596	-25.326	
252.00	-55.203	-45.070	
253.00	-56.634	-77.024	
254.00	-57.973	-108.066	
255.00	-57.754	-144.246	
256.00	-55.515	-164.648	
257.00	-56.022	172.290	
258.00	-55.864	159.199	
259.00	-55.739	144.168	
260.00	-55.908	122.679	
261.00	-56.712	104.273	
262.00	-56.698	86.645	
263.00	-57.244	67.611	
264.00	-58.126	47.564	
265.00	-58.847	27.139	
266.00	-59.033	5.186	
267.00	-60.068	-18.152	
268.00	-60.495	-43.369	
269.00	-60.608	-79.543	
270.00	-59.193	-101.466	
271.00	-57.197	-124.929	
272.00	-55.601	-142.924	
273.00	-54.638	-153.601	
274.00	-54.284	-172.348	
275.00	-53.793	176.458	
276.00	-52.902	162.704	
277.00	-52.570	151.522	
278.00	-52.862	133.949	
279.00	-52.873	119.830	
280.00	-52.728	107.354	
281.00	-53.279	92.758	
282.00	-53.082	85.375	
283.00	-53.938	71.230	
284.00	-55.297	56.410	
285.00	-56.698	40.041	
286.00	-57.963	29.427	
287.00	-61.077	-6.536	
288.00	-61.904	-37.805	
289.00	-65.860	-73.042	
290.00	-65.935	-106.186	
291.00	-65.769	-154.425	
292.00	-62.773	-166.071	
293.00	-60.729	161.726	
294.00	-60.010	145.828	
295.00	-59.637	131.034	
296.00	-59.487	116.519	
297.00	-60.473	109.250	
298.00	-61.214	104.145	
299.00	-62.790	101.404	
300.00	-66.565	106.275	
301.00	-68.894	135.109	
302.00	-66.089	-178.768	
303.00	-61.991	-173.414	
304.00	-60.036	-174.894	
305.00	-58.639	-176.854	
306.00	-57.265	174.498	
307.00	-57.712	165.377	
308.00	-57.704	160.665	
309.00	-58.924	154.778	
310.00	-59.584	149.643	
311.00	-61.181	148.669	
312.00	-62.064	143.212	
313.00	-63.732	155.646	
314.00	-63.200	151.984	
315.00	-62.505	151.264	
316.00	-62.426	154.287	
317.00	-60.648	142.609	
318.00	-61.310	131.283	
319.00	-60.858	124.009	
320.00	-63.101	118.403	
321.00	-63.517	105.354	
322.00	-67.471	93.784	
323.00	-81.106	-90.223	
324.00	-75.009	175.376	
325.00	-68.742	-160.535	
326.00	-65.048	-168.282	
327.00	-62.435	-179.819	
328.00	-59.883	167.242	
329.00	-58.707	164.480	
330.00	-58.200	141.876	
331.00	-57.680	139.119	
332.00	-57.623	129.263	
333.00	-58.833	115.533	
334.00	-60.031	102.537	
335.00	-61.594	89.828	
336.00	-63.871	78.127	
337.00	-66.626	70.046	
338.00	-75.683	75.769	
339.00	-67.661	103.569	
340.00	-71.154	146.446	
341.00	-66.721	151.561	
342.00	-66.925	154.410	
343.00	-65.115	140.400	
344.00	-67.373	113.289	
345.00	-69.449	89.853	
346.00	-65.259	70.159	
347.00	-66.437	49.529	
348.00	-65.778	39.419	
349.00	-67.731	32.112	
350.00	-68.276	13.884	
351.00	-76.060	93.582	
352.00	-67.591	-7.584	
353.00	-73.374	2.370	
354.00	-78.873	5.664	
355.00	-71.787	98.221	
356.00	-72.772	167.394	
357.00	-71.504	-163.603	
358.00	-70.401	-173.338	
359.00	-77.527	97.422	
Frequency	2050.00	MHz	
Channel	test		
Scan Axis name	Azimuth  [deg]		
Scan Axis	Amplitude	Phase	
			
0.00	-60.508	-57.625	
1.00	-61.360	-64.596	
2.00	-65.502	-72.836	
3.00	-66.569	-103.612	
4.00	-67.893	-155.343	
5.00	-63.459	-174.346	
6.00	-62.569	171.081	
7.00	-60.042	156.927	
8.00	-58.876	151.385	
9.00	-58.968	154.869	
10.00	-59.223	129.105	
11.00	-59.232	113.845	
12.00	-58.760	101.400	
13.00	-59.356	88.627	
14.00	-59.925	82.899	
15.00	-59.405	74.518	
16.00	-58.751	59.286	
17.00	-59.206	55.481	
18.00	-58.843	49.827	
19.00	-59.254	48.384	
20.00	-59.808	40.522	
21.00	-60.998	21.219	
22.00	-59.902	13.431	
23.00	-59.033	4.098	
24.00	-57.556	-2.537	
25.00	-56.722	-3.285	
26.00	-56.422	2.100	
27.00	-56.037	12.219	
28.00	-58.828	24.492	
29.00	-61.283	40.876	
30.00	-65.966	66.832	
31.00	-67.306	127.929	
32.00	-64.648	168.686	
33.00	-62.368	-167.898	
34.00	-60.465	-160.869	
35.00	-59.731	-148.269	
36.00	-60.254	-140.946	
37.00	-60.427	-132.402	
38.00	-61.610	-118.369	
39.00	-62.667	-104.236	
40.00	-65.292	-77.716	
41.00	-67.097	-60.283	
42.00	-65.255	-18.000	
43.00	-62.519	4.116	
44.00	-64.427	44.222	
45.00	-65.935	38.864	
46.00	-65.960	46.775	
47.00	-64.439	42.120	
48.00	-65.494	15.387	
49.00	-61.409	6.945	
50.00	-58.023	3.770	
51.00	-56.511	16.041	
52.00	-55.247	27.108	
53.00	-54.574	43.257	
54.00	-54.164	59.006	
55.00	-54.361	72.005	
56.00	-54.428	91.982	
57.00	-55.236	102.826	
58.00	-55.329	121.575	
59.00	-57.485	127.565	
60.00	-59.067	146.895	
61.00	-61.276	151.522	
62.00	-63.809	138.336	
63.00	-65.391	118.998	
64.00	-64.380	107.075	
65.00	-63.672	103.590	
66.00	-62.683	114.876	
67.00	-63.331	132.654	
68.00	-62.425	157.291	
69.00	-61.927	178.320	
70.00	-60.958	-159.259	
71.00	-60.022	-142.495	
72.00	-59.613	-122.921	
73.00	-59.528	-103.548	
74.00	-59.829	-87.662	
75.00	-60.045	-67.519	
76.00	-62.698	-57.909	
77.00	-62.210	-39.790	
78.00	-64.556	-27.920	
79.00	-65.041	-24.414	
80.00	-71.406	-7.151	
81.00	-63.094	-23.969	
82.00	-65.937	-5.651	
83.00	-81.012	-152.131	
84.00	-71.010	-166.145	
85.00	-67.378	-117.440	
86.00	-67.151	-127.639	
87.00	-67.020	-81.152	
88.00	-69.296	-132.346	
89.00	-65.356	-132.140	
90.00	-66.013	-136.165	
91.00	-63.444	-129.633	
92.00	-61.970	-126.189	
93.00	-60.803	-119.969	
94.00	-59.176	-108.767	
95.00	-57.978	-100.828	
96.00	-56.515	-83.267	
97.00	-56.089	-73.603	
98.00	-55.438	-61.270	
99.00	-55.230	-47.539	
100.00	-55.568	-32.257	
101.00	-56.142	-5.427	
102.00	-56.652	16.923	
103.00	-56.608	39.375	
104.00	-56.869	62.412	
105.00	-56.938	91.637	
106.00	-56.812	121.643	
107.00	-57.016	152.113	
108.00	-55.181	-174.182	
109.00	-52.941	-147.956	
110.00	-50.695	-128.870	
111.00	-48.841	-107.996	
112.00	-47.421	-91.785	
113.00	-46.311	-77.720	
114.00	-45.539	-62.739	
115.00	-45.170	-49.682	
116.00	-44.965	-33.727	
117.00	-44.950	-18.960	
118.00	-45.513	-1.768	
119.00	-45.910	16.294	
120.00	-46.504	36.218	
121.00	-46.875	56.113	
122.00	-47.313	77.560	
123.00	-47.728	97.538	
124.00	-48.166	116.061	
125.00	-49.214	133.734	
126.00	-50.548	151.484	
127.00	-52.551	168.200	
128.00	-56.437	-165.778	
129.00	-62.761	-127.710	
130.00	-63.828	-30.945	
131.00	-56.552	16.771	
132.00	-52.571	35.065	
133.00	-50.120	54.401	
134.00	-48.250	67.938	
135.00	-46.827	80.854	
136.00	-45.862	92.012	
137.00	-45.201	102.469	
138.00	-44.825	111.341	
139.00	-44.679	117.947	
140.00	-44.790	121.604	
141.00	-44.867	124.727	
142.00	-45.032	125.115	
143.00	-45.166	127.274	
144.00	-45.248	127.802	
145.00	-45.211	128.539	
146.00	-45.248	132.036	
147.00	-45.283	136.203	
148.00	-45.764	143.625	
149.00	-46.247	148.824	
150.00	-47.032	154.414	
151.00	-47.816	158.446	
152.00	-48.886	156.602	
153.00	-49.605	148.859	
154.00	-48.774	135.775	
155.00	-47.110	124.450	
156.00	-44.946	120.332	
157.00	-43.017	118.454	
158.00	-41.545	118.193	
159.00	-40.405	119.362	
160.00	-39.731	121.360	
161.00	-39.511	124.164	
162.00	-39.690	125.150	
163.00	-40.169	124.435	
164.00	-41.061	124.904	
165.00	-42.207	125.229	
166.00	-43.454	125.657	
167.00	-44.825	128.540	
168.00	-46.029	139.194	
169.00	-46.196	160.022	
170.00	-43.703	-177.254	
171.00	-40.456	-164.311	
172.00	-37.222	-157.410	
173.00	-34.483	-154.356	
174.00	-32.163	-151.672	
175.00	-30.244	-150.920	
176.00	-28.797	-150.884	
177.00	-27.652	-151.159	
178.00	-26.910	-150.843	
179.00	-26.479	-150.782	
180.00	-26.393	-151.778	
181.00	-26.672	-152.824	
182.00	-27.330	-153.653	
183.00	-28.383	-154.436	
184.00	-29.924	-155.870	
185.00	-32.023	-157.964	
186.00	-34.744	-159.588	
187.00	-38.640	-159.468	
188.00	-44.173	-159.395	
189.00	-53.773	-146.663	
190.00	-58.487	-33.263	
191.00	-51.783	-15.846	
192.00	-51.324	-17.439	
193.00	-53.219	-33.421	
194.00	-56.827	-75.737	
195.00	-58.016	-141.183	
196.00	-51.696	-165.803	
197.00	-50.315	-172.778	
198.00	-51.783	-177.931	
199.00	-53.685	179.327	
200.00	-57.739	-138.270	
201.00	-54.176	-88.662	
202.00	-48.444	-66.392	
203.00	-48.017	-65.580	
204.00	-44.631	-70.955	
205.00	-44.001	-73.417	
206.00	-44.421	-78.705	
207.00	-46.662	-85.976	
208.00	-51.337	-89.320	
209.00	-64.786	24.675	
210.00	-48.947	61.076	
211.00	-43.465	52.077	
212.00	-40.257	43.119	
213.00	-38.235	33.965	
214.00	-36.897	22.671	
215.00	-36.084	10.442	
216.00	-35.760	-2.288	
217.00	-35.916	-16.647	
218.00	-36.304	-31.211	
219.00	-37.062	-48.584	
220.00	-38.145	-67.095	
221.00	-39.309	-90.606	
222.00	-40.456	-114.859	
223.00	-41.221	-144.087	
224.00	-41.719	-171.130	
225.00	-41.980	159.961	
226.00	-40.905	135.763	
227.00	-40.996	105.993	
228.00	-40.652	86.047	
229.00	-40.287	63.136	
230.00	-40.024	43.859	
231.00	-40.117	23.146	
232.00	-40.339	3.368	
233.00	-40.521	-14.487	
234.00	-41.051	-31.461	
235.00	-41.700	-50.565	
236.00	-42.226	-69.218	
237.00	-43.518	-86.721	
238.00	-43.301	-105.826	
239.00	-44.772	-121.741	
240.00	-45.839	-153.611	
241.00	-47.499	-174.677	
242.00	-48.252	163.123	
243.00	-48.816	140.440	
244.00	-49.271	117.880	
245.00	-49.360	99.910	
246.00	-49.844	81.414	
247.00	-49.908	65.270	
248.00	-50.827	46.937	
249.00	-51.376	29.139	
250.00	-51.804	14.499	
251.00	-52.422	-5.039	
252.00	-53.005	-18.868	
253.00	-53.357	-36.981	
254.00	-53.831	-51.244	
255.00	-54.516	-62.671	
256.00	-55.285	-75.792	
257.00	-56.315	-88.945	
258.00	-57.664	-98.328	
259.00	-59.635	-113.421	
260.00	-62.023	-122.839	
261.00	-64.757	-140.596	
262.00	-68.292	-168.926	
263.00	-69.179	167.999	
264.00	-70.010	129.802	
265.00	-69.816	100.877	
266.00	-69.784	79.550	
267.00	-68.521	62.386	
268.00	-68.381	49.334	
269.00	-69.194	42.299	
270.00	-67.267	20.698	
271.00	-68.422	24.877	
272.00	-68.679	16.622	
273.00	-69.078	13.367	
274.00	-68.502	7.698	
275.00	-69.111	-7.828	
276.00	-71.318	-17.037	
277.00	-73.661	-14.858	
278.00	-72.962	-25.597	
279.00	-78.349	-41.303	
280.00	-77.979	-60.016	
281.00	-81.554	-85.195	
282.00	-82.250	-121.005	
283.00	-88.849	-40.258	
284.00	-81.264	-38.105	
285.00	-73.976	-16.729	
286.00	-70.509	-19.943	
287.00	-67.402	-29.375	
288.00	-67.253	-16.161	
289.00	-66.845	-48.784	
290.00	-68.120	-37.656	
291.00	-69.122	-76.914	
292.00	-69.752	-123.105	
293.00	-70.019	-176.827	
294.00	-64.955	159.098	
295.00	-62.860	132.307	
296.00	-61.347	115.500	
297.00	-59.560	98.924	
298.00	-58.568	82.343	
299.00	-57.510	66.227	
300.00	-57.818	52.502	
301.00	-57.795	39.753	
302.00	-58.315	24.402	
303.00	-59.708	8.852	
304.00	-62.116	-4.602	
305.00	-66.167	-20.869	
306.00	-73.532	-61.505	
307.00	-73.356	-168.622	
308.00	-66.793	165.836	
309.00	-63.441	147.563	
310.00	-61.640	134.309	
311.00	-60.261	125.687	
312.00	-60.809	111.979	
313.00	-61.254	98.749	
314.00	-61.873	89.030	
315.00	-63.207	75.988	
316.00	-65.651	67.168	
317.00	-68.049	48.949	
318.00	-70.574	20.993	
319.00	-71.130	-22.605	
320.00	-77.919	-59.940	
321.00	-72.022	-155.511	
322.00	-67.893	-178.733	
323.00	-64.616	161.876	
324.00	-62.300	146.115	
325.00	-60.641	127.207	
326.00	-59.002	109.451	
327.00	-58.681	98.051	
328.00	-57.322	83.336	
329.00	-57.022	66.389	
330.00	-57.127	52.225	
331.00	-57.221	41.784	
332.00	-57.543	33.956	
333.00	-58.069	18.450	
334.00	-58.331	9.927	
335.00	-59.753	-3.191	
336.00	-60.134	-18.687	
337.00	-60.729	-36.191	
338.00	-62.559	-58.145	
339.00	-64.204	-89.183	
340.00	-62.123	-107.843	
341.00	-61.999	-131.849	
342.00	-61.467	-152.464	
343.00	-62.326	179.696	
344.00	-61.647	174.123	
345.00	-62.623	162.443	
346.00	-64.283	139.310	
347.00	-65.404	121.931	
348.00	-69.631	106.492	
349.00	-69.843	50.029	
350.00	-69.328	26.715	
351.00	-68.778	-4.541	
352.00	-64.796	-26.048	
353.00	-63.474	-45.893	
354.00	-59.888	-45.968	
355.00	-59.363	-50.985	
356.00	-59.230	-60.062	
357.00	-58.386	-59.866	
358.00	-59.281	-61.369	
359.00	-59.763	-56.562	
Frequency	2170.00	MHz	
Channel	test		
Scan Axis name	Azimuth  [deg]		
Scan Axis	Amplitude	Phase	
			
0.00	-69.665	-76.566	
1.00	-77.537	-20.067	
2.00	-77.221	-18.525	
3.00	-74.404	62.948	
4.00	-73.658	55.640	
5.00	-70.793	72.113	
6.00	-68.806	81.270	
7.00	-69.912	83.249	
8.00	-71.781	92.311	
9.00	-78.994	51.155	
10.00	-79.101	-26.703	
11.00	-75.809	-16.442	
12.00	-66.032	-70.807	
13.00	-67.542	-77.724	
14.00	-63.351	-79.529	
15.00	-64.396	-85.648	
16.00	-63.295	-101.643	
17.00	-66.426	-126.717	
18.00	-65.146	-141.231	
19.00	-64.486	-155.702	
20.00	-61.293	-170.821	
21.00	-59.334	-161.875	
22.00	-59.440	-178.575	
23.00	-57.838	-164.722	
24.00	-57.520	-160.609	
25.00	-58.941	-159.041	
26.00	-58.481	-161.189	
27.00	-59.891	-168.066	
28.00	-60.060	-172.132	
29.00	-59.639	-179.430	
30.00	-59.882	178.534	
31.00	-60.520	172.166	
32.00	-60.778	164.172	
33.00	-61.213	155.046	
34.00	-61.422	145.627	
35.00	-60.035	148.371	
36.00	-59.699	147.616	
37.00	-60.711	154.799	
38.00	-61.782	159.244	
39.00	-63.797	155.090	
40.00	-66.843	133.585	
41.00	-66.537	111.882	
42.00	-63.443	106.090	
43.00	-61.859	105.239	
44.00	-61.845	114.710	
45.00	-62.310	121.415	
46.00	-62.494	133.584	
47.00	-64.542	136.764	
48.00	-67.578	130.193	
49.00	-68.421	123.032	
50.00	-66.393	108.230	
51.00	-63.997	113.730	
52.00	-62.574	136.008	
53.00	-60.957	145.150	
54.00	-60.282	150.425	
55.00	-60.506	164.770	
56.00	-60.656	165.070	
57.00	-63.161	175.321	
58.00	-65.734	169.523	
59.00	-66.640	130.480	
60.00	-64.832	127.213	
61.00	-60.481	130.058	
62.00	-57.756	139.011	
63.00	-56.484	153.732	
64.00	-55.298	171.840	
65.00	-54.047	-174.205	
66.00	-53.979	-157.697	
67.00	-54.801	-137.108	
68.00	-55.103	-123.762	
69.00	-56.686	-99.218	
70.00	-58.814	-76.394	
71.00	-60.268	-46.375	
72.00	-63.365	-7.451	
73.00	-62.369	36.780	
74.00	-60.659	69.336	
75.00	-58.804	91.732	
76.00	-59.524	111.333	
77.00	-58.651	132.704	
78.00	-58.941	146.878	
79.00	-61.420	164.344	
80.00	-63.370	167.105	
81.00	-64.594	-159.692	
82.00	-70.119	-116.678	
83.00	-72.560	-120.638	
84.00	-72.030	18.262	
85.00	-64.756	65.584	
86.00	-63.969	68.585	
87.00	-60.389	81.638	
88.00	-60.010	91.135	
89.00	-59.110	108.227	
90.00	-57.960	126.848	
91.00	-58.146	139.292	
92.00	-58.349	156.702	
93.00	-58.012	165.668	
94.00	-58.692	-172.215	
95.00	-59.472	-154.417	
96.00	-59.267	-137.147	
97.00	-60.996	-117.307	
98.00	-60.561	-92.919	
99.00	-61.483	-65.087	
100.00	-61.075	-39.907	
101.00	-60.055	-2.224	
102.00	-59.809	15.247	
103.00	-58.758	35.827	
104.00	-58.332	49.175	
105.00	-58.255	71.730	
106.00	-58.604	83.732	
107.00	-58.802	105.430	
108.00	-59.716	126.811	
109.00	-60.110	147.128	
110.00	-60.913	166.596	
111.00	-61.610	-174.834	
112.00	-63.674	-163.936	
113.00	-66.570	-160.091	
114.00	-70.101	152.889	
115.00	-64.944	113.009	
116.00	-58.518	112.934	
117.00	-54.578	120.051	
118.00	-51.536	132.046	
119.00	-49.000	143.198	
120.00	-47.278	156.167	
121.00	-45.816	168.376	
122.00	-44.883	-177.939	
123.00	-44.163	-164.909	
124.00	-43.843	-150.678	
125.00	-43.801	-135.760	
126.00	-44.142	-120.793	
127.00	-44.844	-102.286	
128.00	-45.716	-84.558	
129.00	-46.958	-63.594	
130.00	-48.279	-39.537	
131.00	-49.453	-10.009	
132.00	-50.563	18.862	
133.00	-51.581	49.335	
134.00	-52.449	85.285	
135.00	-52.724	126.165	
136.00	-51.152	164.439	
137.00	-48.843	-163.263	
138.00	-46.543	-140.190	
139.00	-45.021	-122.967	
140.00	-43.814	-110.141	
141.00	-43.567	-98.784	
142.00	-43.865	-88.307	
143.00	-44.815	-79.603	
144.00	-46.224	-71.315	
145.00	-48.159	-66.612	
146.00	-50.684	-64.388	
147.00	-52.994	-67.049	
148.00	-53.964	-71.901	
149.00	-53.602	-73.315	
150.00	-52.261	-68.528	
151.00	-51.076	-58.614	
152.00	-49.654	-45.923	
153.00	-48.534	-33.716	
154.00	-48.003	-26.049	
155.00	-48.278	-18.204	
156.00	-49.187	-13.600	
157.00	-51.364	-17.629	
158.00	-54.255	-38.189	
159.00	-54.929	-77.282	
160.00	-51.213	-98.309	
161.00	-48.388	-106.339	
162.00	-46.838	-109.409	
163.00	-46.429	-107.105	
164.00	-47.190	-105.911	
165.00	-49.640	-104.185	
166.00	-54.941	-102.557	
167.00	-72.067	7.229	
168.00	-54.198	57.240	
169.00	-48.394	48.982	
170.00	-44.776	34.844	
171.00	-41.501	18.279	
172.00	-37.983	3.290	
173.00	-34.623	-7.064	
174.00	-31.728	-13.378	
175.00	-29.278	-17.392	
176.00	-27.335	-20.793	
177.00	-25.803	-22.942	
178.00	-24.712	-24.013	
179.00	-23.997	-24.764	
180.00	-23.693	-26.158	
181.00	-23.762	-27.418	
182.00	-24.260	-27.927	
183.00	-25.174	-28.365	
184.00	-26.580	-28.947	
185.00	-28.562	-29.723	
186.00	-31.238	-29.359	
187.00	-34.902	-27.632	
188.00	-40.147	-21.770	
189.00	-48.222	-3.036	
190.00	-52.611	76.850	
191.00	-48.903	112.653	
192.00	-47.959	123.397	
193.00	-50.462	133.916	
194.00	-55.625	165.012	
195.00	-54.726	-126.782	
196.00	-50.393	-103.410	
197.00	-49.039	-99.472	
198.00	-49.613	-90.789	
199.00	-52.948	-84.984	
200.00	-58.104	-15.297	
201.00	-50.783	30.183	
202.00	-45.890	44.303	
203.00	-43.112	35.814	
204.00	-41.710	33.990	
205.00	-40.920	28.104	
206.00	-41.638	21.200	
207.00	-43.646	11.824	
208.00	-47.593	0.141	
209.00	-57.992	-52.804	
210.00	-49.713	-159.066	
211.00	-43.728	178.598	
212.00	-40.564	168.301	
213.00	-38.625	157.983	
214.00	-37.712	149.063	
215.00	-37.423	139.715	
216.00	-37.905	130.926	
217.00	-39.056	120.770	
218.00	-40.840	113.355	
219.00	-43.501	105.640	
220.00	-47.814	101.273	
221.00	-55.310	113.610	
222.00	-54.966	-170.766	
223.00	-49.562	-155.873	
224.00	-45.590	-161.137	
225.00	-44.204	-172.893	
226.00	-43.317	177.261	
227.00	-42.566	165.343	
228.00	-42.287	151.729	
229.00	-42.426	138.919	
230.00	-43.163	126.780	
231.00	-43.638	113.579	
232.00	-44.894	100.093	
233.00	-46.023	88.549	
234.00	-47.651	76.625	
235.00	-49.378	64.584	
236.00	-50.782	52.785	
237.00	-52.059	40.964	
238.00	-53.941	22.814	
239.00	-55.780	-16.548	
240.00	-55.296	-8.030	
241.00	-57.571	-27.126	
242.00	-58.337	-44.531	
243.00	-58.394	-65.761	
244.00	-58.241	-84.831	
245.00	-58.077	-108.131	
246.00	-56.377	-129.462	
247.00	-56.772	-144.023	
248.00	-56.227	-154.863	
249.00	-56.256	-176.144	
250.00	-56.622	170.766	
251.00	-56.989	156.510	
252.00	-58.604	137.491	
253.00	-60.808	113.588	
254.00	-61.901	85.127	
255.00	-63.501	60.771	
256.00	-62.178	34.512	
257.00	-62.177	12.387	
258.00	-62.003	-2.577	
259.00	-62.200	-18.095	
260.00	-63.874	-38.329	
261.00	-63.644	-47.451	
262.00	-68.051	-62.698	
263.00	-67.865	-68.838	
264.00	-68.953	-83.062	
265.00	-71.076	-110.422	
266.00	-73.494	-113.625	
267.00	-73.225	-178.207	
268.00	-72.628	-177.226	
269.00	-71.932	145.661	
270.00	-68.004	139.646	
271.00	-67.101	139.561	
272.00	-64.666	119.173	
273.00	-64.002	117.046	
274.00	-63.514	113.032	
275.00	-63.170	107.848	
276.00	-62.654	107.258	
277.00	-63.529	99.799	
278.00	-65.059	93.858	
279.00	-65.974	85.464	
280.00	-68.643	86.613	
281.00	-70.783	108.902	
282.00	-74.481	117.502	
283.00	-69.024	149.408	
284.00	-67.433	152.087	
285.00	-65.407	149.754	
286.00	-66.964	148.370	
287.00	-69.305	149.754	
288.00	-69.535	143.723	
289.00	-71.125	117.185	
290.00	-76.050	131.980	
291.00	-89.907	3.070	
292.00	-78.056	-67.350	
293.00	-77.761	-76.952	
294.00	-80.565	-125.304	
295.00	-87.413	-156.045	
296.00	-79.270	65.758	
297.00	-71.023	74.771	
298.00	-69.019	68.623	
299.00	-68.618	57.882	
300.00	-65.986	43.583	
301.00	-70.026	34.708	
302.00	-71.009	-16.022	
303.00	-71.372	-64.012	
304.00	-69.008	-108.266	
305.00	-66.338	-133.975	
306.00	-63.940	-157.474	
307.00	-62.559	-176.642	
308.00	-61.975	162.804	
309.00	-61.419	138.713	
310.00	-60.758	119.423	
311.00	-61.435	102.648	
312.00	-60.333	79.495	
313.00	-60.972	60.318	
314.00	-62.053	47.532	
315.00	-64.922	27.686	
316.00	-64.261	13.866	
317.00	-68.170	-23.502	
318.00	-74.898	-70.734	
319.00	-67.537	-95.723	
320.00	-65.500	-130.122	
321.00	-64.407	-146.244	
322.00	-63.510	-161.730	
323.00	-62.279	-179.290	
324.00	-63.189	170.380	
325.00	-63.367	161.075	
326.00	-65.981	151.883	
327.00	-68.539	149.176	
328.00	-77.018	-171.802	
329.00	-71.131	-109.831	
330.00	-65.377	-94.600	
331.00	-61.182	-97.483	
332.00	-59.045	-102.092	
333.00	-56.610	-117.586	
334.00	-55.773	-126.166	
335.00	-54.917	-136.972	
336.00	-54.354	-148.718	
337.00	-54.329	-160.960	
338.00	-55.154	-171.607	
339.00	-55.206	170.725	
340.00	-56.570	154.264	
341.00	-57.682	127.470	
342.00	-59.259	97.547	
343.00	-59.552	71.953	
344.00	-59.770	47.762	
345.00	-60.174	29.628	
346.00	-61.572	1.776	
347.00	-62.889	-16.920	
348.00	-65.822	-46.168	
349.00	-67.081	-73.244	
350.00	-67.527	-128.856	
351.00	-65.076	-147.504	
352.00	-64.576	-165.750	
353.00	-63.402	-179.692	
354.00	-62.656	-172.172	
355.00	-65.298	-173.626	
356.00	-66.689	-175.973	
357.00	-68.418	-143.225	
358.00	-75.092	-148.351	
359.00	-72.850	-97.330	
Frequency	2300.00	MHz	
Channel	test		
Scan Axis name	Azimuth  [deg]		
Scan Axis	Amplitude	Phase	
			
0.00	-62.257	-163.610	
1.00	-65.800	-154.774	
2.00	-68.544	-132.931	
3.00	-80.972	-162.107	
4.00	-69.453	-69.541	
5.00	-65.375	-57.937	
6.00	-64.839	-55.991	
7.00	-65.246	-65.506	
8.00	-65.982	-50.101	
9.00	-66.978	-36.358	
10.00	-67.055	-48.743	
11.00	-70.097	-40.239	
12.00	-96.294	154.407	
13.00	-70.467	-130.899	
14.00	-76.131	-122.294	
15.00	-67.091	-113.385	
16.00	-66.933	-110.615	
17.00	-66.338	-101.544	
18.00	-64.325	-98.914	
19.00	-66.870	-92.000	
20.00	-69.267	-92.492	
21.00	-77.118	-68.102	
22.00	-77.599	-171.535	
23.00	-75.002	138.148	
24.00	-68.380	110.770	
25.00	-65.397	125.097	
26.00	-65.083	120.738	
27.00	-63.766	127.736	
28.00	-70.183	128.811	
29.00	-69.238	103.546	
30.00	-71.083	60.446	
31.00	-66.412	17.820	
32.00	-61.690	27.088	
33.00	-59.454	44.533	
34.00	-59.089	54.931	
35.00	-58.372	68.068	
36.00	-58.147	78.832	
37.00	-59.280	80.870	
38.00	-60.474	82.615	
39.00	-61.003	81.421	
40.00	-60.510	87.029	
41.00	-60.840	80.065	
42.00	-62.420	64.793	
43.00	-62.195	88.267	
44.00	-60.800	87.288	
45.00	-59.370	96.774	
46.00	-59.092	112.230	
47.00	-58.338	122.088	
48.00	-58.034	132.155	
49.00	-57.711	146.401	
50.00	-57.765	155.640	
51.00	-58.305	162.468	
52.00	-59.959	169.486	
53.00	-62.146	174.667	
54.00	-66.059	176.664	
55.00	-67.087	155.554	
56.00	-67.799	137.285	
57.00	-65.511	118.186	
58.00	-62.087	118.344	
59.00	-62.780	128.035	
60.00	-61.708	141.150	
61.00	-63.050	155.577	
62.00	-62.712	168.275	
63.00	-65.950	-172.147	
64.00	-65.936	-144.009	
65.00	-67.896	-137.514	
66.00	-70.782	-111.065	
67.00	-78.631	-75.017	
68.00	-72.859	51.963	
69.00	-73.122	65.726	
70.00	-66.085	83.390	
71.00	-63.387	91.700	
72.00	-61.611	108.162	
73.00	-60.268	110.088	
74.00	-59.022	120.396	
75.00	-59.760	129.358	
76.00	-59.658	133.207	
77.00	-59.526	132.729	
78.00	-60.408	139.812	
79.00	-62.267	156.593	
80.00	-63.144	140.601	
81.00	-63.683	148.007	
82.00	-68.293	-170.206	
83.00	-69.695	155.425	
84.00	-71.709	-17.570	
85.00	-75.781	-79.718	
86.00	-76.173	40.470	
87.00	-68.479	10.810	
88.00	-67.568	-9.640	
89.00	-67.924	34.606	
90.00	-71.953	66.383	
91.00	-69.027	60.381	
92.00	-70.718	58.480	
93.00	-73.537	89.826	
94.00	-68.263	129.233	
95.00	-67.213	143.791	
96.00	-64.373	160.596	
97.00	-62.364	179.830	
98.00	-59.659	-169.490	
99.00	-59.200	-159.494	
100.00	-57.864	-140.210	
101.00	-57.057	-111.932	
102.00	-55.757	-95.898	
103.00	-54.971	-80.268	
104.00	-54.160	-65.286	
105.00	-53.270	-48.086	
106.00	-52.869	-32.388	
107.00	-52.183	-15.799	
108.00	-51.835	2.178	
109.00	-51.181	22.616	
110.00	-50.740	39.892	
111.00	-49.878	61.573	
112.00	-49.241	79.660	
113.00	-48.536	96.514	
114.00	-47.993	112.881	
115.00	-47.928	127.401	
116.00	-48.107	143.198	
117.00	-48.874	154.229	
118.00	-49.893	169.630	
119.00	-51.876	-178.080	
120.00	-55.776	-165.573	
121.00	-61.719	-162.566	
122.00	-69.299	92.342	
123.00	-58.077	82.317	
124.00	-53.130	89.904	
125.00	-49.892	106.886	
126.00	-48.226	122.279	
127.00	-46.529	141.674	
128.00	-45.676	160.246	
129.00	-45.086	176.789	
130.00	-44.994	-165.649	
131.00	-45.298	-148.393	
132.00	-45.949	-129.185	
133.00	-47.730	-107.451	
134.00	-49.610	-85.734	
135.00	-52.278	-57.353	
136.00	-55.714	-14.744	
137.00	-55.483	55.247	
138.00	-52.429	98.155	
139.00	-49.085	129.690	
140.00	-47.190	153.264	
141.00	-45.819	173.113	
142.00	-44.711	-166.307	
143.00	-44.321	-147.925	
144.00	-44.118	-128.973	
145.00	-44.242	-112.156	
146.00	-44.844	-96.696	
147.00	-45.364	-81.032	
148.00	-46.555	-69.108	
149.00	-48.755	-64.153	
150.00	-51.459	-65.762	
151.00	-53.455	-80.504	
152.00	-53.590	-107.841	
153.00	-51.200	-119.735	
154.00	-49.517	-124.179	
155.00	-48.302	-124.490	
156.00	-48.113	-123.149	
157.00	-48.655	-125.938	
158.00	-50.114	-134.799	
159.00	-51.062	-153.757	
160.00	-50.555	-175.580	
161.00	-48.614	168.150	
162.00	-46.485	160.126	
163.00	-45.838	155.680	
164.00	-45.312	152.968	
165.00	-45.428	152.837	
166.00	-46.701	151.259	
167.00	-48.904	150.078	
168.00	-51.753	154.096	
169.00	-55.325	-178.062	
170.00	-51.248	-131.323	
171.00	-44.937	-119.447	
172.00	-39.970	-117.079	
173.00	-36.071	-116.790	
174.00	-32.841	-116.304	
175.00	-30.320	-116.114	
176.00	-28.241	-115.896	
177.00	-26.677	-115.348	
178.00	-25.619	-114.044	
179.00	-24.973	-112.345	
180.00	-24.757	-111.573	
181.00	-24.971	-110.802	
182.00	-25.670	-108.728	
183.00	-26.829	-106.196	
184.00	-28.614	-102.892	
185.00	-31.024	-97.891	
186.00	-34.207	-88.143	
187.00	-37.984	-68.121	
188.00	-40.678	-33.527	
189.00	-40.506	-2.088	
190.00	-39.889	14.591	
191.00	-40.115	22.995	
192.00	-41.622	28.732	
193.00	-44.969	31.821	
194.00	-51.169	39.584	
195.00	-63.521	97.489	
196.00	-54.514	-156.981	
197.00	-50.503	-148.715	
198.00	-50.051	-135.759	
199.00	-50.329	-115.819	
200.00	-49.367	-82.265	
201.00	-47.094	-63.356	
202.00	-44.779	-54.303	
203.00	-43.608	-51.423	
204.00	-43.915	-53.950	
205.00	-45.217	-61.121	
206.00	-48.733	-67.201	
207.00	-56.712	-78.099	
208.00	-57.487	132.292	
209.00	-47.479	109.296	
210.00	-43.234	99.053	
211.00	-40.946	91.295	
212.00	-39.564	82.123	
213.00	-39.249	73.991	
214.00	-39.389	67.679	
215.00	-40.423	60.744	
216.00	-42.204	54.374	
217.00	-44.834	51.668	
218.00	-49.216	56.977	
219.00	-53.054	90.912	
220.00	-51.029	131.928	
221.00	-46.997	140.176	
222.00	-44.869	139.307	
223.00	-43.666	131.583	
224.00	-42.907	124.296	
225.00	-42.766	115.922	
226.00	-43.555	105.154	
227.00	-43.431	93.636	
228.00	-43.695	82.356	
229.00	-44.453	70.411	
230.00	-44.663	60.602	
231.00	-45.753	51.780	
232.00	-46.817	41.209	
233.00	-47.991	30.631	
234.00	-49.320	19.183	
235.00	-50.970	7.162	
236.00	-53.755	-9.249	
237.00	-56.250	-37.562	
238.00	-58.677	-59.386	
239.00	-60.424	-117.508	
240.00	-59.766	-134.810	
241.00	-58.511	-165.271	
242.00	-57.438	173.886	
243.00	-56.328	157.897	
244.00	-56.377	136.986	
245.00	-56.201	122.971	
246.00	-57.157	111.945	
247.00	-57.905	93.980	
248.00	-59.774	72.317	
249.00	-62.002	58.716	
250.00	-63.425	32.969	
251.00	-65.159	14.236	
252.00	-67.373	7.182	
253.00	-71.312	9.877	
254.00	-76.932	33.475	
255.00	-75.611	65.707	
256.00	-73.516	80.449	
257.00	-69.745	81.696	
258.00	-69.096	66.836	
259.00	-70.099	52.726	
260.00	-74.205	44.463	
261.00	-73.415	-6.857	
262.00	-73.670	-53.938	
263.00	-71.543	-85.299	
264.00	-66.997	-110.566	
265.00	-66.356	-132.660	
266.00	-64.130	-151.293	
267.00	-63.684	-168.898	
268.00	-63.070	160.432	
269.00	-60.929	149.284	
270.00	-60.410	143.361	
271.00	-60.394	129.140	
272.00	-61.115	119.339	
273.00	-61.350	108.668	
274.00	-65.260	95.283	
275.00	-66.154	82.778	
276.00	-70.327	54.785	
277.00	-72.155	3.726	
278.00	-71.900	-63.755	
279.00	-70.127	-90.471	
280.00	-69.132	-129.890	
281.00	-68.933	-154.928	
282.00	-67.948	179.795	
283.00	-66.793	150.073	
284.00	-66.091	121.558	
285.00	-65.263	97.079	
286.00	-64.605	77.453	
287.00	-62.876	51.758	
288.00	-63.291	26.294	
289.00	-62.699	8.709	
290.00	-63.361	-10.785	
291.00	-64.566	-30.655	
292.00	-64.878	-72.247	
293.00	-67.397	-87.719	
294.00	-66.493	-130.137	
295.00	-67.623	-154.827	
296.00	-66.772	162.202	
297.00	-65.180	134.728	
298.00	-63.201	113.846	
299.00	-61.906	90.034	
300.00	-61.599	75.654	
301.00	-60.708	71.660	
302.00	-60.291	52.606	
303.00	-61.668	37.883	
304.00	-61.526	33.427	
305.00	-62.126	17.268	
306.00	-62.912	3.775	
307.00	-64.346	-11.985	
308.00	-63.192	-27.643	
309.00	-62.443	-46.942	
310.00	-61.290	-63.252	
311.00	-60.285	-75.755	
312.00	-59.732	-84.618	
313.00	-60.519	-97.139	
314.00	-62.588	-105.646	
315.00	-66.644	-113.789	
316.00	-78.012	-58.247	
317.00	-68.282	4.262	
318.00	-62.105	5.094	
319.00	-60.070	-2.959	
320.00	-58.261	-17.264	
321.00	-57.459	-32.799	
322.00	-58.150	-49.290	
323.00	-58.868	-71.767	
324.00	-59.957	-95.814	
325.00	-61.545	-122.216	
326.00	-63.167	-152.939	
327.00	-63.804	172.698	
328.00	-67.116	150.434	
329.00	-71.681	99.632	
330.00	-70.478	47.902	
331.00	-68.534	5.614	
332.00	-64.805	-32.558	
333.00	-62.858	-59.409	
334.00	-60.950	-80.744	
335.00	-61.769	-93.674	
336.00	-61.367	-112.957	
337.00	-61.841	-137.311	
338.00	-63.338	-159.836	
339.00	-64.925	-178.413	
340.00	-65.684	157.593	
341.00	-67.262	123.031	
342.00	-66.125	101.952	
343.00	-65.792	81.698	
344.00	-64.874	70.115	
345.00	-65.685	65.451	
346.00	-66.542	53.851	
347.00	-66.860	63.867	
348.00	-68.648	58.869	
349.00	-69.147	55.098	
350.00	-74.566	66.623	
351.00	-79.095	59.109	
352.00	-74.673	-141.569	
353.00	-71.469	-156.008	
354.00	-70.087	-161.144	
355.00	-64.509	-162.882	
356.00	-62.302	-172.361	
357.00	-62.876	-166.771	
358.00	-63.353	-165.347	
359.00	-61.573	-170.800	
Frequency	2350.00	MHz	
Channel	test		
Scan Axis name	Azimuth  [deg]		
Scan Axis	Amplitude	Phase	
			
0.00	-66.460	-70.142	
1.00	-65.993	-75.107	
2.00	-65.050	-75.769	
3.00	-63.959	-80.644	
4.00	-62.586	-80.677	
5.00	-61.808	-81.436	
6.00	-61.378	-79.439	
7.00	-62.065	-77.251	
8.00	-63.173	-72.019	
9.00	-65.763	-62.836	
10.00	-71.045	-49.611	
11.00	-78.617	34.110	
12.00	-70.498	105.582	
13.00	-65.884	118.168	
14.00	-64.083	128.531	
15.00	-63.515	138.890	
16.00	-63.561	145.197	
17.00	-64.471	156.058	
18.00	-65.811	166.460	
19.00	-67.591	-176.659	
20.00	-69.233	-152.257	
21.00	-70.152	-117.500	
22.00	-69.898	-93.631	
23.00	-69.602	-82.432	
24.00	-70.962	-72.376	
25.00	-70.617	-65.712	
26.00	-72.806	-70.478	
27.00	-73.629	-79.461	
28.00	-74.250	-46.771	
29.00	-80.060	-19.932	
30.00	-73.329	33.549	
31.00	-73.138	62.518	
32.00	-67.839	87.064	
33.00	-65.225	109.441	
34.00	-64.053	123.272	
35.00	-63.900	135.868	
36.00	-65.175	149.088	
37.00	-66.530	162.241	
38.00	-68.842	173.155	
39.00	-70.974	-170.314	
40.00	-72.339	-144.540	
41.00	-73.758	-137.000	
42.00	-71.032	-128.032	
43.00	-69.998	-128.105	
44.00	-67.163	-132.956	
45.00	-65.671	-140.739	
46.00	-64.161	-139.559	
47.00	-63.093	-139.277	
48.00	-62.425	-132.237	
49.00	-62.484	-127.408	
50.00	-63.318	-112.745	
51.00	-65.733	-97.708	
52.00	-70.093	-69.963	
53.00	-73.216	-12.044	
54.00	-69.276	46.897	
55.00	-65.446	78.387	
56.00	-63.078	94.522	
57.00	-62.068	107.169	
58.00	-62.183	119.453	
59.00	-63.071	130.445	
60.00	-65.171	139.955	
61.00	-67.063	134.317	
62.00	-69.350	116.255	
63.00	-68.357	81.716	
64.00	-65.461	71.473	
65.00	-63.386	81.006	
66.00	-61.585	91.845	
67.00	-61.515	106.771	
68.00	-61.184	121.383	
69.00	-61.715	147.277	
70.00	-62.019	171.641	
71.00	-60.644	-161.035	
72.00	-59.654	-139.029	
73.00	-58.657	-118.758	
74.00	-58.152	-100.011	
75.00	-57.605	-84.059	
76.00	-57.327	-65.080	
77.00	-57.224	-51.475	
78.00	-57.459	-37.194	
79.00	-57.663	-23.797	
80.00	-57.929	-14.115	
81.00	-60.122	-3.368	
82.00	-61.425	23.340	
83.00	-63.042	28.118	
84.00	-65.401	38.207	
85.00	-72.321	68.690	
86.00	-70.403	74.133	
87.00	-75.408	89.804	
88.00	-76.221	88.925	
89.00	-81.116	33.722	
90.00	-79.536	-8.288	
91.00	-74.745	-4.611	
92.00	-72.754	-23.038	
93.00	-69.991	-18.358	
94.00	-69.004	-10.111	
95.00	-66.968	-9.253	
96.00	-66.581	-18.182	
97.00	-66.109	-13.732	
98.00	-66.191	-7.344	
99.00	-65.457	-3.276	
100.00	-65.628	5.164	
101.00	-64.668	29.023	
102.00	-64.374	39.919	
103.00	-63.549	54.461	
104.00	-62.115	56.902	
105.00	-60.832	70.333	
106.00	-58.822	72.230	
107.00	-57.181	80.687	
108.00	-55.618	84.237	
109.00	-54.031	91.563	
110.00	-52.857	98.124	
111.00	-51.847	107.798	
112.00	-51.078	118.261	
113.00	-50.708	129.850	
114.00	-50.741	143.190	
115.00	-50.645	158.124	
116.00	-51.086	176.719	
117.00	-51.393	-163.790	
118.00	-51.704	-141.114	
119.00	-51.739	-120.880	
120.00	-52.038	-101.479	
121.00	-52.582	-86.386	
122.00	-53.793	-71.451	
123.00	-56.464	-64.785	
124.00	-60.643	-75.473	
125.00	-62.095	-128.087	
126.00	-55.945	-145.585	
127.00	-51.713	-140.761	
128.00	-49.160	-130.550	
129.00	-47.132	-115.596	
130.00	-45.936	-99.966	
131.00	-45.031	-84.506	
132.00	-44.499	-66.745	
133.00	-44.275	-49.365	
134.00	-44.385	-31.777	
135.00	-44.867	-15.008	
136.00	-45.783	1.553	
137.00	-47.318	19.187	
138.00	-49.670	36.984	
139.00	-53.418	55.718	
140.00	-60.357	81.791	
141.00	-69.660	-137.310	
142.00	-57.444	-93.177	
143.00	-53.001	-71.212	
144.00	-50.480	-55.405	
145.00	-49.121	-40.088	
146.00	-48.685	-25.526	
147.00	-48.795	-13.183	
148.00	-49.594	-3.333	
149.00	-51.168	1.760	
150.00	-53.087	-2.685	
151.00	-54.149	-17.890	
152.00	-52.873	-34.306	
153.00	-50.589	-42.032	
154.00	-48.506	-43.665	
155.00	-47.086	-41.197	
156.00	-46.317	-36.632	
157.00	-46.305	-34.068	
158.00	-46.945	-36.213	
159.00	-48.113	-43.257	
160.00	-49.302	-56.409	
161.00	-49.370	-75.537	
162.00	-48.364	-92.577	
163.00	-47.237	-103.343	
164.00	-46.803	-108.761	
165.00	-47.328	-111.622	
166.00	-49.109	-115.001	
167.00	-53.244	-120.517	
168.00	-64.824	-138.809	
169.00	-57.843	59.007	
170.00	-49.991	44.120	
171.00	-45.606	29.382	
172.00	-41.886	14.419	
173.00	-38.519	2.115	
174.00	-35.363	-6.389	
175.00	-32.670	-12.386	
176.00	-30.439	-16.965	
177.00	-28.700	-19.949	
178.00	-27.470	-21.442	
179.00	-26.697	-22.182	
180.00	-26.410	-23.503	
181.00	-26.613	-24.671	
182.00	-27.348	-25.026	
183.00	-28.645	-25.198	
184.00	-30.671	-24.979	
185.00	-33.668	-24.456	
186.00	-38.165	-20.651	
187.00	-45.911	-0.615	
188.00	-49.221	90.521	
189.00	-43.226	119.124	
190.00	-41.109	123.697	
191.00	-41.248	123.919	
192.00	-42.901	124.494	
193.00	-46.516	122.400	
194.00	-54.570	122.327	
195.00	-64.523	-60.842	
196.00	-52.708	-55.168	
197.00	-49.338	-52.811	
198.00	-48.941	-44.440	
199.00	-49.125	-23.005	
200.00	-48.789	0.985	
201.00	-46.709	15.692	
202.00	-44.725	25.603	
203.00	-44.417	30.506	
204.00	-45.172	23.505	
205.00	-47.587	17.561	
206.00	-53.630	-8.084	
207.00	-56.099	-109.119	
208.00	-48.010	-149.533	
209.00	-43.327	-162.208	
210.00	-40.641	-171.114	
211.00	-39.376	-178.734	
212.00	-38.986	174.170	
213.00	-39.452	166.423	
214.00	-40.724	159.167	
215.00	-43.004	154.904	
216.00	-46.611	154.072	
217.00	-52.325	170.191	
218.00	-53.538	-129.543	
219.00	-49.039	-107.576	
220.00	-45.603	-107.063	
221.00	-43.944	-112.874	
222.00	-43.165	-120.008	
223.00	-42.997	-130.180	
224.00	-43.131	-140.093	
225.00	-43.916	-150.050	
226.00	-44.198	-161.962	
227.00	-45.366	-174.560	
228.00	-46.724	179.126	
229.00	-48.018	166.260	
230.00	-49.883	158.354	
231.00	-51.836	148.794	
232.00	-54.137	136.239	
233.00	-57.202	125.965	
234.00	-59.968	126.869	
235.00	-65.573	107.886	
236.00	-71.620	42.397	
237.00	-70.603	-123.020	
238.00	-70.682	-44.162	
239.00	-61.224	-119.221	
240.00	-57.437	-126.258	
241.00	-57.383	-136.994	
242.00	-56.789	-145.892	
243.00	-57.298	-158.124	
244.00	-59.136	-168.132	
245.00	-60.614	179.190	
246.00	-63.249	172.257	
247.00	-71.816	150.324	
248.00	-86.452	-12.573	
249.00	-70.652	-59.116	
250.00	-66.947	-63.940	
251.00	-65.214	-78.805	
252.00	-65.253	-101.410	
253.00	-64.846	-122.841	
254.00	-64.147	-149.192	
255.00	-63.194	178.910	
256.00	-62.256	155.213	
257.00	-60.843	136.182	
258.00	-60.186	121.085	
259.00	-59.900	103.927	
260.00	-60.199	88.046	
261.00	-60.595	67.560	
262.00	-61.401	50.052	
263.00	-61.970	26.214	
264.00	-61.816	2.025	
265.00	-61.597	-22.340	
266.00	-61.015	-42.209	
267.00	-60.361	-60.389	
268.00	-60.291	-75.600	
269.00	-60.367	-91.504	
270.00	-60.420	-104.550	
271.00	-61.104	-121.173	
272.00	-62.064	-132.486	
273.00	-63.607	-144.744	
274.00	-66.047	-163.979	
275.00	-69.612	179.881	
276.00	-75.494	140.492	
277.00	-76.828	56.733	
278.00	-70.040	12.847	
279.00	-66.574	-0.713	
280.00	-64.753	-14.254	
281.00	-64.218	-22.350	
282.00	-64.485	-25.685	
283.00	-66.401	-31.164	
284.00	-70.721	-30.981	
285.00	-80.141	4.900	
286.00	-72.318	92.677	
287.00	-64.793	89.970	
288.00	-62.339	86.609	
289.00	-61.124	78.452	
290.00	-60.752	72.273	
291.00	-61.144	58.547	
292.00	-61.750	46.021	
293.00	-63.187	21.874	
294.00	-64.051	-2.486	
295.00	-64.064	-33.578	
296.00	-62.873	-52.550	
297.00	-61.532	-74.189	
298.00	-60.924	-84.728	
299.00	-60.621	-94.966	
300.00	-60.338	-103.635	
301.00	-60.600	-112.779	
302.00	-61.013	-121.438	
303.00	-61.542	-133.940	
304.00	-62.296	-151.549	
305.00	-62.629	-173.901	
306.00	-62.294	158.953	
307.00	-61.363	136.937	
308.00	-60.797	115.477	
309.00	-60.840	96.951	
310.00	-61.091	73.740	
311.00	-61.936	44.200	
312.00	-61.959	9.353	
313.00	-60.756	-19.974	
314.00	-59.841	-43.943	
315.00	-59.301	-61.328	
316.00	-60.304	-71.368	
317.00	-63.169	-81.012	
318.00	-70.013	-89.237	
319.00	-82.322	43.799	
320.00	-68.819	68.208	
321.00	-64.533	61.166	
322.00	-63.193	60.988	
323.00	-63.739	64.539	
324.00	-64.566	75.766	
325.00	-64.764	94.366	
326.00	-63.488	110.896	
327.00	-62.196	116.866	
328.00	-61.371	118.207	
329.00	-61.550	113.511	
330.00	-62.627	104.886	
331.00	-64.344	94.778	
332.00	-67.785	75.420	
333.00	-70.828	31.610	
334.00	-71.751	-27.606	
335.00	-68.133	-64.125	
336.00	-65.637	-85.719	
337.00	-64.263	-102.542	
338.00	-63.946	-113.253	
339.00	-64.930	-123.731	
340.00	-66.815	-133.539	
341.00	-69.674	-141.527	
342.00	-73.134	-146.570	
343.00	-76.089	-150.673	
344.00	-78.676	-144.093	
345.00	-77.546	-130.821	
346.00	-78.075	-122.080	
347.00	-74.538	-109.021	
348.00	-71.953	-101.056	
349.00	-70.076	-88.676	
350.00	-67.972	-80.603	
351.00	-66.097	-71.252	
352.00	-63.904	-68.697	
353.00	-61.900	-65.865	
354.00	-60.998	-67.281	
355.00	-60.222	-66.404	
356.00	-60.489	-68.244	
357.00	-61.676	-70.529	
358.00	-62.545	-69.667	
359.00	-63.595	-71.682	
Frequency	2400.00	MHz	
Channel	test		
Scan Axis name	Azimuth  [deg]		
Scan Axis	Amplitude	Phase	
			
0.00	-71.754	87.392	
1.00	-76.312	71.451	
2.00	-81.682	21.568	
3.00	-75.502	-45.995	
4.00	-72.873	-68.906	
5.00	-69.930	-81.587	
6.00	-68.861	-85.444	
7.00	-69.722	-93.653	
8.00	-73.703	-95.828	
9.00	-81.576	-160.667	
10.00	-76.744	144.663	
11.00	-73.700	136.270	
12.00	-71.184	142.195	
13.00	-69.944	174.568	
14.00	-68.796	-151.328	
15.00	-66.773	-128.025	
16.00	-65.014	-110.742	
17.00	-62.860	-101.513	
18.00	-61.588	-94.478	
19.00	-60.847	-87.145	
20.00	-60.230	-78.734	
21.00	-60.458	-68.938	
22.00	-60.999	-66.428	
23.00	-62.211	-51.734	
24.00	-64.070	-37.778	
25.00	-66.379	-29.532	
26.00	-67.868	-21.488	
27.00	-69.176	-20.726	
28.00	-71.860	-15.219	
29.00	-72.886	-2.828	
30.00	-79.199	-39.868	
31.00	-81.309	-113.138	
32.00	-74.223	-120.410	
33.00	-70.414	-124.316	
34.00	-72.202	-85.734	
35.00	-68.381	-75.038	
36.00	-69.888	-39.956	
37.00	-67.723	1.404	
38.00	-66.258	17.987	
39.00	-65.570	34.754	
40.00	-65.223	44.050	
41.00	-67.546	49.022	
42.00	-68.453	63.736	
43.00	-70.854	56.103	
44.00	-74.215	79.149	
45.00	-75.902	84.007	
46.00	-77.540	81.729	
47.00	-77.769	85.200	
48.00	-75.100	88.577	
49.00	-70.053	85.372	
50.00	-67.957	87.682	
51.00	-65.803	96.898	
52.00	-64.332	110.781	
53.00	-64.114	128.393	
54.00	-64.704	143.349	
55.00	-64.949	169.659	
56.00	-65.736	-163.574	
57.00	-65.522	-131.461	
58.00	-65.259	-99.034	
59.00	-66.890	-77.598	
60.00	-66.143	-49.617	
61.00	-70.004	-24.397	
62.00	-77.093	-8.314	
63.00	-75.987	51.292	
64.00	-74.365	122.407	
65.00	-72.338	153.865	
66.00	-69.762	165.959	
67.00	-69.058	-167.488	
68.00	-69.327	-144.763	
69.00	-69.955	-127.281	
70.00	-69.553	-111.538	
71.00	-74.089	-88.331	
72.00	-70.781	-52.099	
73.00	-71.918	-23.510	
74.00	-70.199	7.884	
75.00	-68.066	34.952	
76.00	-66.747	62.050	
77.00	-65.186	81.290	
78.00	-62.562	103.174	
79.00	-62.054	117.546	
80.00	-60.597	135.631	
81.00	-60.152	156.610	
82.00	-59.968	164.543	
83.00	-59.311	-175.566	
84.00	-59.511	-168.644	
85.00	-58.921	-144.812	
86.00	-60.602	-126.587	
87.00	-61.278	-104.749	
88.00	-61.926	-91.270	
89.00	-62.671	-77.818	
90.00	-62.704	-58.586	
91.00	-66.478	-37.631	
92.00	-70.283	-18.741	
93.00	-73.005	7.246	
94.00	-75.733	37.307	
95.00	-75.191	122.530	
96.00	-72.422	147.281	
97.00	-68.026	172.302	
98.00	-65.746	-179.183	
99.00	-65.867	-167.408	
100.00	-64.502	-159.758	
101.00	-65.456	-155.695	
102.00	-65.090	-152.573	
103.00	-65.516	-154.977	
104.00	-65.896	-154.317	
105.00	-64.948	-155.910	
106.00	-64.976	-162.603	
107.00	-64.214	-155.440	
108.00	-64.234	-162.001	
109.00	-63.233	-160.509	
110.00	-61.853	-168.975	
111.00	-60.277	-163.905	
112.00	-59.257	-158.371	
113.00	-58.061	-153.959	
114.00	-57.306	-145.984	
115.00	-56.554	-135.642	
116.00	-56.373	-119.558	
117.00	-56.193	-97.904	
118.00	-55.604	-76.992	
119.00	-55.113	-53.222	
120.00	-54.041	-31.259	
121.00	-53.625	-13.440	
122.00	-53.620	5.477	
123.00	-53.891	19.974	
124.00	-55.705	35.451	
125.00	-59.717	55.058	
126.00	-69.440	90.749	
127.00	-65.732	-118.842	
128.00	-58.227	-94.152	
129.00	-54.387	-69.152	
130.00	-51.402	-48.097	
131.00	-49.303	-26.970	
132.00	-47.615	-8.483	
133.00	-46.354	9.923	
134.00	-45.574	27.949	
135.00	-45.403	45.056	
136.00	-45.767	61.550	
137.00	-46.643	80.691	
138.00	-48.035	100.182	
139.00	-50.346	126.828	
140.00	-53.030	158.371	
141.00	-55.371	-155.493	
142.00	-54.910	-101.907	
143.00	-52.236	-60.945	
144.00	-50.313	-34.458	
145.00	-48.892	-13.662	
146.00	-48.055	3.376	
147.00	-47.757	21.252	
148.00	-48.147	35.347	
149.00	-49.351	47.593	
150.00	-50.938	57.979	
151.00	-52.803	67.035	
152.00	-54.666	72.657	
153.00	-56.090	71.918	
154.00	-55.945	65.172	
155.00	-54.847	62.137	
156.00	-53.485	66.462	
157.00	-52.782	69.623	
158.00	-52.899	72.829	
159.00	-54.236	70.512	
160.00	-57.150	60.806	
161.00	-59.257	22.202	
162.00	-55.484	-18.146	
163.00	-51.731	-29.828	
164.00	-49.253	-32.079	
165.00	-48.308	-30.698	
166.00	-48.530	-28.342	
167.00	-50.034	-27.915	
168.00	-53.509	-26.336	
169.00	-61.358	-17.358	
170.00	-65.493	109.715	
171.00	-55.829	116.663	
172.00	-51.482	106.536	
173.00	-48.260	87.422	
174.00	-44.450	71.050	
175.00	-40.792	57.906	
176.00	-37.699	50.594	
177.00	-35.223	45.836	
178.00	-33.417	43.164	
179.00	-32.148	41.388	
180.00	-31.414	39.366	
181.00	-31.278	37.031	
182.00	-31.666	35.438	
183.00	-32.597	33.499	
184.00	-34.184	31.072	
185.00	-36.539	27.748	
186.00	-39.814	23.790	
187.00	-44.927	18.162	
188.00	-54.124	2.633	
189.00	-59.704	-129.856	
190.00	-52.730	-156.047	
191.00	-51.839	-166.269	
192.00	-53.359	-170.106	
193.00	-59.069	-178.991	
194.00	-73.633	89.036	
195.00	-60.327	6.225	
196.00	-57.602	-1.270	
197.00	-56.114	-4.450	
198.00	-59.627	5.824	
199.00	-62.819	57.261	
200.00	-57.095	94.174	
201.00	-52.314	94.821	
202.00	-49.580	94.293	
203.00	-49.267	77.775	
204.00	-48.317	63.177	
205.00	-47.667	43.090	
206.00	-47.885	17.987	
207.00	-48.307	-11.735	
208.00	-47.179	-41.793	
209.00	-46.023	-67.648	
210.00	-44.729	-86.839	
211.00	-44.302	-105.554	
212.00	-44.538	-122.408	
213.00	-45.330	-138.181	
214.00	-47.344	-155.765	
215.00	-50.290	-174.740	
216.00	-54.294	156.807	
217.00	-59.600	92.982	
218.00	-55.620	24.175	
219.00	-51.867	-7.735	
220.00	-49.590	-30.131	
221.00	-48.119	-48.443	
222.00	-47.352	-64.195	
223.00	-46.648	-78.664	
224.00	-47.118	-94.795	
225.00	-47.442	-109.242	
226.00	-48.820	-117.496	
227.00	-49.894	-134.902	
228.00	-50.315	-145.479	
229.00	-52.506	-162.058	
230.00	-54.527	-173.954	
231.00	-56.341	173.306	
232.00	-59.292	147.332	
233.00	-61.013	129.881	
234.00	-62.336	88.100	
235.00	-62.386	63.057	
236.00	-61.228	30.780	
237.00	-61.056	7.876	
238.00	-58.866	-12.529	
239.00	-62.006	-49.185	
240.00	-60.208	-66.640	
241.00	-59.366	-94.411	
242.00	-59.053	-127.229	
243.00	-58.944	-153.259	
244.00	-58.180	-176.270	
245.00	-56.868	155.977	
246.00	-57.228	133.299	
247.00	-56.448	109.751	
248.00	-56.336	88.526	
249.00	-56.357	66.602	
250.00	-56.423	41.640	
251.00	-56.276	20.204	
252.00	-56.360	1.267	
253.00	-56.757	-18.563	
254.00	-57.231	-38.324	
255.00	-58.036	-65.626	
256.00	-59.374	-79.829	
257.00	-60.913	-106.688	
258.00	-60.327	-131.085	
259.00	-60.689	-154.930	
260.00	-60.663	-174.025	
261.00	-60.962	171.182	
262.00	-60.701	154.753	
263.00	-62.187	139.576	
264.00	-64.397	122.387	
265.00	-66.339	99.886	
266.00	-69.262	68.434	
267.00	-69.037	32.222	
268.00	-68.346	3.497	
269.00	-67.920	-19.120	
270.00	-68.659	-33.922	
271.00	-69.234	-64.511	
272.00	-71.332	-76.091	
273.00	-74.307	-108.621	
274.00	-76.774	-128.651	
275.00	-81.449	167.644	
276.00	-81.326	116.163	
277.00	-74.378	54.118	
278.00	-69.972	25.376	
279.00	-67.263	13.522	
280.00	-65.464	3.035	
281.00	-63.416	-9.830	
282.00	-62.729	-23.199	
283.00	-63.213	-38.593	
284.00	-63.496	-50.124	
285.00	-64.537	-69.148	
286.00	-66.450	-99.382	
287.00	-67.029	-145.533	
288.00	-65.973	-172.387	
289.00	-66.042	165.441	
290.00	-65.785	148.577	
291.00	-65.909	135.956	
292.00	-66.965	120.874	
293.00	-68.735	109.871	
294.00	-70.413	95.094	
295.00	-73.775	81.914	
296.00	-74.677	53.218	
297.00	-74.025	35.399	
298.00	-72.749	24.024	
299.00	-70.920	18.499	
300.00	-68.659	5.529	
301.00	-66.494	-10.764	
302.00	-64.756	-26.654	
303.00	-63.639	-45.905	
304.00	-62.060	-66.168	
305.00	-60.785	-83.745	
306.00	-60.063	-105.189	
307.00	-59.345	-122.701	
308.00	-58.715	-143.011	
309.00	-59.121	-162.865	
310.00	-59.133	175.467	
311.00	-59.098	155.765	
312.00	-59.054	135.717	
313.00	-59.379	118.136	
314.00	-59.788	105.503	
315.00	-60.617	93.669	
316.00	-61.441	89.069	
317.00	-62.671	86.556	
318.00	-64.129	93.268	
319.00	-64.857	93.907	
320.00	-66.893	95.006	
321.00	-69.378	83.021	
322.00	-73.426	69.456	
323.00	-78.169	-18.334	
324.00	-70.541	-75.058	
325.00	-66.494	-91.028	
326.00	-63.369	-104.098	
327.00	-61.213	-118.930	
328.00	-60.320	-129.696	
329.00	-60.341	-137.392	
330.00	-60.146	-147.227	
331.00	-61.489	-149.604	
332.00	-62.321	-160.126	
333.00	-64.105	-165.574	
334.00	-67.087	-175.323	
335.00	-70.167	179.634	
336.00	-72.673	155.490	
337.00	-73.854	128.605	
338.00	-71.957	94.449	
339.00	-69.556	71.757	
340.00	-67.357	59.927	
341.00	-66.019	51.696	
342.00	-65.756	43.922	
343.00	-66.082	36.614	
344.00	-67.447	23.106	
345.00	-70.115	3.000	
346.00	-70.712	-35.737	
347.00	-69.806	-51.939	
348.00	-67.365	-61.290	
349.00	-66.347	-71.340	
350.00	-66.410	-65.088	
351.00	-64.751	-82.487	
352.00	-64.904	-90.042	
353.00	-64.787	-87.952	
354.00	-66.576	-91.635	
355.00	-69.505	-91.234	
356.00	-75.406	-90.292	
357.00	-85.539	35.405	
358.00	-76.784	76.732	
359.00	-73.825	72.150	
Frequency	2450.00	MHz	
Channel	test		
Scan Axis name	Azimuth  [deg]		
Scan Axis	Amplitude	Phase	
			
0.00	-70.029	146.673	
1.00	-73.714	145.666	
2.00	-74.501	113.610	
3.00	-79.443	104.244	
4.00	-82.228	70.961	
5.00	-92.645	56.182	
6.00	-81.582	129.370	
7.00	-85.373	33.943	
8.00	-80.214	9.507	
9.00	-73.575	26.321	
10.00	-73.234	5.304	
11.00	-68.870	-15.861	
12.00	-66.366	-20.737	
13.00	-63.624	-23.788	
14.00	-63.733	-28.934	
15.00	-65.244	-26.508	
16.00	-65.450	-34.612	
17.00	-71.240	-57.546	
18.00	-70.907	-89.823	
19.00	-70.079	-134.821	
20.00	-67.831	-148.458	
21.00	-69.213	-177.987	
22.00	-68.029	-177.068	
23.00	-69.539	165.493	
24.00	-71.653	146.520	
25.00	-74.605	131.795	
26.00	-75.083	48.160	
27.00	-71.676	17.794	
28.00	-69.356	15.299	
29.00	-69.306	9.525	
30.00	-69.893	-10.895	
31.00	-69.247	-41.204	
32.00	-70.106	-54.367	
33.00	-67.939	-80.433	
34.00	-71.425	-98.912	
35.00	-73.717	-136.819	
36.00	-73.326	-159.586	
37.00	-69.694	165.442	
38.00	-66.548	139.407	
39.00	-64.413	133.390	
40.00	-62.982	131.782	
41.00	-61.426	133.836	
42.00	-60.322	134.198	
43.00	-59.562	136.539	
44.00	-59.767	141.519	
45.00	-59.973	144.465	
46.00	-61.162	151.605	
47.00	-62.967	159.107	
48.00	-63.507	162.324	
49.00	-66.405	158.996	
50.00	-67.844	174.032	
51.00	-68.424	-156.623	
52.00	-68.658	-126.363	
53.00	-65.118	-100.349	
54.00	-63.160	-79.000	
55.00	-61.994	-65.011	
56.00	-61.145	-49.811	
57.00	-61.437	-40.239	
58.00	-62.734	-34.027	
59.00	-64.463	-28.088	
60.00	-64.796	-45.935	
61.00	-64.373	-56.031	
62.00	-63.510	-63.276	
63.00	-61.643	-58.485	
64.00	-62.005	-53.177	
65.00	-61.589	-32.505	
66.00	-62.329	-14.529	
67.00	-64.044	1.940	
68.00	-65.188	31.031	
69.00	-66.156	54.907	
70.00	-68.805	77.018	
71.00	-74.887	86.515	
72.00	-83.721	-3.229	
73.00	-73.718	-50.018	
74.00	-67.944	-44.218	
75.00	-65.422	-28.902	
76.00	-65.205	-20.103	
77.00	-65.997	-7.940	
78.00	-67.665	-1.729	
79.00	-72.536	13.974	
80.00	-81.048	50.568	
81.00	-87.516	45.791	
82.00	-82.503	-112.064	
83.00	-91.663	-164.799	
84.00	-74.682	-34.953	
85.00	-65.151	-21.104	
86.00	-66.432	2.063	
87.00	-64.757	10.638	
88.00	-63.090	24.293	
89.00	-62.914	48.623	
90.00	-62.853	62.362	
91.00	-63.292	87.065	
92.00	-64.381	113.940	
93.00	-64.147	142.244	
94.00	-63.434	168.229	
95.00	-63.669	-162.493	
96.00	-63.262	-142.807	
97.00	-63.465	-121.055	
98.00	-62.436	-100.630	
99.00	-63.806	-87.294	
100.00	-64.682	-70.145	
101.00	-66.193	-37.425	
102.00	-70.143	-10.034	
103.00	-69.134	21.648	
104.00	-71.173	73.258	
105.00	-70.351	96.310	
106.00	-71.791	114.953	
107.00	-75.214	151.693	
108.00	-79.169	-174.093	
109.00	-76.779	-94.436	
110.00	-69.957	-56.626	
111.00	-64.670	-38.656	
112.00	-61.478	-21.318	
113.00	-59.403	-15.860	
114.00	-56.193	-2.733	
115.00	-54.675	4.545	
116.00	-53.291	15.613	
117.00	-51.995	23.393	
118.00	-51.492	35.570	
119.00	-50.918	45.552	
120.00	-51.110	59.696	
121.00	-51.562	72.304	
122.00	-52.464	88.396	
123.00	-54.280	103.859	
124.00	-56.915	123.614	
125.00	-62.726	143.788	
126.00	-78.941	-67.840	
127.00	-59.487	-12.517	
128.00	-53.891	4.460	
129.00	-49.594	23.424	
130.00	-46.889	40.574	
131.00	-44.852	57.110	
132.00	-43.410	73.780	
133.00	-42.366	90.301	
134.00	-41.815	106.869	
135.00	-41.700	122.899	
136.00	-41.925	137.689	
137.00	-42.907	153.828	
138.00	-44.545	171.000	
139.00	-47.296	-169.477	
140.00	-51.789	-143.398	
141.00	-58.183	-82.577	
142.00	-54.014	0.072	
143.00	-48.936	33.778	
144.00	-46.183	54.001	
145.00	-44.423	69.914	
146.00	-43.641	86.150	
147.00	-43.371	100.732	
148.00	-43.519	115.251	
149.00	-44.407	125.874	
150.00	-45.686	136.755	
151.00	-47.542	145.970	
152.00	-49.826	152.778	
153.00	-52.517	153.410	
154.00	-55.416	145.150	
155.00	-56.915	130.202	
156.00	-58.140	118.807	
157.00	-58.208	106.176	
158.00	-57.749	98.726	
159.00	-56.661	80.201	
160.00	-54.267	68.571	
161.00	-51.298	59.242	
162.00	-48.764	56.385	
163.00	-46.676	56.575	
164.00	-45.389	60.141	
165.00	-44.691	65.473	
166.00	-44.838	73.573	
167.00	-45.327	81.698	
168.00	-46.039	91.599	
169.00	-46.683	105.555	
170.00	-46.211	117.933	
171.00	-44.836	122.712	
172.00	-42.337	123.166	
173.00	-39.378	119.019	
174.00	-36.345	116.871	
175.00	-33.626	114.548	
176.00	-31.303	112.901	
177.00	-29.409	111.827	
178.00	-28.043	111.769	
179.00	-27.131	112.220	
180.00	-26.694	111.980	
181.00	-26.736	111.306	
182.00	-27.291	111.334	
183.00	-28.424	111.653	
184.00	-30.185	112.186	
185.00	-32.716	113.240	
186.00	-36.284	117.210	
187.00	-41.376	128.872	
188.00	-47.369	164.842	
189.00	-47.722	-145.290	
190.00	-46.111	-126.281	
191.00	-46.535	-123.920	
192.00	-49.697	-126.339	
193.00	-56.969	-161.196	
194.00	-57.536	90.988	
195.00	-51.015	74.925	
196.00	-48.711	65.414	
197.00	-49.478	64.456	
198.00	-52.346	65.396	
199.00	-59.324	94.342	
200.00	-56.024	164.699	
201.00	-50.447	173.578	
202.00	-48.970	169.704	
203.00	-47.473	149.032	
204.00	-48.546	122.928	
205.00	-49.170	87.298	
206.00	-47.033	49.006	
207.00	-43.721	19.651	
208.00	-41.348	0.772	
209.00	-39.747	-15.326	
210.00	-38.813	-28.501	
211.00	-38.714	-41.860	
212.00	-39.187	-56.254	
213.00	-40.430	-68.893	
214.00	-42.485	-84.108	
215.00	-45.622	-100.720	
216.00	-51.298	-126.340	
217.00	-60.646	141.324	
218.00	-51.393	68.931	
219.00	-46.446	48.609	
220.00	-44.003	32.928	
221.00	-42.727	19.622	
222.00	-41.974	5.909	
223.00	-41.784	-7.591	
224.00	-41.975	-20.383	
225.00	-42.615	-32.968	
226.00	-43.117	-43.113	
227.00	-45.347	-54.189	
228.00	-46.694	-63.224	
229.00	-48.578	-77.329	
230.00	-51.068	-86.006	
231.00	-53.836	-106.706	
232.00	-58.183	-120.529	
233.00	-61.343	-141.979	
234.00	-68.511	151.504	
235.00	-66.741	102.073	
236.00	-62.895	53.011	
237.00	-59.025	33.956	
238.00	-56.941	6.938	
239.00	-57.079	-20.702	
240.00	-55.322	-46.066	
241.00	-54.324	-63.708	
242.00	-53.914	-86.761	
243.00	-53.418	-105.953	
244.00	-53.327	-131.488	
245.00	-53.057	-154.280	
246.00	-52.692	-177.797	
247.00	-52.699	159.722	
248.00	-52.493	140.436	
249.00	-52.504	117.053	
250.00	-52.932	97.963	
251.00	-53.038	75.542	
252.00	-53.611	55.064	
253.00	-54.345	34.223	
254.00	-54.686	9.982	
255.00	-54.876	-11.273	
256.00	-55.284	-32.957	
257.00	-55.416	-54.194	
258.00	-55.790	-71.686	
259.00	-56.241	-94.978	
260.00	-56.607	-112.633	
261.00	-57.665	-133.280	
262.00	-57.568	-154.050	
263.00	-58.780	-169.815	
264.00	-59.161	168.585	
265.00	-60.148	142.820	
266.00	-61.010	127.919	
267.00	-61.414	103.450	
268.00	-61.927	79.622	
269.00	-62.314	52.598	
270.00	-62.906	28.326	
271.00	-63.645	16.511	
272.00	-63.076	-16.677	
273.00	-64.266	-38.459	
274.00	-64.093	-56.442	
275.00	-63.907	-80.923	
276.00	-65.885	-103.098	
277.00	-68.108	-141.036	
278.00	-67.946	-178.887	
279.00	-67.022	147.184	
280.00	-65.298	117.023	
281.00	-64.009	89.707	
282.00	-62.848	70.040	
283.00	-62.356	53.005	
284.00	-62.064	38.401	
285.00	-62.524	14.730	
286.00	-63.266	-7.156	
287.00	-63.092	-39.109	
288.00	-63.219	-58.333	
289.00	-62.791	-81.692	
290.00	-61.996	-95.950	
291.00	-61.754	-104.670	
292.00	-61.518	-115.532	
293.00	-61.218	-122.441	
294.00	-60.833	-130.832	
295.00	-60.578	-139.447	
296.00	-60.973	-145.557	
297.00	-60.957	-161.606	
298.00	-61.168	-177.714	
299.00	-61.250	162.234	
300.00	-61.495	138.344	
301.00	-62.072	115.774	
302.00	-61.574	85.476	
303.00	-61.136	58.913	
304.00	-59.870	31.990	
305.00	-58.703	7.101	
306.00	-58.167	-15.392	
307.00	-57.468	-35.351	
308.00	-57.143	-56.178	
309.00	-56.768	-75.248	
310.00	-56.889	-93.631	
311.00	-57.371	-109.633	
312.00	-58.065	-124.971	
313.00	-59.465	-141.024	
314.00	-61.064	-153.140	
315.00	-62.890	-163.189	
316.00	-65.052	-168.785	
317.00	-67.154	-162.610	
318.00	-67.918	-140.073	
319.00	-66.218	-122.305	
320.00	-65.212	-123.291	
321.00	-64.697	-118.426	
322.00	-64.756	-117.035	
323.00	-65.001	-118.516	
324.00	-65.665	-125.170	
325.00	-66.728	-121.693	
326.00	-68.537	-136.020	
327.00	-70.597	-147.731	
328.00	-71.985	-176.197	
329.00	-72.737	160.402	
330.00	-73.519	137.381	
331.00	-75.718	101.061	
332.00	-77.768	61.833	
333.00	-80.559	51.340	
334.00	-79.999	-7.965	
335.00	-78.315	-73.266	
336.00	-72.429	-118.119	
337.00	-68.939	-128.892	
338.00	-66.876	-148.220	
339.00	-65.723	-154.768	
340.00	-66.215	-161.594	
341.00	-66.212	-167.733	
342.00	-66.319	-168.203	
343.00	-68.490	-178.321	
344.00	-68.439	-176.018	
345.00	-68.672	-173.997	
346.00	-68.488	-163.976	
347.00	-68.677	-167.844	
348.00	-70.486	-175.879	
349.00	-72.868	-169.209	
350.00	-70.439	-171.693	
351.00	-70.683	169.190	
352.00	-68.415	156.027	
353.00	-67.947	161.008	
354.00	-66.781	147.389	
355.00	-66.694	153.625	
356.00	-66.893	156.704	
357.00	-66.662	150.853	
358.00	-67.934	148.588	
359.00	-70.435	151.490	
Frequency	2496.00	MHz	
Channel	test		
Scan Axis name	Azimuth  [deg]		
Scan Axis	Amplitude	Phase	
			
0.00	-75.384	-3.978	
1.00	-67.243	12.152	
2.00	-65.337	27.668	
3.00	-64.291	17.769	
4.00	-65.101	15.953	
5.00	-67.188	3.330	
6.00	-69.870	4.975	
7.00	-73.683	6.060	
8.00	-84.670	-60.217	
9.00	-81.967	85.837	
10.00	-77.637	154.041	
11.00	-71.239	146.727	
12.00	-70.645	146.120	
13.00	-69.037	139.039	
14.00	-69.685	138.449	
15.00	-67.968	153.206	
16.00	-68.177	149.395	
17.00	-65.304	167.011	
18.00	-66.358	167.084	
19.00	-66.497	174.711	
20.00	-69.255	-176.901	
21.00	-70.602	-177.456	
22.00	-73.571	174.182	
23.00	-73.131	150.017	
24.00	-68.991	137.214	
25.00	-68.712	124.803	
26.00	-66.995	122.676	
27.00	-64.072	120.372	
28.00	-64.348	128.182	
29.00	-65.785	141.499	
30.00	-69.313	159.430	
31.00	-69.131	-173.385	
32.00	-68.037	-119.026	
33.00	-65.965	-100.900	
34.00	-65.260	-82.069	
35.00	-65.255	-88.524	
36.00	-65.482	-96.766	
37.00	-65.140	-100.919	
38.00	-65.211	-104.362	
39.00	-65.889	-141.989	
40.00	-64.612	-157.881	
41.00	-61.033	-159.173	
42.00	-59.097	-161.356	
43.00	-59.218	-151.694	
44.00	-58.197	-140.424	
45.00	-58.757	-122.743	
46.00	-60.393	-109.120	
47.00	-63.285	-94.436	
48.00	-65.028	-71.304	
49.00	-70.438	-62.090	
50.00	-70.369	-22.066	
51.00	-70.814	-46.885	
52.00	-70.220	-13.129	
53.00	-71.323	-9.683	
54.00	-70.267	-54.813	
55.00	-74.454	-106.983	
56.00	-71.024	-138.120	
57.00	-63.383	-144.823	
58.00	-60.699	-144.900	
59.00	-57.555	-140.569	
60.00	-57.556	-129.680	
61.00	-57.861	-120.701	
62.00	-59.009	-100.729	
63.00	-61.741	-86.802	
64.00	-66.457	-64.113	
65.00	-75.278	-39.184	
66.00	-77.545	100.504	
67.00	-71.128	152.178	
68.00	-65.531	-168.351	
69.00	-64.653	-134.808	
70.00	-63.027	-115.236	
71.00	-62.784	-85.823	
72.00	-62.482	-58.241	
73.00	-61.751	-28.907	
74.00	-61.507	-6.473	
75.00	-61.571	17.422	
76.00	-61.719	35.804	
77.00	-63.135	68.615	
78.00	-64.321	93.642	
79.00	-66.528	114.387	
80.00	-68.288	161.963	
81.00	-69.213	-160.400	
82.00	-68.985	-114.470	
83.00	-68.485	-73.120	
84.00	-71.285	-65.919	
85.00	-68.420	-4.258	
86.00	-66.856	31.614	
87.00	-63.397	38.306	
88.00	-64.697	78.369	
89.00	-65.325	101.714	
90.00	-63.758	130.083	
91.00	-64.355	147.092	
92.00	-65.675	170.395	
93.00	-63.862	-158.037	
94.00	-67.428	-122.876	
95.00	-67.464	-90.811	
96.00	-65.045	-57.197	
97.00	-63.524	-29.073	
98.00	-62.960	-13.488	
99.00	-62.137	9.252	
100.00	-62.455	22.786	
101.00	-63.720	50.750	
102.00	-65.502	69.097	
103.00	-67.451	87.152	
104.00	-75.150	-168.856	
105.00	-76.629	-174.079	
106.00	-70.200	-133.699	
107.00	-75.408	-71.495	
108.00	-69.705	-24.974	
109.00	-67.470	-5.549	
110.00	-63.696	21.896	
111.00	-61.734	36.182	
112.00	-61.959	54.465	
113.00	-60.469	59.110	
114.00	-59.402	74.477	
115.00	-59.493	77.083	
116.00	-59.775	83.199	
117.00	-59.291	87.525	
118.00	-58.653	96.960	
119.00	-57.321	111.036	
120.00	-56.015	122.117	
121.00	-54.369	129.072	
122.00	-53.072	139.034	
123.00	-51.938	145.111	
124.00	-51.451	152.796	
125.00	-51.537	156.112	
126.00	-51.461	157.677	
127.00	-51.453	157.916	
128.00	-51.016	155.894	
129.00	-49.933	154.984	
130.00	-48.359	159.534	
131.00	-46.924	166.581	
132.00	-45.409	175.141	
133.00	-44.103	-175.478	
134.00	-43.277	-165.305	
135.00	-42.839	-154.423	
136.00	-42.918	-145.672	
137.00	-43.533	-133.887	
138.00	-44.727	-124.259	
139.00	-46.782	-115.767	
140.00	-50.440	-111.159	
141.00	-55.643	-121.294	
142.00	-56.884	176.304	
143.00	-51.516	159.069	
144.00	-47.819	161.362	
145.00	-45.602	167.071	
146.00	-44.374	176.069	
147.00	-43.930	-174.079	
148.00	-44.067	-163.866	
149.00	-44.643	-155.233	
150.00	-45.677	-149.558	
151.00	-46.977	-143.151	
152.00	-48.260	-140.041	
153.00	-49.650	-143.599	
154.00	-50.207	-150.999	
155.00	-50.124	-155.575	
156.00	-49.897	-157.438	
157.00	-49.339	-157.176	
158.00	-48.988	-160.217	
159.00	-48.798	-163.748	
160.00	-48.512	-170.457	
161.00	-47.938	-177.427	
162.00	-46.956	172.487	
163.00	-45.887	165.062	
164.00	-44.880	162.291	
165.00	-44.625	163.647	
166.00	-44.826	168.625	
167.00	-45.629	177.696	
168.00	-46.531	-168.436	
169.00	-46.425	-145.461	
170.00	-44.286	-125.580	
171.00	-41.590	-118.885	
172.00	-38.758	-118.783	
173.00	-36.165	-123.564	
174.00	-33.670	-128.142	
175.00	-31.415	-133.271	
176.00	-29.459	-138.019	
177.00	-27.881	-141.724	
178.00	-26.739	-143.930	
179.00	-26.013	-145.278	
180.00	-25.749	-147.134	
181.00	-25.994	-148.838	
182.00	-26.784	-149.529	
183.00	-28.166	-149.578	
184.00	-30.339	-148.602	
185.00	-33.420	-145.798	
186.00	-37.935	-137.551	
187.00	-44.132	-108.573	
188.00	-45.747	-49.248	
189.00	-42.823	-22.289	
190.00	-42.366	-13.473	
191.00	-43.645	-8.401	
192.00	-47.433	-2.441	
193.00	-53.787	27.833	
194.00	-52.945	108.776	
195.00	-48.565	128.171	
196.00	-47.280	132.355	
197.00	-48.857	135.086	
198.00	-54.806	147.915	
199.00	-57.466	-123.624	
200.00	-49.400	-95.604	
201.00	-46.114	-93.039	
202.00	-44.405	-101.302	
203.00	-44.719	-112.588	
204.00	-46.217	-132.810	
205.00	-48.792	-170.167	
206.00	-47.253	133.929	
207.00	-43.486	100.802	
208.00	-40.722	81.390	
209.00	-38.904	67.326	
210.00	-38.290	56.708	
211.00	-38.374	46.489	
212.00	-39.572	36.516	
213.00	-41.593	28.778	
214.00	-44.954	24.062	
215.00	-51.374	32.096	
216.00	-54.913	109.259	
217.00	-48.113	134.095	
218.00	-44.424	131.948	
219.00	-42.740	124.794	
220.00	-41.903	115.491	
221.00	-41.822	104.671	
222.00	-42.154	94.166	
223.00	-42.982	82.717	
224.00	-44.311	72.094	
225.00	-45.462	61.770	
226.00	-47.379	47.843	
227.00	-49.907	41.295	
228.00	-50.708	31.994	
229.00	-54.420	25.668	
230.00	-57.754	16.899	
231.00	-63.197	37.031	
232.00	-70.915	34.570	
233.00	-68.342	135.650	
234.00	-62.590	126.173	
235.00	-59.447	112.131	
236.00	-58.219	101.718	
237.00	-57.127	84.304	
238.00	-55.680	78.526	
239.00	-54.389	41.558	
240.00	-55.765	23.887	
241.00	-55.539	-7.067	
242.00	-55.769	-34.813	
243.00	-54.477	-64.698	
244.00	-53.730	-87.949	
245.00	-53.063	-109.826	
246.00	-52.738	-131.479	
247.00	-52.337	-150.496	
248.00	-52.402	-170.409	
249.00	-52.528	170.525	
250.00	-53.158	148.351	
251.00	-53.647	132.361	
252.00	-53.496	109.299	
253.00	-54.224	94.807	
254.00	-55.184	76.598	
255.00	-55.384	63.033	
256.00	-56.475	46.814	
257.00	-57.814	28.677	
258.00	-58.878	16.980	
259.00	-59.734	-0.874	
260.00	-61.343	-19.419	
261.00	-62.885	-35.646	
262.00	-64.556	-51.664	
263.00	-64.411	-72.035	
264.00	-65.530	-101.015	
265.00	-67.287	-128.156	
266.00	-65.466	-162.909	
267.00	-65.440	169.879	
268.00	-65.513	152.166	
269.00	-64.317	149.156	
270.00	-64.831	120.532	
271.00	-64.731	81.145	
272.00	-64.833	54.245	
273.00	-65.176	43.131	
274.00	-66.149	14.217	
275.00	-64.138	8.453	
276.00	-64.070	-20.804	
277.00	-65.535	-24.335	
278.00	-65.309	-33.882	
279.00	-69.129	-51.571	
280.00	-84.442	91.584	
281.00	-78.545	115.556	
282.00	-74.262	128.217	
283.00	-68.864	108.442	
284.00	-66.772	96.995	
285.00	-67.469	92.644	
286.00	-67.125	88.196	
287.00	-71.069	122.967	
288.00	-68.395	122.980	
289.00	-65.689	130.866	
290.00	-63.456	132.126	
291.00	-64.425	107.056	
292.00	-65.350	88.663	
293.00	-62.772	79.620	
294.00	-61.075	51.956	
295.00	-63.611	31.898	
296.00	-61.495	22.456	
297.00	-62.465	-16.464	
298.00	-64.997	-33.981	
299.00	-63.215	-64.176	
300.00	-63.593	-99.762	
301.00	-62.726	-134.374	
302.00	-62.330	-151.803	
303.00	-60.428	-170.907	
304.00	-61.448	-178.943	
305.00	-60.790	162.116	
306.00	-63.342	150.930	
307.00	-65.243	147.940	
308.00	-69.064	141.208	
309.00	-77.034	85.612	
310.00	-85.450	15.465	
311.00	-80.003	-32.454	
312.00	-71.859	-25.861	
313.00	-70.347	-29.454	
314.00	-66.302	-30.480	
315.00	-64.296	-23.048	
316.00	-62.127	-27.478	
317.00	-61.177	-35.631	
318.00	-59.764	-42.793	
319.00	-59.214	-49.996	
320.00	-59.035	-58.239	
321.00	-58.749	-64.816	
322.00	-59.353	-77.562	
323.00	-60.163	-86.138	
324.00	-60.909	-94.357	
325.00	-62.692	-103.611	
326.00	-65.024	-109.565	
327.00	-68.768	-129.073	
328.00	-72.103	-141.508	
329.00	-74.633	-158.220	
330.00	-72.290	162.775	
331.00	-72.058	139.804	
332.00	-71.392	129.836	
333.00	-70.608	132.425	
334.00	-72.114	131.394	
335.00	-72.074	141.854	
336.00	-73.300	163.187	
337.00	-72.160	-165.330	
338.00	-69.717	-135.187	
339.00	-67.655	-123.003	
340.00	-65.549	-115.720	
341.00	-63.336	-110.337	
342.00	-62.111	-106.505	
343.00	-60.730	-104.181	
344.00	-60.177	-108.049	
345.00	-59.945	-109.359	
346.00	-59.754	-114.161	
347.00	-60.830	-116.375	
348.00	-61.217	-114.333	
349.00	-62.075	-113.121	
350.00	-62.836	-110.476	
351.00	-63.039	-103.065	
352.00	-62.930	-99.455	
353.00	-62.703	-102.671	
354.00	-62.825	-104.900	
355.00	-63.137	-110.183	
356.00	-63.964	-115.527	
357.00	-65.593	-118.051	
358.00	-68.327	-119.257	
359.00	-73.095	-109.809	
Frequency	2550.00	MHz	
Channel	test		
Scan Axis name	Azimuth  [deg]		
Scan Axis	Amplitude	Phase	
			
0.00	-64.612	114.946	
1.00	-62.996	104.330	
2.00	-63.298	94.298	
3.00	-62.431	92.373	
4.00	-64.595	75.511	
5.00	-69.049	68.026	
6.00	-70.345	33.219	
7.00	-68.038	-15.285	
8.00	-68.082	-37.619	
9.00	-65.600	-55.181	
10.00	-64.534	-42.262	
11.00	-64.946	-51.969	
12.00	-65.268	-76.104	
13.00	-66.353	-80.057	
14.00	-64.057	-92.409	
15.00	-65.421	-99.697	
16.00	-64.335	-99.152	
17.00	-63.746	-101.977	
18.00	-63.714	-100.625	
19.00	-65.455	-88.954	
20.00	-66.744	-86.148	
21.00	-71.312	-72.329	
22.00	-88.573	-118.615	
23.00	-79.423	104.825	
24.00	-70.135	107.322	
25.00	-68.110	122.589	
26.00	-65.604	114.092	
27.00	-64.972	112.615	
28.00	-65.705	102.747	
29.00	-65.133	93.156	
30.00	-64.887	61.533	
31.00	-64.577	48.733	
32.00	-62.083	34.740	
33.00	-61.165	27.922	
34.00	-60.242	18.588	
35.00	-61.463	10.358	
36.00	-62.558	0.257	
37.00	-63.358	-9.199	
38.00	-63.241	-16.763	
39.00	-64.264	-29.031	
40.00	-67.612	-21.442	
41.00	-67.309	-39.197	
42.00	-68.024	-26.153	
43.00	-73.925	7.303	
44.00	-70.645	35.708	
45.00	-65.443	26.188	
46.00	-62.695	46.690	
47.00	-61.631	47.657	
48.00	-61.589	69.592	
49.00	-62.213	72.579	
50.00	-64.236	82.717	
51.00	-67.791	99.537	
52.00	-70.435	124.233	
53.00	-73.019	154.131	
54.00	-70.262	-175.181	
55.00	-67.677	-156.564	
56.00	-65.943	-152.633	
57.00	-62.949	-137.694	
58.00	-62.873	-124.117	
59.00	-63.432	-117.840	
60.00	-63.605	-85.164	
61.00	-66.724	-55.943	
62.00	-68.705	-20.492	
63.00	-69.648	37.882	
64.00	-67.785	80.505	
65.00	-66.313	107.486	
66.00	-67.029	158.655	
67.00	-66.989	-169.589	
68.00	-66.059	-125.942	
69.00	-65.118	-86.997	
70.00	-63.153	-46.358	
71.00	-62.249	-20.571	
72.00	-61.586	12.933	
73.00	-61.812	36.739	
74.00	-61.653	66.163	
75.00	-61.339	97.613	
76.00	-61.643	129.568	
77.00	-60.935	162.354	
78.00	-61.418	-164.297	
79.00	-60.245	-144.978	
80.00	-58.658	-109.902	
81.00	-58.189	-90.543	
82.00	-58.904	-67.839	
83.00	-59.251	-44.918	
84.00	-60.817	-24.435	
85.00	-62.273	21.648	
86.00	-62.810	46.377	
87.00	-62.086	82.475	
88.00	-59.510	103.254	
89.00	-60.708	142.332	
90.00	-59.341	178.110	
91.00	-60.960	-164.327	
92.00	-59.723	-132.038	
93.00	-59.780	-108.975	
94.00	-59.270	-84.680	
95.00	-59.071	-60.763	
96.00	-58.370	-37.866	
97.00	-57.914	-6.114	
98.00	-56.611	9.996	
99.00	-56.296	32.155	
100.00	-55.657	48.176	
101.00	-55.649	75.736	
102.00	-56.280	89.056	
103.00	-57.477	108.501	
104.00	-58.705	123.546	
105.00	-60.433	147.041	
106.00	-61.954	169.715	
107.00	-62.644	-162.524	
108.00	-65.574	-137.285	
109.00	-66.816	-103.040	
110.00	-71.047	-59.437	
111.00	-69.957	-39.982	
112.00	-69.777	-13.660	
113.00	-70.264	13.595	
114.00	-71.293	16.597	
115.00	-73.045	19.142	
116.00	-76.814	4.118	
117.00	-77.610	-83.013	
118.00	-69.869	-101.849	
119.00	-64.618	-107.967	
120.00	-61.166	-111.260	
121.00	-58.168	-108.685	
122.00	-55.938	-104.418	
123.00	-54.465	-101.114	
124.00	-53.493	-92.338	
125.00	-53.025	-86.534	
126.00	-53.022	-78.540	
127.00	-53.318	-68.804	
128.00	-54.644	-63.400	
129.00	-55.708	-65.366	
130.00	-56.585	-71.906	
131.00	-56.402	-88.899	
132.00	-54.015	-97.753	
133.00	-51.304	-96.964	
134.00	-49.204	-93.194	
135.00	-47.528	-84.852	
136.00	-46.463	-77.628	
137.00	-45.782	-66.851	
138.00	-45.596	-58.051	
139.00	-46.121	-48.185	
140.00	-47.026	-42.029	
141.00	-48.822	-39.939	
142.00	-50.868	-43.057	
143.00	-52.842	-58.137	
144.00	-52.910	-81.554	
145.00	-50.662	-99.219	
146.00	-48.792	-102.434	
147.00	-47.697	-99.955	
148.00	-46.772	-93.049	
149.00	-46.798	-85.654	
150.00	-47.145	-79.217	
151.00	-47.559	-70.674	
152.00	-48.454	-63.028	
153.00	-49.386	-59.699	
154.00	-50.127	-58.203	
155.00	-51.468	-58.605	
156.00	-51.897	-57.599	
157.00	-52.225	-56.206	
158.00	-51.887	-60.558	
159.00	-51.688	-63.701	
160.00	-51.365	-67.839	
161.00	-51.180	-76.769	
162.00	-50.614	-86.939	
163.00	-49.996	-100.355	
164.00	-49.065	-108.312	
165.00	-48.479	-112.267	
166.00	-48.298	-113.975	
167.00	-49.169	-111.094	
168.00	-50.354	-101.359	
169.00	-51.448	-77.186	
170.00	-49.403	-48.584	
171.00	-45.823	-34.137	
172.00	-42.191	-32.518	
173.00	-39.271	-35.996	
174.00	-36.566	-39.595	
175.00	-34.362	-44.003	
176.00	-32.481	-49.092	
177.00	-30.984	-53.543	
178.00	-29.927	-56.587	
179.00	-29.291	-58.734	
180.00	-29.155	-61.286	
181.00	-29.541	-63.853	
182.00	-30.442	-64.928	
183.00	-32.018	-65.172	
184.00	-34.347	-63.212	
185.00	-37.782	-58.448	
186.00	-42.622	-43.354	
187.00	-46.897	3.127	
188.00	-45.337	44.443	
189.00	-43.522	59.295	
190.00	-43.432	65.950	
191.00	-45.313	70.869	
192.00	-48.875	80.022	
193.00	-54.493	100.932	
194.00	-54.609	172.158	
195.00	-51.641	-168.026	
196.00	-50.430	-161.500	
197.00	-53.030	-157.702	
198.00	-57.604	-147.850	
199.00	-61.486	-75.756	
200.00	-54.494	-36.475	
201.00	-51.337	-46.541	
202.00	-50.621	-59.616	
203.00	-48.937	-73.824	
204.00	-48.416	-103.419	
205.00	-47.516	-134.729	
206.00	-45.507	-158.454	
207.00	-44.401	-179.020	
208.00	-43.371	162.309	
209.00	-43.203	148.643	
210.00	-44.049	137.490	
211.00	-45.709	128.069	
212.00	-48.577	119.369	
213.00	-54.898	120.041	
214.00	-60.537	-154.767	
215.00	-51.716	-123.661	
216.00	-47.621	-127.211	
217.00	-45.344	-133.992	
218.00	-44.324	-141.811	
219.00	-44.083	-149.951	
220.00	-44.696	-156.495	
221.00	-45.938	-166.128	
222.00	-47.534	-175.612	
223.00	-49.389	174.799	
224.00	-51.126	163.782	
225.00	-52.475	153.647	
226.00	-54.438	140.428	
227.00	-54.599	126.399	
228.00	-56.213	130.002	
229.00	-57.410	112.682	
230.00	-59.387	109.517	
231.00	-62.469	98.986	
232.00	-63.612	107.225	
233.00	-65.942	128.965	
234.00	-63.464	147.524	
235.00	-62.994	146.160	
236.00	-60.276	127.423	
237.00	-58.666	109.615	
238.00	-56.698	96.083	
239.00	-57.891	62.360	
240.00	-58.582	50.386	
241.00	-57.477	12.293	
242.00	-55.356	-16.357	
243.00	-54.554	-31.132	
244.00	-53.154	-53.761	
245.00	-53.180	-69.599	
246.00	-53.209	-85.367	
247.00	-53.649	-102.208	
248.00	-54.316	-114.655	
249.00	-55.175	-129.878	
250.00	-57.215	-143.338	
251.00	-58.979	-154.547	
252.00	-61.344	-166.321	
253.00	-64.035	179.136	
254.00	-66.898	175.886	
255.00	-71.572	154.603	
256.00	-72.115	136.488	
257.00	-75.145	86.366	
258.00	-72.358	77.247	
259.00	-72.500	62.316	
260.00	-72.367	46.071	
261.00	-71.914	7.564	
262.00	-67.557	-2.299	
263.00	-66.140	-28.887	
264.00	-64.073	-53.985	
265.00	-62.952	-70.728	
266.00	-62.031	-80.696	
267.00	-62.459	-96.017	
268.00	-63.535	-107.036	
269.00	-65.069	-120.838	
270.00	-66.870	-134.377	
271.00	-72.245	-154.475	
272.00	-80.850	163.866	
273.00	-77.043	22.212	
274.00	-70.149	27.690	
275.00	-69.208	4.782	
276.00	-68.073	-2.860	
277.00	-66.885	-22.115	
278.00	-69.592	-36.440	
279.00	-72.427	-47.439	
280.00	-83.029	-143.054	
281.00	-83.247	105.811	
282.00	-74.547	107.674	
283.00	-70.175	102.515	
284.00	-69.597	76.429	
285.00	-69.076	62.494	
286.00	-68.394	40.692	
287.00	-69.597	-0.608	
288.00	-69.974	1.120	
289.00	-74.728	-10.562	
290.00	-78.943	-6.021	
291.00	-77.703	97.338	
292.00	-70.893	95.235	
293.00	-67.218	107.893	
294.00	-65.576	88.157	
295.00	-65.049	76.902	
296.00	-65.433	60.893	
297.00	-66.549	37.539	
298.00	-67.178	10.432	
299.00	-66.541	-16.065	
300.00	-67.114	-37.493	
301.00	-65.343	-53.038	
302.00	-64.614	-60.418	
303.00	-64.621	-65.782	
304.00	-63.989	-70.247	
305.00	-63.602	-78.154	
306.00	-63.566	-85.480	
307.00	-64.059	-97.704	
308.00	-65.222	-117.979	
309.00	-66.013	-143.825	
310.00	-65.657	-179.044	
311.00	-64.488	153.540	
312.00	-62.986	130.199	
313.00	-61.406	117.409	
314.00	-60.875	106.353	
315.00	-60.419	96.739	
316.00	-60.620	90.000	
317.00	-61.003	79.668	
318.00	-61.869	76.388	
319.00	-62.414	73.179	
320.00	-63.720	72.357	
321.00	-65.158	76.928	
322.00	-65.360	73.862	
323.00	-65.629	80.028	
324.00	-66.161	84.096	
325.00	-67.317	79.437	
326.00	-70.238	79.587	
327.00	-76.575	94.171	
328.00	-87.336	56.700	
329.00	-75.071	-152.310	
330.00	-73.486	-128.584	
331.00	-68.338	-143.266	
332.00	-66.918	-139.344	
333.00	-66.839	-146.679	
334.00	-66.840	-139.412	
335.00	-68.211	-142.684	
336.00	-71.857	-147.298	
337.00	-76.957	-137.380	
338.00	-83.369	-20.092	
339.00	-71.765	-17.191	
340.00	-68.658	-9.980	
341.00	-66.550	-6.679	
342.00	-65.694	-16.807	
343.00	-65.863	-12.841	
344.00	-66.856	-11.795	
345.00	-66.666	-5.290	
346.00	-69.425	1.997	
347.00	-69.254	18.010	
348.00	-68.831	21.155	
349.00	-67.058	5.771	
350.00	-67.102	-7.198	
351.00	-65.677	-3.946	
352.00	-64.943	-27.114	
353.00	-66.121	-28.376	
354.00	-65.362	-34.752	
355.00	-64.100	-40.450	
356.00	-67.864	-64.419	
357.00	-72.754	-73.391	
358.00	-82.650	63.500	
359.00	-69.539	108.260	
Frequency	2600.00	MHz	
Channel	test		
Scan Axis name	Azimuth  [deg]		
Scan Axis	Amplitude	Phase	
			
0.00	-67.192	103.068	
1.00	-67.018	117.766	
2.00	-67.383	125.260	
3.00	-65.904	123.268	
4.00	-66.258	118.948	
5.00	-66.628	109.411	
6.00	-67.459	93.836	
7.00	-67.259	62.375	
8.00	-67.471	41.705	
9.00	-65.162	42.611	
10.00	-66.677	26.293	
11.00	-66.685	9.840	
12.00	-70.376	-2.851	
13.00	-71.464	-17.987	
14.00	-69.842	-19.638	
15.00	-73.167	-28.172	
16.00	-78.323	11.447	
17.00	-75.422	-47.205	
18.00	-90.018	-2.053	
19.00	-83.496	106.600	
20.00	-79.330	80.404	
21.00	-76.133	127.287	
22.00	-71.719	157.902	
23.00	-69.449	154.923	
24.00	-71.268	166.575	
25.00	-70.932	174.889	
26.00	-74.889	160.871	
27.00	-72.712	138.467	
28.00	-70.181	119.016	
29.00	-66.039	104.845	
30.00	-64.543	99.023	
31.00	-64.077	103.161	
32.00	-63.113	101.692	
33.00	-63.318	99.222	
34.00	-63.513	90.328	
35.00	-64.210	87.329	
36.00	-65.720	73.756	
37.00	-64.331	76.181	
38.00	-63.810	73.665	
39.00	-64.409	65.098	
40.00	-64.293	77.217	
41.00	-64.847	85.909	
42.00	-65.502	99.307	
43.00	-65.250	126.591	
44.00	-67.576	149.140	
45.00	-68.752	168.287	
46.00	-67.385	178.214	
47.00	-68.131	-149.830	
48.00	-69.496	-135.113	
49.00	-69.319	-108.397	
50.00	-70.139	-86.786	
51.00	-71.207	-53.845	
52.00	-71.344	-14.448	
53.00	-70.767	22.594	
54.00	-70.434	80.778	
55.00	-69.086	110.596	
56.00	-67.460	135.148	
57.00	-67.817	159.776	
58.00	-68.830	178.301	
59.00	-73.623	-177.541	
60.00	-77.971	73.327	
61.00	-67.611	54.742	
62.00	-64.459	65.440	
63.00	-63.292	77.176	
64.00	-63.941	90.414	
65.00	-66.015	108.447	
66.00	-70.317	130.288	
67.00	-74.357	-157.382	
68.00	-72.135	-85.386	
69.00	-70.067	-47.036	
70.00	-67.064	-24.474	
71.00	-68.010	-1.336	
72.00	-68.077	27.210	
73.00	-68.693	53.718	
74.00	-71.615	74.405	
75.00	-77.846	110.767	
76.00	-81.198	-123.244	
77.00	-70.594	-64.392	
78.00	-65.904	-55.212	
79.00	-63.356	-34.386	
80.00	-62.344	-19.619	
81.00	-62.435	-2.075	
82.00	-62.691	19.894	
83.00	-63.042	47.937	
84.00	-62.403	75.135	
85.00	-61.999	103.777	
86.00	-61.763	128.594	
87.00	-60.571	153.238	
88.00	-59.789	178.977	
89.00	-59.067	-158.075	
90.00	-58.437	-132.805	
91.00	-57.424	-113.978	
92.00	-56.883	-92.682	
93.00	-56.574	-73.968	
94.00	-56.495	-52.776	
95.00	-56.710	-30.045	
96.00	-57.227	-7.777	
97.00	-57.390	19.143	
98.00	-57.537	46.459	
99.00	-56.752	74.921	
100.00	-55.993	101.713	
101.00	-55.093	136.738	
102.00	-54.755	154.474	
103.00	-54.840	175.958	
104.00	-55.318	-163.439	
105.00	-56.088	-136.955	
106.00	-56.087	-115.769	
107.00	-56.441	-89.306	
108.00	-56.760	-67.279	
109.00	-56.523	-46.301	
110.00	-57.272	-30.729	
111.00	-58.159	-17.197	
112.00	-59.888	-5.839	
113.00	-62.668	-0.060	
114.00	-68.868	-12.605	
115.00	-71.058	-65.766	
116.00	-66.451	-82.956	
117.00	-62.323	-82.765	
118.00	-60.893	-72.094	
119.00	-59.279	-58.824	
120.00	-58.177	-45.350	
121.00	-56.781	-31.943	
122.00	-55.948	-18.994	
123.00	-54.520	-9.526	
124.00	-53.592	1.032	
125.00	-52.785	12.261	
126.00	-52.376	19.740	
127.00	-52.158	33.674	
128.00	-52.242	45.117	
129.00	-52.762	57.356	
130.00	-53.714	72.645	
131.00	-56.056	81.419	
132.00	-59.717	87.901	
133.00	-70.405	53.755	
134.00	-60.361	-21.269	
135.00	-53.422	-22.609	
136.00	-49.879	-14.344	
137.00	-47.499	-2.495	
138.00	-46.113	10.120	
139.00	-45.330	24.478	
140.00	-45.099	37.783	
141.00	-45.442	52.318	
142.00	-46.332	67.466	
143.00	-47.963	84.532	
144.00	-50.581	102.864	
145.00	-55.291	126.561	
146.00	-60.925	-167.561	
147.00	-56.899	-93.932	
148.00	-52.823	-66.190	
149.00	-50.304	-45.223	
150.00	-48.974	-30.778	
151.00	-48.660	-16.232	
152.00	-48.754	0.322	
153.00	-49.241	14.756	
154.00	-50.209	28.323	
155.00	-50.960	43.477	
156.00	-51.452	59.667	
157.00	-52.025	73.681	
158.00	-52.493	83.142	
159.00	-53.844	88.941	
160.00	-56.831	92.994	
161.00	-61.515	96.708	
162.00	-77.602	-3.504	
163.00	-61.650	-64.680	
164.00	-55.770	-61.449	
165.00	-53.267	-58.431	
166.00	-52.511	-55.313	
167.00	-53.727	-56.793	
168.00	-57.668	-56.676	
169.00	-69.169	-60.604	
170.00	-63.563	128.020	
171.00	-56.097	105.335	
172.00	-53.160	86.573	
173.00	-50.302	61.400	
174.00	-45.783	37.302	
175.00	-41.670	23.744	
176.00	-38.309	15.326	
177.00	-35.661	9.974	
178.00	-33.829	6.755	
179.00	-32.605	5.002	
180.00	-32.035	2.989	
181.00	-32.106	1.075	
182.00	-32.807	0.248	
183.00	-34.190	0.473	
184.00	-36.468	2.016	
185.00	-39.839	5.706	
186.00	-44.722	17.725	
187.00	-50.320	62.020	
188.00	-49.040	111.100	
189.00	-46.698	127.459	
190.00	-46.779	132.805	
191.00	-48.857	133.147	
192.00	-53.595	136.107	
193.00	-63.459	-173.583	
194.00	-56.682	-96.643	
195.00	-54.267	-89.368	
196.00	-53.109	-87.367	
197.00	-53.365	-93.853	
198.00	-58.056	-87.006	
199.00	-66.346	-39.204	
200.00	-58.091	2.624	
201.00	-52.145	-0.611	
202.00	-49.936	-18.575	
203.00	-48.943	-36.520	
204.00	-47.373	-48.157	
205.00	-46.510	-68.733	
206.00	-46.175	-88.743	
207.00	-45.694	-109.236	
208.00	-45.688	-126.543	
209.00	-46.196	-141.996	
210.00	-47.982	-157.196	
211.00	-51.242	-170.972	
212.00	-57.860	172.882	
213.00	-68.659	16.955	
214.00	-54.878	-21.043	
215.00	-50.416	-35.263	
216.00	-48.106	-47.865	
217.00	-47.122	-61.090	
218.00	-47.004	-71.118	
219.00	-47.752	-82.142	
220.00	-48.654	-93.209	
221.00	-50.604	-104.529	
222.00	-52.020	-119.971	
223.00	-54.177	-132.116	
224.00	-55.580	-148.507	
225.00	-57.665	-170.989	
226.00	-58.138	176.252	
227.00	-57.135	158.795	
228.00	-57.747	143.585	
229.00	-57.812	117.368	
230.00	-59.136	107.661	
231.00	-60.885	90.828	
232.00	-63.568	60.584	
233.00	-67.518	34.539	
234.00	-82.911	36.797	
235.00	-69.193	-161.567	
236.00	-62.392	179.591	
237.00	-58.612	151.705	
238.00	-55.505	128.202	
239.00	-53.433	108.378	
240.00	-53.982	90.027	
241.00	-52.339	74.886	
242.00	-52.167	55.661	
243.00	-52.038	36.724	
244.00	-52.336	18.353	
245.00	-53.036	-0.646	
246.00	-53.699	-19.741	
247.00	-55.068	-39.096	
248.00	-56.245	-52.186	
249.00	-56.549	-70.404	
250.00	-58.486	-86.455	
251.00	-60.602	-95.388	
252.00	-62.508	-107.625	
253.00	-64.375	-124.410	
254.00	-64.290	-133.514	
255.00	-64.629	-162.746	
256.00	-63.073	177.187	
257.00	-61.950	157.326	
258.00	-60.547	142.417	
259.00	-59.446	127.358	
260.00	-59.283	103.203	
261.00	-58.673	84.334	
262.00	-58.383	61.186	
263.00	-58.608	35.334	
264.00	-57.973	17.918	
265.00	-57.662	-4.372	
266.00	-58.216	-23.731	
267.00	-58.382	-40.956	
268.00	-59.827	-66.402	
269.00	-60.747	-89.933	
270.00	-62.154	-108.975	
271.00	-64.481	-134.929	
272.00	-67.041	-171.617	
273.00	-69.366	137.823	
274.00	-66.517	88.955	
275.00	-63.936	61.331	
276.00	-62.737	39.284	
277.00	-61.465	23.702	
278.00	-61.288	9.692	
279.00	-62.562	-15.175	
280.00	-62.956	-29.994	
281.00	-65.224	-43.867	
282.00	-66.985	-61.245	
283.00	-68.746	-84.138	
284.00	-74.500	-85.722	
285.00	-85.574	-91.131	
286.00	-85.761	-10.993	
287.00	-68.772	-10.779	
288.00	-65.454	-14.659	
289.00	-63.375	-26.849	
290.00	-62.684	-33.871	
291.00	-62.459	-45.646	
292.00	-62.980	-54.298	
293.00	-64.553	-55.697	
294.00	-67.157	-57.262	
295.00	-71.344	-42.981	
296.00	-74.963	-3.928	
297.00	-71.302	30.986	
298.00	-70.537	33.578	
299.00	-69.052	38.917	
300.00	-71.056	24.122	
301.00	-75.944	21.375	
302.00	-84.194	68.252	
303.00	-76.806	108.470	
304.00	-72.921	112.592	
305.00	-72.230	94.014	
306.00	-71.616	67.650	
307.00	-70.880	39.579	
308.00	-72.474	6.836	
309.00	-70.610	-29.342	
310.00	-70.041	-57.427	
311.00	-70.571	-84.537	
312.00	-69.796	-117.774	
313.00	-69.368	-146.297	
314.00	-70.577	-171.664	
315.00	-72.149	165.542	
316.00	-76.649	147.468	
317.00	-87.906	132.381	
318.00	-85.400	-44.158	
319.00	-73.865	-70.927	
320.00	-72.103	-115.731	
321.00	-70.179	-138.209	
322.00	-69.070	-149.126	
323.00	-67.854	-175.224	
324.00	-68.343	169.755	
325.00	-71.046	149.833	
326.00	-72.616	129.509	
327.00	-74.507	105.800	
328.00	-75.210	85.475	
329.00	-77.293	77.937	
330.00	-75.046	90.560	
331.00	-71.352	91.858	
332.00	-68.528	87.848	
333.00	-65.419	81.627	
334.00	-64.322	69.513	
335.00	-63.146	62.942	
336.00	-64.139	59.584	
337.00	-63.698	59.554	
338.00	-63.927	66.920	
339.00	-63.406	78.809	
340.00	-62.830	88.392	
341.00	-61.825	90.830	
342.00	-61.328	92.847	
343.00	-61.207	95.565	
344.00	-62.136	101.118	
345.00	-62.472	104.738	
346.00	-64.596	109.023	
347.00	-65.292	127.446	
348.00	-67.113	129.341	
349.00	-68.445	109.818	
350.00	-69.290	116.715	
351.00	-68.957	90.081	
352.00	-66.891	80.396	
353.00	-66.744	77.169	
354.00	-65.565	64.663	
355.00	-65.738	64.399	
356.00	-65.021	62.825	
357.00	-65.586	62.653	
358.00	-66.155	71.564	
359.00	-66.848	77.913	
Frequency	2650.00	MHz	
Channel	test		
Scan Axis name	Azimuth  [deg]		
Scan Axis	Amplitude	Phase	
			
0.00	-84.747	111.876	
1.00	-87.926	-84.078	
2.00	-76.315	150.306	
3.00	-68.728	162.950	
4.00	-67.195	159.426	
5.00	-65.532	141.040	
6.00	-64.585	145.827	
7.00	-63.566	146.470	
8.00	-62.395	137.108	
9.00	-62.089	130.321	
10.00	-63.158	128.632	
11.00	-63.338	122.190	
12.00	-64.862	116.271	
13.00	-68.629	105.034	
14.00	-69.577	90.324	
15.00	-75.719	89.056	
16.00	-77.047	14.092	
17.00	-74.868	-48.952	
18.00	-68.293	-63.131	
19.00	-65.091	-67.644	
20.00	-64.158	-57.748	
21.00	-66.972	-57.775	
22.00	-65.977	-66.909	
23.00	-67.130	-78.027	
24.00	-67.190	-85.917	
25.00	-67.417	-89.362	
26.00	-70.854	-102.882	
27.00	-69.927	-122.329	
28.00	-68.152	-125.552	
29.00	-67.913	-130.704	
30.00	-67.797	-138.676	
31.00	-68.567	-132.552	
32.00	-69.285	-138.755	
33.00	-74.397	-148.292	
34.00	-80.854	178.365	
35.00	-76.417	126.519	
36.00	-72.353	87.011	
37.00	-67.361	70.946	
38.00	-64.416	68.699	
39.00	-64.022	76.530	
40.00	-63.288	79.205	
41.00	-64.954	73.271	
42.00	-64.538	73.859	
43.00	-65.415	87.955	
44.00	-66.155	72.963	
45.00	-65.419	66.219	
46.00	-68.273	64.209	
47.00	-66.066	83.335	
48.00	-65.864	83.489	
49.00	-66.432	83.663	
50.00	-66.890	86.412	
51.00	-65.304	76.420	
52.00	-64.741	64.942	
53.00	-65.816	76.843	
54.00	-67.416	69.918	
55.00	-70.509	92.119	
56.00	-72.356	105.953	
57.00	-84.896	-162.042	
58.00	-79.127	-137.936	
59.00	-73.243	-92.750	
60.00	-71.471	-111.706	
61.00	-71.310	-110.074	
62.00	-69.112	-106.555	
63.00	-67.701	-108.141	
64.00	-66.433	-106.878	
65.00	-65.714	-79.756	
66.00	-62.964	-72.446	
67.00	-63.950	-53.311	
68.00	-65.875	-19.323	
69.00	-65.952	-6.087	
70.00	-64.383	15.204	
71.00	-69.257	26.399	
72.00	-69.341	49.144	
73.00	-77.471	62.505	
74.00	-80.279	16.535	
75.00	-70.506	-47.895	
76.00	-73.800	-71.754	
77.00	-66.409	-21.488	
78.00	-73.969	-32.911	
79.00	-64.599	7.830	
80.00	-66.508	21.969	
81.00	-68.311	66.841	
82.00	-67.838	66.679	
83.00	-68.185	95.604	
84.00	-69.173	111.804	
85.00	-64.979	170.109	
86.00	-66.319	-174.037	
87.00	-63.720	-130.974	
88.00	-63.135	-144.203	
89.00	-63.839	-73.232	
90.00	-64.132	-62.422	
91.00	-61.324	-42.175	
92.00	-60.105	-31.335	
93.00	-59.014	-4.419	
94.00	-58.878	22.823	
95.00	-58.105	41.416	
96.00	-57.420	60.600	
97.00	-56.403	79.302	
98.00	-56.523	100.517	
99.00	-56.564	120.754	
100.00	-55.879	142.305	
101.00	-56.837	178.795	
102.00	-55.890	-166.431	
103.00	-55.924	-141.080	
104.00	-56.306	-121.959	
105.00	-57.617	-96.607	
106.00	-57.905	-76.060	
107.00	-59.666	-56.965	
108.00	-61.754	-33.902	
109.00	-64.747	3.447	
110.00	-66.748	45.368	
111.00	-66.474	107.223	
112.00	-62.847	143.866	
113.00	-60.593	162.913	
114.00	-59.159	-174.576	
115.00	-59.362	-162.428	
116.00	-60.147	-141.985	
117.00	-62.473	-123.245	
118.00	-65.785	-86.575	
119.00	-65.566	-32.888	
120.00	-61.770	5.577	
121.00	-58.044	29.067	
122.00	-56.152	46.058	
123.00	-54.816	55.244	
124.00	-54.216	70.387	
125.00	-53.872	80.324	
126.00	-53.662	96.434	
127.00	-53.707	107.842	
128.00	-54.331	122.033	
129.00	-54.919	135.444	
130.00	-56.223	151.022	
131.00	-58.949	159.540	
132.00	-64.718	162.285	
133.00	-68.478	75.235	
134.00	-59.616	52.664	
135.00	-54.029	57.602	
136.00	-50.985	66.236	
137.00	-48.906	78.214	
138.00	-47.493	91.120	
139.00	-46.902	105.392	
140.00	-46.740	118.686	
141.00	-47.378	131.603	
142.00	-48.566	146.759	
143.00	-51.053	167.175	
144.00	-54.263	-171.269	
145.00	-59.177	-139.582	
146.00	-60.699	-52.596	
147.00	-55.534	-11.739	
148.00	-52.362	11.391	
149.00	-50.553	25.894	
150.00	-49.232	39.095	
151.00	-48.788	48.860	
152.00	-48.560	60.820	
153.00	-49.075	70.644	
154.00	-49.781	76.510	
155.00	-50.458	85.067	
156.00	-51.302	94.813	
157.00	-52.314	104.813	
158.00	-53.911	116.183	
159.00	-56.229	123.053	
160.00	-61.264	130.392	
161.00	-75.778	102.862	
162.00	-61.315	-21.993	
163.00	-54.973	-18.060	
164.00	-52.005	-12.700	
165.00	-50.513	-6.249	
166.00	-50.485	-2.006	
167.00	-51.404	-0.203	
168.00	-53.601	-1.399	
169.00	-57.023	-1.634	
170.00	-61.390	7.993	
171.00	-59.509	38.865	
172.00	-52.398	53.518	
173.00	-46.372	56.456	
174.00	-41.549	59.054	
175.00	-37.773	60.472	
176.00	-34.947	60.624	
177.00	-32.766	60.866	
178.00	-31.303	61.298	
179.00	-30.412	61.822	
180.00	-30.104	62.071	
181.00	-30.358	61.520	
182.00	-31.230	61.836	
183.00	-32.676	62.547	
184.00	-34.980	64.535	
185.00	-38.348	68.801	
186.00	-43.124	79.537	
187.00	-48.822	116.239	
188.00	-48.676	169.716	
189.00	-46.462	-172.598	
190.00	-46.265	-163.809	
191.00	-47.565	-161.549	
192.00	-50.511	-154.732	
193.00	-55.313	-128.080	
194.00	-56.307	-86.565	
195.00	-55.302	-71.700	
196.00	-53.918	-75.414	
197.00	-55.889	-78.603	
198.00	-59.735	-102.843	
199.00	-66.760	175.709	
200.00	-57.426	99.062	
201.00	-52.063	79.873	
202.00	-49.585	55.890	
203.00	-47.035	33.733	
204.00	-46.495	13.980	
205.00	-45.314	-11.044	
206.00	-44.580	-30.333	
207.00	-43.859	-46.930	
208.00	-44.204	-63.891	
209.00	-44.803	-81.165	
210.00	-46.060	-95.517	
211.00	-48.600	-113.960	
212.00	-51.891	-136.743	
213.00	-58.990	-167.664	
214.00	-60.630	89.897	
215.00	-54.920	42.938	
216.00	-51.585	17.217	
217.00	-50.222	0.089	
218.00	-49.090	-18.089	
219.00	-48.723	-34.741	
220.00	-48.639	-48.687	
221.00	-49.183	-65.758	
222.00	-49.791	-80.194	
223.00	-50.705	-96.456	
224.00	-51.258	-108.457	
225.00	-51.607	-128.394	
226.00	-52.310	-145.133	
227.00	-51.975	-161.027	
228.00	-53.387	-170.938	
229.00	-53.130	171.787	
230.00	-53.801	152.866	
231.00	-54.896	141.108	
232.00	-57.185	132.178	
233.00	-60.287	135.050	
234.00	-64.405	155.364	
235.00	-60.087	-170.127	
236.00	-57.500	-162.407	
237.00	-55.444	-170.313	
238.00	-52.641	175.980	
239.00	-52.314	162.402	
240.00	-52.281	147.729	
241.00	-51.967	135.912	
242.00	-53.287	119.955	
243.00	-54.149	99.004	
244.00	-55.554	82.123	
245.00	-55.049	61.472	
246.00	-56.345	40.730	
247.00	-57.202	28.704	
248.00	-56.929	13.175	
249.00	-57.576	7.285	
250.00	-58.535	-4.719	
251.00	-59.093	-19.263	
252.00	-58.486	-28.002	
253.00	-58.236	-41.262	
254.00	-57.143	-62.892	
255.00	-56.523	-73.968	
256.00	-57.060	-104.910	
257.00	-58.372	-125.066	
258.00	-57.121	-148.595	
259.00	-56.228	-169.298	
260.00	-55.803	164.597	
261.00	-55.873	146.553	
262.00	-56.135	121.976	
263.00	-56.051	100.237	
264.00	-56.500	75.677	
265.00	-56.891	55.596	
266.00	-57.652	30.074	
267.00	-58.291	1.349	
268.00	-59.091	-18.995	
269.00	-60.370	-50.570	
270.00	-61.340	-66.542	
271.00	-62.109	-96.155	
272.00	-62.021	-120.599	
273.00	-64.384	-150.795	
274.00	-65.925	-166.413	
275.00	-68.893	162.583	
276.00	-69.181	133.629	
277.00	-67.604	109.057	
278.00	-71.119	46.088	
279.00	-70.578	-16.991	
280.00	-70.605	-28.151	
281.00	-70.948	-62.029	
282.00	-76.110	-66.833	
283.00	-71.416	-92.454	
284.00	-71.076	-138.655	
285.00	-72.815	-171.853	
286.00	-74.706	148.232	
287.00	-71.209	103.540	
288.00	-68.590	88.012	
289.00	-73.743	33.894	
290.00	-79.000	56.332	
291.00	-74.926	39.356	
292.00	-89.134	117.990	
293.00	-75.457	-165.060	
294.00	-74.583	159.122	
295.00	-68.502	156.660	
296.00	-77.556	138.296	
297.00	-72.833	86.744	
298.00	-74.002	40.093	
299.00	-68.536	36.014	
300.00	-67.700	16.430	
301.00	-67.633	-13.973	
302.00	-67.155	-15.283	
303.00	-67.947	-34.637	
304.00	-68.088	-36.467	
305.00	-70.622	-35.182	
306.00	-76.120	-14.052	
307.00	-76.078	-1.378	
308.00	-81.423	28.123	
309.00	-78.685	70.066	
310.00	-77.963	103.194	
311.00	-74.799	123.892	
312.00	-72.129	132.565	
313.00	-71.006	109.253	
314.00	-68.023	106.797	
315.00	-68.177	87.123	
316.00	-68.773	75.194	
317.00	-72.101	56.549	
318.00	-68.416	13.294	
319.00	-71.753	-32.625	
320.00	-69.563	-29.415	
321.00	-69.205	-63.198	
322.00	-67.199	-82.046	
323.00	-68.817	-91.598	
324.00	-70.193	-105.720	
325.00	-70.322	-111.569	
326.00	-71.871	-118.809	
327.00	-71.467	-113.065	
328.00	-72.986	-110.968	
329.00	-74.387	-100.628	
330.00	-72.401	-109.312	
331.00	-71.335	-132.749	
332.00	-71.539	-153.008	
333.00	-69.385	-167.557	
334.00	-68.353	173.765	
335.00	-66.568	158.533	
336.00	-66.675	142.416	
337.00	-65.380	139.887	
338.00	-65.753	121.571	
339.00	-65.709	142.826	
340.00	-66.653	123.059	
341.00	-72.271	115.235	
342.00	-76.171	105.134	
343.00	-76.385	-166.270	
344.00	-71.586	-146.931	
345.00	-69.370	-137.405	
346.00	-68.497	-148.514	
347.00	-70.034	-171.923	
348.00	-73.097	157.244	
349.00	-70.957	157.605	
350.00	-68.525	119.919	
351.00	-75.958	90.938	
352.00	-66.730	38.772	
353.00	-65.996	27.281	
354.00	-68.278	3.612	
355.00	-66.702	-0.739	
356.00	-68.049	-11.697	
357.00	-68.104	-5.844	
358.00	-72.452	-21.513	
359.00	-77.778	-47.198	
Frequency	2700.00	MHz	
Channel	test		
Scan Axis name	Azimuth  [deg]		
Scan Axis	Amplitude	Phase	
			
0.00	-62.375	90.319	
1.00	-60.608	76.733	
2.00	-59.492	88.093	
3.00	-62.972	69.878	
4.00	-65.999	73.755	
5.00	-67.846	51.189	
6.00	-67.509	-17.744	
7.00	-66.069	-5.983	
8.00	-69.058	-59.899	
9.00	-63.674	-73.926	
10.00	-65.752	-61.401	
11.00	-68.821	-73.872	
12.00	-67.143	-68.309	
13.00	-69.876	-66.003	
14.00	-73.623	-76.877	
15.00	-76.377	-96.798	
16.00	-76.651	-117.164	
17.00	-93.035	-121.993	
18.00	-77.140	115.018	
19.00	-65.993	117.102	
20.00	-71.382	135.958	
21.00	-64.661	131.390	
22.00	-65.887	117.516	
23.00	-64.888	127.526	
24.00	-65.691	109.503	
25.00	-65.430	93.751	
26.00	-68.400	60.998	
27.00	-68.537	82.016	
28.00	-68.424	27.675	
29.00	-69.010	43.293	
30.00	-62.918	59.790	
31.00	-68.554	22.325	
32.00	-66.651	54.185	
33.00	-66.311	59.174	
34.00	-68.050	135.776	
35.00	-67.607	115.977	
36.00	-67.984	109.203	
37.00	-70.782	-175.958	
38.00	-66.437	-162.919	
39.00	-73.029	155.965	
40.00	-69.089	-160.261	
41.00	-66.571	-173.290	
42.00	-68.849	-164.748	
43.00	-68.733	168.484	
44.00	-65.375	170.621	
45.00	-65.688	152.185	
46.00	-62.096	165.729	
47.00	-63.367	176.092	
48.00	-62.666	-177.149	
49.00	-61.819	-159.073	
50.00	-63.560	-156.906	
51.00	-65.105	-150.337	
52.00	-68.264	-155.935	
53.00	-68.266	-146.390	
54.00	-71.235	-145.765	
55.00	-77.577	-115.311	
56.00	-77.662	-140.912	
57.00	-80.255	-154.013	
58.00	-79.016	141.740	
59.00	-77.257	111.997	
60.00	-80.336	88.123	
61.00	-71.192	159.780	
62.00	-66.992	-173.640	
63.00	-69.311	-174.956	
64.00	-67.459	-178.787	
65.00	-66.608	-169.390	
66.00	-66.044	179.870	
67.00	-64.291	177.828	
68.00	-64.238	-178.779	
69.00	-65.163	175.999	
70.00	-64.319	-174.599	
71.00	-66.305	-166.886	
72.00	-71.014	162.245	
73.00	-71.711	103.642	
74.00	-69.448	84.967	
75.00	-64.061	104.784	
76.00	-63.146	98.573	
77.00	-62.686	117.714	
78.00	-62.660	127.515	
79.00	-64.790	151.539	
80.00	-63.013	-177.521	
81.00	-61.086	-162.126	
82.00	-65.769	-162.184	
83.00	-64.655	-165.506	
84.00	-64.708	-130.740	
85.00	-68.954	-122.141	
86.00	-68.179	-133.811	
87.00	-72.073	-100.175	
88.00	-70.236	-93.481	
89.00	-77.149	-77.039	
90.00	-68.550	25.306	
91.00	-74.098	21.121	
92.00	-67.576	38.894	
93.00	-66.311	51.388	
94.00	-62.434	81.051	
95.00	-61.183	94.152	
96.00	-61.630	101.834	
97.00	-60.528	120.317	
98.00	-60.151	158.556	
99.00	-60.077	-178.343	
100.00	-60.913	-157.999	
101.00	-60.520	-119.151	
102.00	-60.933	-96.949	
103.00	-61.162	-65.578	
104.00	-60.368	-38.309	
105.00	-60.687	-10.613	
106.00	-59.867	9.450	
107.00	-61.467	35.518	
108.00	-64.324	62.436	
109.00	-65.709	106.631	
110.00	-68.084	131.663	
111.00	-62.968	-177.462	
112.00	-63.950	-136.566	
113.00	-60.536	-130.209	
114.00	-64.172	-109.243	
115.00	-63.895	-77.712	
116.00	-65.832	-49.634	
117.00	-68.138	9.973	
118.00	-64.321	61.656	
119.00	-59.370	78.174	
120.00	-55.889	92.877	
121.00	-53.445	101.611	
122.00	-52.234	116.119	
123.00	-51.460	129.199	
124.00	-50.888	142.751	
125.00	-50.230	159.167	
126.00	-50.669	178.563	
127.00	-50.811	-166.808	
128.00	-50.230	-146.727	
129.00	-50.847	-132.903	
130.00	-51.519	-117.138	
131.00	-53.430	-105.339	
132.00	-56.985	-94.087	
133.00	-63.407	-113.667	
134.00	-62.140	168.413	
135.00	-55.601	161.260	
136.00	-51.828	168.009	
137.00	-49.299	178.832	
138.00	-48.138	-171.451	
139.00	-47.050	-161.561	
140.00	-47.265	-150.320	
141.00	-48.036	-144.453	
142.00	-49.466	-138.955	
143.00	-51.852	-140.194	
144.00	-54.765	-153.953	
145.00	-54.152	174.613	
146.00	-53.533	158.968	
147.00	-51.577	154.767	
148.00	-50.298	159.426	
149.00	-49.716	163.227	
150.00	-49.346	165.912	
151.00	-49.631	171.129	
152.00	-49.792	174.627	
153.00	-50.388	172.845	
154.00	-50.547	174.586	
155.00	-50.664	178.881	
156.00	-50.557	179.258	
157.00	-51.172	-174.528	
158.00	-51.986	-174.797	
159.00	-53.187	178.837	
160.00	-55.934	172.291	
161.00	-56.548	142.465	
162.00	-53.902	120.182	
163.00	-51.050	112.443	
164.00	-49.233	112.132	
165.00	-48.684	112.344	
166.00	-49.552	113.957	
167.00	-51.856	111.532	
168.00	-56.456	106.642	
169.00	-69.530	72.727	
170.00	-70.838	-30.030	
171.00	-66.423	-119.391	
172.00	-54.347	179.024	
173.00	-45.836	166.837	
174.00	-40.318	165.251	
175.00	-36.095	165.600	
176.00	-33.189	164.138	
177.00	-31.094	163.979	
178.00	-29.683	164.204	
179.00	-28.926	164.820	
180.00	-28.792	164.639	
181.00	-29.246	163.823	
182.00	-30.365	163.583	
183.00	-32.316	163.911	
184.00	-35.176	165.182	
185.00	-39.426	168.031	
186.00	-46.051	-178.231	
187.00	-52.499	-111.035	
188.00	-47.709	-66.612	
189.00	-45.431	-59.639	
190.00	-45.949	-61.441	
191.00	-48.075	-65.431	
192.00	-52.238	-74.822	
193.00	-58.584	-91.506	
194.00	-72.688	-78.544	
195.00	-68.827	69.412	
196.00	-61.510	24.693	
197.00	-62.427	-37.707	
198.00	-62.054	-61.329	
199.00	-64.874	-94.743	
200.00	-61.964	-149.739	
201.00	-56.695	150.216	
202.00	-52.113	132.169	
203.00	-48.128	104.671	
204.00	-44.886	81.651	
205.00	-43.031	71.794	
206.00	-42.063	60.887	
207.00	-42.082	48.530	
208.00	-43.065	36.643	
209.00	-45.069	18.746	
210.00	-48.363	8.334	
211.00	-53.451	-10.522	
212.00	-69.770	-76.151	
213.00	-55.918	164.503	
214.00	-50.337	153.576	
215.00	-48.024	140.720	
216.00	-46.504	124.677	
217.00	-46.436	112.180	
218.00	-46.638	97.653	
219.00	-47.045	84.316	
220.00	-47.584	69.407	
221.00	-48.893	55.448	
222.00	-49.197	38.023	
223.00	-49.930	24.882	
224.00	-50.397	5.343	
225.00	-50.982	-13.524	
226.00	-51.549	-25.447	
227.00	-52.167	-46.633	
228.00	-52.637	-58.379	
229.00	-53.625	-76.469	
230.00	-54.260	-91.242	
231.00	-56.251	-98.724	
232.00	-56.594	-106.305	
233.00	-57.080	-104.249	
234.00	-57.657	-101.004	
235.00	-56.383	-102.853	
236.00	-55.933	-105.885	
237.00	-54.738	-108.263	
238.00	-53.996	-116.048	
239.00	-56.282	-125.972	
240.00	-55.352	-138.101	
241.00	-56.678	-144.270	
242.00	-56.944	-149.943	
243.00	-58.075	-164.797	
244.00	-58.580	-160.730	
245.00	-61.804	-155.387	
246.00	-59.317	-170.172	
247.00	-58.129	175.521	
248.00	-56.861	166.904	
249.00	-56.417	144.346	
250.00	-55.520	126.345	
251.00	-55.202	99.402	
252.00	-54.711	70.404	
253.00	-53.736	56.462	
254.00	-53.036	25.355	
255.00	-53.072	1.880	
256.00	-53.179	-13.908	
257.00	-53.401	-36.044	
258.00	-53.442	-57.919	
259.00	-53.079	-79.990	
260.00	-54.133	-104.906	
261.00	-54.454	-127.280	
262.00	-55.410	-149.342	
263.00	-56.381	-178.586	
264.00	-58.316	152.972	
265.00	-58.975	126.932	
266.00	-59.249	94.255	
267.00	-60.639	64.454	
268.00	-61.576	39.526	
269.00	-61.951	4.824	
270.00	-61.370	-26.749	
271.00	-63.014	-54.541	
272.00	-63.799	-93.329	
273.00	-62.400	-120.008	
274.00	-63.984	-129.725	
275.00	-63.692	-164.993	
276.00	-63.344	158.494	
277.00	-61.830	138.847	
278.00	-63.768	119.410	
279.00	-65.807	88.894	
280.00	-67.531	120.022	
281.00	-66.911	59.017	
282.00	-82.470	1.089	
283.00	-108.018	-167.242	
284.00	-84.783	-17.713	
285.00	-74.702	137.440	
286.00	-89.830	-129.379	
287.00	-83.038	178.861	
288.00	-86.542	-35.631	
289.00	-76.099	-42.734	
290.00	-70.484	-54.335	
291.00	-66.179	-47.785	
292.00	-66.844	-68.970	
293.00	-68.142	-112.692	
294.00	-66.474	-135.901	
295.00	-68.422	-141.032	
296.00	-66.975	-177.770	
297.00	-67.095	177.537	
298.00	-70.383	160.567	
299.00	-73.576	166.928	
300.00	-77.655	133.762	
301.00	-81.959	176.982	
302.00	-77.709	-125.665	
303.00	-77.113	-166.112	
304.00	-75.894	-171.050	
305.00	-80.949	-178.314	
306.00	-75.919	177.507	
307.00	-80.374	160.724	
308.00	-88.407	156.512	
309.00	-81.247	-92.904	
310.00	-71.752	-103.204	
311.00	-70.009	-113.167	
312.00	-69.045	-134.241	
313.00	-69.810	-150.065	
314.00	-71.279	-168.780	
315.00	-70.252	165.497	
316.00	-73.001	113.866	
317.00	-69.264	101.361	
318.00	-69.232	93.066	
319.00	-69.357	95.761	
320.00	-68.243	87.732	
321.00	-68.556	113.867	
322.00	-66.719	104.725	
323.00	-67.297	97.039	
324.00	-65.877	96.494	
325.00	-65.481	91.072	
326.00	-65.807	74.369	
327.00	-65.473	53.401	
328.00	-68.345	35.646	
329.00	-67.577	7.489	
330.00	-68.538	-30.816	
331.00	-70.116	-40.875	
332.00	-71.942	-58.511	
333.00	-68.438	-83.404	
334.00	-67.445	-80.852	
335.00	-66.465	-99.558	
336.00	-63.967	-113.270	
337.00	-65.082	-109.597	
338.00	-64.550	-145.298	
339.00	-65.921	-131.182	
340.00	-81.100	-133.641	
341.00	-75.263	-124.182	
342.00	-79.969	55.594	
343.00	-68.102	-0.087	
344.00	-67.379	4.954	
345.00	-66.608	-18.130	
346.00	-68.019	-23.199	
347.00	-68.286	-45.690	
348.00	-69.156	-72.543	
349.00	-69.451	-96.303	
350.00	-75.063	-173.530	
351.00	-71.198	-110.204	
352.00	-78.279	111.689	
353.00	-76.117	-147.182	
354.00	-75.644	108.278	
355.00	-73.735	100.248	
356.00	-66.876	83.656	
357.00	-65.618	76.082	
358.00	-64.463	103.029	
359.00	-61.553	80.412	
