Test Title:	Alpha Wireless Indoor Range						
Date:	03/11/2017						
Time:	10:03						
Operator Name:	FL						
Comment:	Version 2 Run 2
Cable length changed						
Caib. File Name:	C:\Program Files\Midas 2.01d\Calibration Files\test sigma 180900.cal						
							
[Scan Axis] Name: 	Azimuth  [deg]Start: 	0.000000	Stop	359.000000	Increment	1.000000[Step Axis] Name: 	Start: 	0.000000	Stop	0.000000	Increment	0.000000[Tert] Name: 	None [Forth] Name: 	None  [ Freq.]  (List) 	MHz.	1694.000000	1710.000000	1800.000000	1850.000000	1950.000000	2050.000000	2170.000000	2300.000000	2350.000000	2400.000000	2450.000000	2496.000000	2550.000000	2600.000000	2650.000000	2700.000000
 [Switch]  	None [Channel]  	test			 [ Beam] 	None			
Database:			
First Question			
2nd			
3rd			
4th			
			
Frequency	1694.00	MHz	
Channel	test		
Scan Axis name	Azimuth  [deg]		
Scan Axis	Amplitude	Phase	
			
0.00	-76.064	-73.531	
1.00	-70.019	-61.515	
2.00	-67.572	-79.887	
3.00	-67.876	-80.296	
4.00	-67.022	-86.088	
5.00	-65.170	-92.881	
6.00	-63.243	-95.904	
7.00	-62.413	-98.895	
8.00	-61.965	-102.873	
9.00	-61.555	-115.538	
10.00	-62.800	-127.604	
11.00	-62.015	-136.945	
12.00	-60.451	-135.092	
13.00	-60.092	-144.236	
14.00	-59.306	-145.630	
15.00	-59.263	-147.150	
16.00	-57.631	-154.572	
17.00	-57.273	-159.134	
18.00	-55.896	-156.905	
19.00	-55.437	-160.842	
20.00	-54.616	-152.717	
21.00	-54.458	-156.419	
22.00	-53.485	-154.504	
23.00	-53.806	-157.542	
24.00	-53.475	-146.239	
25.00	-53.184	-151.133	
26.00	-53.026	-145.906	
27.00	-52.694	-140.429	
28.00	-52.633	-139.874	
29.00	-52.357	-135.088	
30.00	-52.889	-129.209	
31.00	-52.572	-118.533	
32.00	-52.752	-115.118	
33.00	-53.427	-109.612	
34.00	-53.300	-103.623	
35.00	-53.871	-95.082	
36.00	-54.459	-87.628	
37.00	-54.725	-85.422	
38.00	-55.101	-73.474	
39.00	-55.794	-66.521	
40.00	-56.364	-47.322	
41.00	-57.278	-31.854	
42.00	-57.228	-23.591	
43.00	-56.906	-5.365	
44.00	-57.321	2.490	
45.00	-57.236	14.165	
46.00	-58.104	32.858	
47.00	-56.651	49.529	
48.00	-56.746	70.454	
49.00	-55.865	85.583	
50.00	-55.050	92.129	
51.00	-54.043	107.046	
52.00	-53.029	117.515	
53.00	-52.947	133.806	
54.00	-52.740	138.845	
55.00	-52.334	153.280	
56.00	-50.893	164.631	
57.00	-51.134	173.395	
58.00	-50.198	-173.076	
59.00	-50.399	-166.157	
60.00	-50.512	-153.363	
61.00	-50.052	-142.586	
62.00	-49.969	-130.359	
63.00	-49.594	-120.699	
64.00	-50.242	-110.447	
65.00	-50.420	-100.569	
66.00	-50.841	-83.452	
67.00	-50.493	-76.812	
68.00	-50.625	-60.051	
69.00	-50.629	-47.015	
70.00	-50.734	-29.509	
71.00	-50.579	-13.720	
72.00	-49.787	-0.329	
73.00	-49.383	13.992	
74.00	-49.437	23.404	
75.00	-49.284	38.987	
76.00	-48.794	49.146	
77.00	-48.499	59.639	
78.00	-48.000	69.429	
79.00	-48.539	80.012	
80.00	-48.876	91.947	
81.00	-48.857	103.348	
82.00	-48.943	113.690	
83.00	-49.870	128.960	
84.00	-50.249	142.582	
85.00	-50.498	156.190	
86.00	-50.689	170.429	
87.00	-51.050	-173.596	
88.00	-51.293	-156.131	
89.00	-50.616	-140.481	
90.00	-51.188	-127.395	
91.00	-50.378	-111.147	
92.00	-50.707	-99.576	
93.00	-50.900	-76.946	
94.00	-51.009	-65.356	
95.00	-50.793	-52.077	
96.00	-51.567	-36.703	
97.00	-51.023	-15.335	
98.00	-51.322	4.285	
99.00	-51.398	22.340	
100.00	-49.305	39.306	
101.00	-50.602	55.762	
102.00	-50.413	70.509	
103.00	-49.699	89.641	
104.00	-49.068	102.970	
105.00	-48.933	115.675	
106.00	-48.648	130.900	
107.00	-48.635	144.475	
108.00	-47.975	156.710	
109.00	-47.973	170.544	
110.00	-47.648	-176.475	
111.00	-47.689	-162.657	
112.00	-47.208	-146.504	
113.00	-47.154	-132.651	
114.00	-47.087	-119.314	
115.00	-46.709	-100.595	
116.00	-46.762	-91.622	
117.00	-46.759	-75.788	
118.00	-46.608	-65.054	
119.00	-45.825	-50.659	
120.00	-45.836	-36.521	
121.00	-45.325	-24.117	
122.00	-45.182	-13.398	
123.00	-44.908	1.433	
124.00	-44.542	13.959	
125.00	-44.209	24.003	
126.00	-43.903	35.390	
127.00	-43.812	46.672	
128.00	-43.757	58.998	
129.00	-43.742	71.351	
130.00	-43.676	84.062	
131.00	-43.634	89.381	
132.00	-43.681	102.462	
133.00	-43.596	110.957	
134.00	-43.707	123.319	
135.00	-43.891	131.075	
136.00	-43.893	143.086	
137.00	-43.989	153.512	
138.00	-44.167	164.320	
139.00	-44.211	175.270	
140.00	-43.960	-179.108	
141.00	-44.167	-167.298	
142.00	-44.184	-160.468	
143.00	-44.245	-152.349	
144.00	-44.204	-145.541	
145.00	-44.146	-139.590	
146.00	-44.330	-131.587	
147.00	-44.235	-125.859	
148.00	-44.444	-119.224	
149.00	-44.348	-113.702	
150.00	-44.699	-108.119	
151.00	-44.416	-103.521	
152.00	-44.529	-98.434	
153.00	-44.584	-94.390	
154.00	-44.526	-87.667	
155.00	-44.550	-84.019	
156.00	-44.577	-76.901	
157.00	-44.362	-72.217	
158.00	-44.245	-66.480	
159.00	-44.395	-61.244	
160.00	-44.193	-56.967	
161.00	-43.874	-52.715	
162.00	-43.733	-46.780	
163.00	-43.607	-48.341	
164.00	-43.615	-42.206	
165.00	-43.467	-36.573	
166.00	-43.022	-34.110	
167.00	-43.098	-28.992	
168.00	-42.964	-26.838	
169.00	-42.661	-21.010	
170.00	-42.523	-16.573	
171.00	-42.523	-14.289	
172.00	-42.309	-10.541	
173.00	-42.022	-3.861	
174.00	-41.977	-2.955	
175.00	-41.880	5.617	
176.00	-41.652	4.969	
177.00	-41.522	8.189	
178.00	-41.256	16.555	
179.00	-41.088	17.553	
180.00	-40.886	23.583	
181.00	-40.782	25.493	
182.00	-40.431	29.558	
183.00	-40.238	32.377	
184.00	-40.026	38.547	
185.00	-39.872	38.263	
186.00	-39.428	40.865	
187.00	-39.267	42.828	
188.00	-39.142	47.740	
189.00	-38.852	46.712	
190.00	-38.786	46.352	
191.00	-38.672	47.063	
192.00	-38.447	47.977	
193.00	-38.404	48.708	
194.00	-38.297	46.715	
195.00	-38.165	43.752	
196.00	-38.229	44.808	
197.00	-38.122	44.636	
198.00	-38.176	39.407	
199.00	-38.234	38.580	
200.00	-38.218	35.560	
201.00	-38.214	34.830	
202.00	-38.217	32.496	
203.00	-38.480	27.217	
204.00	-38.511	23.179	
205.00	-38.589	14.042	
206.00	-38.778	11.620	
207.00	-39.048	7.395	
208.00	-39.042	2.693	
209.00	-39.058	-1.137	
210.00	-39.143	-3.696	
211.00	-39.435	-14.591	
212.00	-39.407	-15.753	
213.00	-39.384	-26.820	
214.00	-39.845	-29.757	
215.00	-39.903	-36.251	
216.00	-40.042	-45.338	
217.00	-40.142	-52.149	
218.00	-40.270	-61.453	
219.00	-40.344	-65.191	
220.00	-40.549	-71.793	
221.00	-40.695	-78.377	
222.00	-40.716	-85.661	
223.00	-41.044	-92.333	
224.00	-41.179	-98.350	
225.00	-41.259	-106.578	
226.00	-41.695	-116.671	
227.00	-41.954	-120.832	
228.00	-42.394	-130.008	
229.00	-42.587	-134.865	
230.00	-43.002	-144.440	
231.00	-43.266	-154.508	
232.00	-43.796	-160.956	
233.00	-44.223	-172.268	
234.00	-44.585	179.921	
235.00	-45.100	168.872	
236.00	-45.597	161.143	
237.00	-46.017	151.334	
238.00	-46.844	139.844	
239.00	-47.468	132.247	
240.00	-47.519	118.235	
241.00	-48.427	107.555	
242.00	-48.614	97.167	
243.00	-49.099	87.850	
244.00	-49.669	72.166	
245.00	-49.676	64.827	
246.00	-49.498	48.739	
247.00	-49.776	38.578	
248.00	-49.744	29.598	
249.00	-49.806	16.487	
250.00	-50.464	3.470	
251.00	-50.795	-6.537	
252.00	-50.759	-15.740	
253.00	-52.070	-25.171	
254.00	-52.318	-46.703	
255.00	-52.838	-57.458	
256.00	-53.640	-71.687	
257.00	-54.675	-85.993	
258.00	-55.568	-99.370	
259.00	-55.151	-119.547	
260.00	-55.772	-138.486	
261.00	-56.031	-152.265	
262.00	-55.562	-168.640	
263.00	-55.558	167.986	
264.00	-55.445	156.372	
265.00	-54.509	140.045	
266.00	-54.755	125.702	
267.00	-54.249	107.220	
268.00	-53.571	98.641	
269.00	-53.803	80.906	
270.00	-53.639	70.853	
271.00	-53.287	60.193	
272.00	-53.894	51.186	
273.00	-53.507	38.169	
274.00	-54.022	29.489	
275.00	-54.657	17.089	
276.00	-55.085	9.952	
277.00	-56.984	-3.511	
278.00	-58.382	-15.881	
279.00	-59.855	-28.862	
280.00	-62.698	-47.940	
281.00	-64.071	-77.779	
282.00	-66.373	-117.015	
283.00	-64.471	-157.074	
284.00	-63.174	174.415	
285.00	-59.986	150.782	
286.00	-58.725	141.902	
287.00	-58.094	126.715	
288.00	-56.818	114.523	
289.00	-56.472	104.338	
290.00	-56.524	90.435	
291.00	-56.634	80.721	
292.00	-56.600	62.553	
293.00	-56.933	47.525	
294.00	-57.358	29.313	
295.00	-57.025	12.092	
296.00	-57.442	2.321	
297.00	-57.349	-15.078	
298.00	-57.373	-30.507	
299.00	-57.365	-50.690	
300.00	-57.306	-72.341	
301.00	-56.881	-86.645	
302.00	-56.071	-100.720	
303.00	-56.114	-113.891	
304.00	-55.119	-129.661	
305.00	-54.976	-142.019	
306.00	-54.726	-150.711	
307.00	-54.433	-165.696	
308.00	-54.059	-175.840	
309.00	-53.539	171.345	
310.00	-54.177	159.941	
311.00	-54.439	148.443	
312.00	-54.603	133.565	
313.00	-54.666	124.670	
314.00	-55.209	109.392	
315.00	-55.082	89.124	
316.00	-54.732	73.890	
317.00	-55.471	64.271	
318.00	-53.829	53.961	
319.00	-53.326	34.513	
320.00	-53.969	26.698	
321.00	-53.464	9.558	
322.00	-53.720	3.336	
323.00	-52.279	-15.308	
324.00	-52.785	-26.339	
325.00	-52.916	-34.977	
326.00	-51.848	-40.318	
327.00	-51.243	-50.342	
328.00	-51.902	-59.896	
329.00	-51.609	-66.394	
330.00	-52.206	-77.964	
331.00	-51.966	-89.442	
332.00	-52.189	-100.675	
333.00	-52.410	-107.996	
334.00	-53.032	-119.274	
335.00	-52.563	-127.285	
336.00	-53.214	-138.811	
337.00	-53.606	-149.370	
338.00	-53.456	-157.766	
339.00	-54.388	-168.333	
340.00	-54.216	-178.961	
341.00	-54.085	174.700	
342.00	-53.740	168.426	
343.00	-54.586	159.313	
344.00	-54.644	155.897	
345.00	-54.896	147.813	
346.00	-55.044	142.473	
347.00	-55.063	139.379	
348.00	-55.875	139.830	
349.00	-56.586	123.989	
350.00	-58.019	135.288	
351.00	-58.731	123.467	
352.00	-59.391	134.534	
353.00	-60.244	121.966	
354.00	-61.721	130.679	
355.00	-63.618	119.326	
356.00	-65.108	135.585	
357.00	-69.497	125.176	
358.00	-70.076	161.839	
359.00	-83.975	-150.377	
Frequency	1710.00	MHz	
Channel	test		
Scan Axis name	Azimuth  [deg]		
Scan Axis	Amplitude	Phase	
			
0.00	-77.341	-72.614	
1.00	-73.790	-55.686	
2.00	-66.258	-46.479	
3.00	-65.692	-72.295	
4.00	-68.790	-39.192	
5.00	-69.552	-43.303	
6.00	-66.188	-72.264	
7.00	-76.420	-33.872	
8.00	-64.015	5.512	
9.00	-65.026	2.943	
10.00	-70.031	47.492	
11.00	-73.421	4.235	
12.00	-71.685	-8.249	
13.00	-66.109	91.221	
14.00	-65.699	80.692	
15.00	-67.339	130.016	
16.00	-64.304	117.185	
17.00	-64.096	117.184	
18.00	-63.069	113.480	
19.00	-60.629	125.727	
20.00	-58.389	134.260	
21.00	-57.618	142.482	
22.00	-56.377	142.491	
23.00	-55.575	148.278	
24.00	-56.265	157.091	
25.00	-53.618	151.275	
26.00	-52.764	161.775	
27.00	-52.996	161.519	
28.00	-52.379	167.491	
29.00	-52.083	174.796	
30.00	-51.982	170.725	
31.00	-52.571	178.179	
32.00	-52.184	-166.059	
33.00	-52.687	-159.808	
34.00	-52.083	-156.305	
35.00	-53.180	-147.307	
36.00	-53.466	-146.232	
37.00	-53.526	-135.759	
38.00	-54.057	-114.293	
39.00	-54.818	-110.530	
40.00	-54.569	-91.671	
41.00	-55.104	-70.872	
42.00	-53.953	-55.757	
43.00	-53.529	-38.938	
44.00	-54.058	-20.679	
45.00	-52.457	-18.675	
46.00	-52.179	-9.610	
47.00	-51.573	5.887	
48.00	-50.236	16.398	
49.00	-49.543	20.654	
50.00	-49.132	26.990	
51.00	-50.291	41.536	
52.00	-49.890	47.503	
53.00	-49.394	60.648	
54.00	-50.203	63.170	
55.00	-49.992	82.913	
56.00	-50.557	92.294	
57.00	-51.000	109.258	
58.00	-50.772	126.503	
59.00	-51.438	132.840	
60.00	-50.665	144.430	
61.00	-51.710	164.569	
62.00	-50.345	-179.249	
63.00	-50.107	-175.495	
64.00	-49.776	-147.903	
65.00	-50.117	-139.891	
66.00	-51.371	-130.336	
67.00	-49.693	-119.130	
68.00	-49.922	-101.740	
69.00	-48.757	-86.156	
70.00	-50.152	-78.700	
71.00	-49.866	-60.630	
72.00	-50.028	-46.326	
73.00	-50.922	-36.888	
74.00	-50.198	-17.419	
75.00	-51.842	-9.188	
76.00	-51.880	2.613	
77.00	-51.166	15.597	
78.00	-51.892	37.201	
79.00	-52.954	42.942	
80.00	-52.261	55.283	
81.00	-52.757	61.971	
82.00	-52.603	91.449	
83.00	-53.445	100.457	
84.00	-55.113	116.678	
85.00	-55.175	139.261	
86.00	-57.206	146.929	
87.00	-57.300	170.527	
88.00	-58.608	178.612	
89.00	-58.893	-141.290	
90.00	-56.840	-120.618	
91.00	-54.847	-106.438	
92.00	-53.189	-81.207	
93.00	-54.007	-73.266	
94.00	-54.483	-51.522	
95.00	-54.477	-33.395	
96.00	-54.355	-31.569	
97.00	-53.988	-19.874	
98.00	-52.521	5.387	
99.00	-53.513	28.540	
100.00	-53.576	41.180	
101.00	-52.324	58.437	
102.00	-52.002	74.571	
103.00	-51.083	87.058	
104.00	-51.226	99.052	
105.00	-50.506	114.787	
106.00	-50.159	127.923	
107.00	-50.234	144.618	
108.00	-49.384	150.553	
109.00	-49.020	166.076	
110.00	-48.741	-176.837	
111.00	-48.597	-165.812	
112.00	-48.897	-152.577	
113.00	-48.763	-140.945	
114.00	-48.159	-128.514	
115.00	-47.845	-113.525	
116.00	-47.726	-103.371	
117.00	-47.479	-92.871	
118.00	-47.316	-86.656	
119.00	-47.316	-71.419	
120.00	-46.687	-58.692	
121.00	-46.423	-51.952	
122.00	-46.302	-41.792	
123.00	-46.833	-28.292	
124.00	-46.674	-17.456	
125.00	-46.724	-14.220	
126.00	-46.390	4.732	
127.00	-46.667	13.644	
128.00	-47.150	27.598	
129.00	-46.684	36.752	
130.00	-46.520	50.875	
131.00	-46.649	56.667	
132.00	-46.093	70.542	
133.00	-46.014	77.303	
134.00	-45.785	90.053	
135.00	-45.527	95.423	
136.00	-45.342	104.826	
137.00	-45.172	113.332	
138.00	-45.288	121.286	
139.00	-45.262	129.136	
140.00	-45.117	133.358	
141.00	-44.963	142.015	
142.00	-45.011	146.290	
143.00	-44.714	153.925	
144.00	-44.622	158.852	
145.00	-44.458	165.623	
146.00	-44.222	172.305	
147.00	-44.062	179.123	
148.00	-43.677	-174.522	
149.00	-43.776	-169.454	
150.00	-43.653	-161.210	
151.00	-43.208	-156.827	
152.00	-42.899	-150.785	
153.00	-42.320	-145.808	
154.00	-42.540	-140.492	
155.00	-42.180	-134.223	
156.00	-41.706	-126.524	
157.00	-41.618	-120.220	
158.00	-41.316	-114.008	
159.00	-41.068	-107.541	
160.00	-41.052	-101.411	
161.00	-40.626	-96.305	
162.00	-40.477	-89.045	
163.00	-40.364	-88.025	
164.00	-39.990	-82.050	
165.00	-39.996	-75.678	
166.00	-39.897	-71.089	
167.00	-39.712	-64.826	
168.00	-39.683	-63.115	
169.00	-39.637	-55.677	
170.00	-39.658	-51.281	
171.00	-39.584	-47.636	
172.00	-39.582	-43.131	
173.00	-39.614	-37.476	
174.00	-39.508	-35.813	
175.00	-39.497	-27.489	
176.00	-39.611	-28.465	
177.00	-39.476	-25.952	
178.00	-39.420	-17.843	
179.00	-39.499	-14.887	
180.00	-39.376	-9.436	
181.00	-39.357	-7.946	
182.00	-39.311	-3.950	
183.00	-39.096	-0.222	
184.00	-39.068	5.461	
185.00	-38.905	6.236	
186.00	-38.679	9.624	
187.00	-38.541	11.274	
188.00	-38.354	15.768	
189.00	-38.210	15.405	
190.00	-38.089	15.419	
191.00	-37.961	15.510	
192.00	-37.779	16.638	
193.00	-37.648	17.585	
194.00	-37.617	15.256	
195.00	-37.433	13.097	
196.00	-37.298	12.834	
197.00	-37.090	13.102	
198.00	-37.033	6.886	
199.00	-37.036	6.489	
200.00	-36.937	2.405	
201.00	-36.833	1.844	
202.00	-36.867	-0.442	
203.00	-36.984	-6.870	
204.00	-37.091	-9.199	
205.00	-37.075	-20.439	
206.00	-37.204	-21.765	
207.00	-37.263	-27.612	
208.00	-37.321	-31.437	
209.00	-37.538	-35.560	
210.00	-37.554	-38.713	
211.00	-37.645	-48.392	
212.00	-37.827	-49.958	
213.00	-37.942	-60.870	
214.00	-38.274	-64.675	
215.00	-38.403	-71.288	
216.00	-38.555	-79.428	
217.00	-38.771	-86.968	
218.00	-39.113	-96.959	
219.00	-39.197	-99.882	
220.00	-39.485	-107.264	
221.00	-39.671	-114.235	
222.00	-39.955	-123.508	
223.00	-40.348	-129.676	
224.00	-40.568	-136.747	
225.00	-40.930	-145.995	
226.00	-41.369	-157.113	
227.00	-41.596	-162.571	
228.00	-41.933	-171.601	
229.00	-42.326	-177.178	
230.00	-42.788	172.788	
231.00	-43.079	164.021	
232.00	-43.603	156.452	
233.00	-44.183	143.485	
234.00	-44.757	137.515	
235.00	-45.254	126.466	
236.00	-45.846	117.579	
237.00	-46.811	107.307	
238.00	-47.540	96.084	
239.00	-48.090	86.587	
240.00	-48.804	76.184	
241.00	-49.435	63.560	
242.00	-50.190	47.208	
243.00	-49.562	33.185	
244.00	-49.646	21.629	
245.00	-49.466	9.390	
246.00	-49.163	-3.576	
247.00	-49.026	-13.481	
248.00	-48.411	-22.751	
249.00	-48.491	-32.643	
250.00	-48.264	-42.540	
251.00	-48.110	-50.530	
252.00	-48.457	-63.323	
253.00	-48.988	-67.155	
254.00	-48.415	-81.711	
255.00	-49.504	-90.343	
256.00	-49.508	-101.165	
257.00	-50.049	-112.528	
258.00	-50.116	-123.272	
259.00	-51.282	-134.963	
260.00	-51.096	-146.905	
261.00	-51.584	-163.208	
262.00	-51.889	-172.028	
263.00	-52.133	173.397	
264.00	-52.195	160.372	
265.00	-52.692	143.015	
266.00	-52.695	132.439	
267.00	-53.447	117.316	
268.00	-53.995	105.399	
269.00	-55.111	86.438	
270.00	-55.891	68.418	
271.00	-56.126	50.144	
272.00	-56.712	32.190	
273.00	-55.968	6.580	
274.00	-55.655	-10.218	
275.00	-54.677	-30.976	
276.00	-53.938	-40.757	
277.00	-53.160	-54.864	
278.00	-52.863	-68.373	
279.00	-52.548	-77.248	
280.00	-52.631	-90.605	
281.00	-52.769	-101.182	
282.00	-53.114	-115.101	
283.00	-53.105	-131.224	
284.00	-54.357	-140.966	
285.00	-55.152	-168.387	
286.00	-55.437	164.713	
287.00	-55.495	152.900	
288.00	-54.697	128.674	
289.00	-55.014	115.257	
290.00	-54.548	103.766	
291.00	-54.062	92.142	
292.00	-54.047	77.998	
293.00	-53.570	69.236	
294.00	-53.939	56.732	
295.00	-54.466	46.821	
296.00	-55.752	41.379	
297.00	-56.390	32.972	
298.00	-57.648	25.886	
299.00	-59.871	12.023	
300.00	-64.328	2.665	
301.00	-72.330	-32.928	
302.00	-73.139	-139.809	
303.00	-64.429	-172.793	
304.00	-60.041	173.435	
305.00	-57.779	165.160	
306.00	-55.108	156.602	
307.00	-53.641	151.171	
308.00	-52.466	144.994	
309.00	-51.495	135.889	
310.00	-50.610	128.661	
311.00	-50.687	122.607	
312.00	-50.479	115.107	
313.00	-51.084	112.776	
314.00	-50.564	101.138	
315.00	-51.046	97.025	
316.00	-51.664	89.979	
317.00	-52.779	80.154	
318.00	-53.355	75.372	
319.00	-55.512	59.109	
320.00	-55.925	53.353	
321.00	-58.263	38.213	
322.00	-61.062	25.635	
323.00	-61.986	-9.669	
324.00	-63.190	-38.522	
325.00	-61.180	-69.070	
326.00	-59.138	-93.252	
327.00	-58.132	-108.614	
328.00	-56.318	-128.086	
329.00	-54.796	-132.551	
330.00	-53.268	-143.463	
331.00	-52.072	-147.576	
332.00	-51.546	-157.524	
333.00	-51.020	-163.489	
334.00	-50.322	-173.373	
335.00	-50.081	-179.690	
336.00	-50.166	178.155	
337.00	-49.873	170.950	
338.00	-49.434	166.856	
339.00	-49.554	165.979	
340.00	-49.772	158.799	
341.00	-49.235	153.752	
342.00	-49.276	146.592	
343.00	-49.903	144.842	
344.00	-50.259	142.767	
345.00	-50.268	138.925	
346.00	-51.023	141.455	
347.00	-52.033	133.809	
348.00	-52.635	137.821	
349.00	-53.343	126.818	
350.00	-53.929	136.830	
351.00	-56.198	129.708	
352.00	-57.036	128.416	
353.00	-59.386	136.006	
354.00	-58.509	124.728	
355.00	-63.657	123.119	
356.00	-66.599	93.543	
357.00	-71.967	87.609	
358.00	-67.742	89.530	
359.00	-71.599	87.322	
Frequency	1800.00	MHz	
Channel	test		
Scan Axis name	Azimuth  [deg]		
Scan Axis	Amplitude	Phase	
			
0.00	-57.383	-106.631	
1.00	-57.596	-96.654	
2.00	-57.874	-95.737	
3.00	-58.293	-90.833	
4.00	-58.381	-88.498	
5.00	-59.213	-78.459	
6.00	-60.086	-73.939	
7.00	-59.669	-77.737	
8.00	-59.964	-73.099	
9.00	-61.327	-69.632	
10.00	-61.281	-61.875	
11.00	-62.804	-48.512	
12.00	-62.388	-39.580	
13.00	-62.831	-25.437	
14.00	-62.260	-28.725	
15.00	-64.108	-8.742	
16.00	-62.771	-5.284	
17.00	-62.544	13.758	
18.00	-61.245	8.581	
19.00	-62.650	21.270	
20.00	-61.008	26.291	
21.00	-60.932	30.240	
22.00	-60.613	37.957	
23.00	-59.895	45.036	
24.00	-60.211	65.491	
25.00	-59.722	60.425	
26.00	-60.091	67.528	
27.00	-59.875	78.539	
28.00	-61.713	94.410	
29.00	-60.749	101.206	
30.00	-60.834	118.911	
31.00	-60.411	141.172	
32.00	-60.728	151.448	
33.00	-59.776	168.898	
34.00	-58.720	172.531	
35.00	-58.219	-172.243	
36.00	-58.112	-169.040	
37.00	-58.650	-156.665	
38.00	-57.840	-148.267	
39.00	-58.576	-134.557	
40.00	-58.089	-130.760	
41.00	-59.475	-121.325	
42.00	-60.008	-116.640	
43.00	-59.980	-98.791	
44.00	-60.211	-90.367	
45.00	-60.173	-74.700	
46.00	-61.299	-73.934	
47.00	-61.495	-54.364	
48.00	-61.572	-45.375	
49.00	-63.268	-27.106	
50.00	-64.869	-28.811	
51.00	-67.162	-3.913	
52.00	-75.873	-34.351	
53.00	-74.967	15.395	
54.00	-71.417	178.376	
55.00	-63.822	-167.254	
56.00	-62.172	-166.657	
57.00	-56.976	-146.120	
58.00	-56.491	-140.370	
59.00	-55.991	-135.683	
60.00	-54.376	-127.639	
61.00	-53.319	-122.862	
62.00	-52.959	-115.647	
63.00	-52.377	-110.032	
64.00	-51.928	-99.719	
65.00	-52.093	-91.097	
66.00	-52.976	-79.907	
67.00	-52.525	-68.088	
68.00	-52.959	-50.985	
69.00	-53.194	-35.940	
70.00	-52.702	-27.915	
71.00	-53.296	-9.152	
72.00	-54.532	0.506	
73.00	-53.522	18.985	
74.00	-54.685	33.431	
75.00	-53.984	48.924	
76.00	-54.527	59.818	
77.00	-55.730	80.045	
78.00	-55.083	97.572	
79.00	-56.466	116.726	
80.00	-56.012	133.501	
81.00	-56.389	163.972	
82.00	-56.383	-172.497	
83.00	-55.939	-154.993	
84.00	-55.208	-132.704	
85.00	-53.951	-115.411	
86.00	-53.407	-98.863	
87.00	-52.409	-85.120	
88.00	-51.579	-70.670	
89.00	-51.116	-54.327	
90.00	-51.351	-40.494	
91.00	-50.721	-27.442	
92.00	-50.177	-7.401	
93.00	-50.057	4.684	
94.00	-50.553	22.493	
95.00	-49.983	40.076	
96.00	-49.857	57.069	
97.00	-49.952	75.257	
98.00	-50.061	97.574	
99.00	-49.454	121.166	
100.00	-49.507	134.929	
101.00	-49.095	151.584	
102.00	-48.885	168.568	
103.00	-48.645	-176.368	
104.00	-48.849	-160.619	
105.00	-47.740	-145.701	
106.00	-47.719	-130.245	
107.00	-47.438	-112.555	
108.00	-47.506	-96.702	
109.00	-46.985	-81.802	
110.00	-46.423	-65.076	
111.00	-46.114	-47.199	
112.00	-45.855	-33.692	
113.00	-45.529	-16.233	
114.00	-45.192	-3.290	
115.00	-44.657	14.592	
116.00	-44.714	24.246	
117.00	-44.486	40.488	
118.00	-44.522	50.430	
119.00	-44.183	66.389	
120.00	-44.192	79.346	
121.00	-44.169	93.229	
122.00	-44.241	105.715	
123.00	-44.172	123.738	
124.00	-44.118	135.846	
125.00	-44.123	149.797	
126.00	-43.954	166.328	
127.00	-44.114	179.048	
128.00	-43.851	-163.172	
129.00	-43.967	-150.868	
130.00	-43.878	-135.501	
131.00	-43.996	-126.067	
132.00	-44.142	-109.246	
133.00	-44.447	-97.852	
134.00	-44.510	-83.146	
135.00	-44.710	-72.705	
136.00	-45.247	-59.037	
137.00	-45.165	-43.286	
138.00	-45.352	-31.642	
139.00	-45.608	-15.443	
140.00	-45.755	-5.510	
141.00	-46.146	9.906	
142.00	-46.011	19.051	
143.00	-46.497	32.834	
144.00	-46.637	42.430	
145.00	-47.080	53.687	
146.00	-47.494	67.974	
147.00	-47.808	75.740	
148.00	-47.942	92.489	
149.00	-48.208	100.458	
150.00	-49.037	113.392	
151.00	-49.499	122.945	
152.00	-50.254	131.664	
153.00	-51.088	140.773	
154.00	-52.287	152.911	
155.00	-53.549	161.065	
156.00	-54.711	173.739	
157.00	-57.006	-171.350	
158.00	-59.370	-152.446	
159.00	-60.833	-135.149	
160.00	-62.894	-88.094	
161.00	-61.721	-66.152	
162.00	-59.469	-38.118	
163.00	-57.265	-21.301	
164.00	-56.050	-9.391	
165.00	-54.235	2.994	
166.00	-53.515	11.010	
167.00	-52.743	20.805	
168.00	-51.993	24.555	
169.00	-51.261	34.679	
170.00	-50.566	42.233	
171.00	-50.278	46.099	
172.00	-50.000	51.767	
173.00	-49.747	58.735	
174.00	-49.487	61.435	
175.00	-49.337	72.104	
176.00	-49.409	69.832	
177.00	-48.821	74.871	
178.00	-48.860	82.129	
179.00	-48.696	85.583	
180.00	-48.420	91.286	
181.00	-48.278	91.952	
182.00	-48.504	96.373	
183.00	-48.251	99.850	
184.00	-48.301	107.346	
185.00	-48.297	105.964	
186.00	-48.452	108.337	
187.00	-48.278	109.801	
188.00	-48.538	114.663	
189.00	-48.451	113.651	
190.00	-48.391	114.178	
191.00	-48.579	114.662	
192.00	-48.474	115.223	
193.00	-48.325	120.187	
194.00	-48.545	118.662	
195.00	-48.446	116.890	
196.00	-48.302	116.413	
197.00	-48.348	117.426	
198.00	-48.259	111.896	
199.00	-48.507	114.430	
200.00	-48.679	109.995	
201.00	-48.847	111.373	
202.00	-48.923	111.857	
203.00	-48.983	105.318	
204.00	-49.152	101.466	
205.00	-49.176	88.208	
206.00	-49.162	87.779	
207.00	-49.408	82.913	
208.00	-49.403	78.213	
209.00	-49.738	74.849	
210.00	-49.710	72.588	
211.00	-49.155	56.770	
212.00	-49.516	57.422	
213.00	-48.897	46.009	
214.00	-49.234	42.765	
215.00	-48.829	35.172	
216.00	-48.633	28.178	
217.00	-48.274	22.082	
218.00	-48.425	10.963	
219.00	-48.070	7.385	
220.00	-47.881	1.899	
221.00	-48.046	-3.908	
222.00	-48.357	-11.273	
223.00	-48.135	-18.983	
224.00	-47.823	-23.540	
225.00	-48.239	-30.595	
226.00	-48.216	-39.719	
227.00	-48.326	-42.407	
228.00	-49.164	-52.946	
229.00	-49.098	-56.886	
230.00	-49.573	-72.673	
231.00	-50.015	-79.377	
232.00	-49.998	-87.265	
233.00	-50.416	-100.961	
234.00	-50.971	-107.214	
235.00	-51.448	-127.057	
236.00	-50.241	-138.657	
237.00	-51.335	-144.353	
238.00	-50.614	-155.490	
239.00	-50.967	-165.840	
240.00	-50.536	-171.960	
241.00	-51.211	-179.359	
242.00	-51.130	171.994	
243.00	-51.340	160.186	
244.00	-51.745	151.386	
245.00	-52.256	142.139	
246.00	-53.040	122.757	
247.00	-53.646	114.552	
248.00	-53.772	104.097	
249.00	-54.961	80.050	
250.00	-55.073	66.634	
251.00	-55.334	49.875	
252.00	-52.976	31.456	
253.00	-53.075	17.573	
254.00	-54.712	4.996	
255.00	-54.384	-10.212	
256.00	-53.042	-24.976	
257.00	-53.824	-29.345	
258.00	-54.767	-41.481	
259.00	-54.532	-60.042	
260.00	-56.327	-74.633	
261.00	-56.932	-97.114	
262.00	-57.730	-106.226	
263.00	-56.966	-121.654	
264.00	-57.934	-131.695	
265.00	-56.930	-158.009	
266.00	-57.390	-178.523	
267.00	-56.891	162.791	
268.00	-57.006	153.638	
269.00	-56.218	142.720	
270.00	-57.014	124.585	
271.00	-57.049	106.448	
272.00	-58.272	95.421	
273.00	-57.494	77.116	
274.00	-57.624	60.870	
275.00	-56.953	37.266	
276.00	-57.098	24.288	
277.00	-56.516	2.383	
278.00	-55.862	-13.809	
279.00	-55.364	-24.542	
280.00	-54.349	-33.685	
281.00	-54.520	-43.936	
282.00	-53.819	-55.822	
283.00	-54.028	-63.132	
284.00	-54.636	-67.002	
285.00	-55.218	-79.039	
286.00	-56.721	-91.166	
287.00	-57.649	-99.538	
288.00	-58.280	-112.602	
289.00	-61.261	-126.788	
290.00	-64.811	-141.519	
291.00	-67.009	-158.110	
292.00	-68.918	162.984	
293.00	-68.824	147.277	
294.00	-64.005	101.668	
295.00	-61.639	96.767	
296.00	-63.747	87.139	
297.00	-61.569	86.028	
298.00	-60.784	81.877	
299.00	-62.862	85.518	
300.00	-61.191	78.345	
301.00	-64.823	81.206	
302.00	-61.922	64.409	
303.00	-63.469	72.404	
304.00	-67.892	98.748	
305.00	-68.772	91.486	
306.00	-71.575	144.818	
307.00	-70.863	179.445	
308.00	-64.192	-177.207	
309.00	-64.323	-164.731	
310.00	-61.091	-158.237	
311.00	-59.796	-163.160	
312.00	-58.296	-156.553	
313.00	-57.992	-149.661	
314.00	-57.028	-161.329	
315.00	-56.194	-158.798	
316.00	-56.070	-164.893	
317.00	-55.844	-167.663	
318.00	-56.162	-170.566	
319.00	-56.032	176.147	
320.00	-56.525	171.823	
321.00	-56.658	160.959	
322.00	-56.764	160.447	
323.00	-57.292	144.390	
324.00	-57.174	135.307	
325.00	-57.511	122.937	
326.00	-57.711	115.462	
327.00	-57.700	103.015	
328.00	-57.437	100.182	
329.00	-57.938	84.313	
330.00	-57.839	80.433	
331.00	-57.599	72.283	
332.00	-58.166	64.756	
333.00	-59.142	61.934	
334.00	-61.696	57.048	
335.00	-64.826	57.729	
336.00	-67.687	37.985	
337.00	-70.879	21.334	
338.00	-72.623	-76.754	
339.00	-66.938	-106.910	
340.00	-63.755	-110.201	
341.00	-60.704	-120.860	
342.00	-58.758	-119.931	
343.00	-57.101	-122.500	
344.00	-56.461	-127.570	
345.00	-55.086	-127.222	
346.00	-54.378	-128.509	
347.00	-53.879	-126.852	
348.00	-53.187	-123.459	
349.00	-53.830	-128.329	
350.00	-53.378	-124.316	
351.00	-53.188	-126.851	
352.00	-53.160	-127.675	
353.00	-52.944	-121.020	
354.00	-53.973	-120.555	
355.00	-54.016	-117.639	
356.00	-54.774	-120.563	
357.00	-54.989	-113.977	
358.00	-55.581	-113.780	
359.00	-56.340	-109.791	
Frequency	1850.00	MHz	
Channel	test		
Scan Axis name	Azimuth  [deg]		
Scan Axis	Amplitude	Phase	
			
0.00	-66.783	-175.813	
1.00	-64.810	172.618	
2.00	-63.827	171.731	
3.00	-62.997	166.290	
4.00	-61.955	170.270	
5.00	-61.737	166.215	
6.00	-60.960	164.279	
7.00	-60.717	164.982	
8.00	-60.529	157.464	
9.00	-61.098	160.716	
10.00	-60.780	155.363	
11.00	-60.984	158.230	
12.00	-61.699	159.413	
13.00	-62.293	156.463	
14.00	-62.550	159.277	
15.00	-62.314	154.960	
16.00	-63.393	157.559	
17.00	-64.970	153.210	
18.00	-64.353	150.706	
19.00	-64.581	153.713	
20.00	-67.146	154.553	
21.00	-71.277	163.011	
22.00	-73.626	-167.074	
23.00	-71.887	-146.031	
24.00	-66.915	-100.342	
25.00	-67.881	-104.864	
26.00	-65.134	-98.767	
27.00	-64.776	-95.043	
28.00	-61.644	-81.838	
29.00	-61.740	-81.849	
30.00	-60.020	-71.160	
31.00	-59.356	-66.160	
32.00	-59.437	-57.789	
33.00	-59.318	-51.194	
34.00	-58.865	-50.524	
35.00	-59.054	-45.901	
36.00	-59.411	-34.475	
37.00	-59.569	-28.490	
38.00	-59.151	-17.923	
39.00	-59.736	3.491	
40.00	-60.157	7.621	
41.00	-59.807	14.056	
42.00	-60.905	31.788	
43.00	-61.158	45.313	
44.00	-60.925	51.174	
45.00	-62.187	62.221	
46.00	-62.646	65.842	
47.00	-64.271	105.071	
48.00	-64.838	109.424	
49.00	-63.567	129.452	
50.00	-63.465	147.343	
51.00	-62.660	173.898	
52.00	-61.753	-173.547	
53.00	-61.180	-158.645	
54.00	-60.467	-146.923	
55.00	-59.965	-133.559	
56.00	-59.749	-114.838	
57.00	-59.684	-103.355	
58.00	-59.507	-92.175	
59.00	-59.753	-83.680	
60.00	-60.892	-60.040	
61.00	-61.369	-45.923	
62.00	-62.098	-34.575	
63.00	-62.095	-2.757	
64.00	-62.784	16.877	
65.00	-58.815	45.078	
66.00	-59.249	61.311	
67.00	-58.626	76.931	
68.00	-57.833	95.405	
69.00	-57.278	109.231	
70.00	-56.583	120.100	
71.00	-55.678	139.410	
72.00	-55.328	150.281	
73.00	-55.244	172.174	
74.00	-54.831	-178.663	
75.00	-54.354	-159.832	
76.00	-54.055	-146.291	
77.00	-54.391	-130.244	
78.00	-54.162	-113.004	
79.00	-53.938	-101.307	
80.00	-53.556	-78.931	
81.00	-52.810	-61.966	
82.00	-52.857	-43.930	
83.00	-52.598	-27.368	
84.00	-53.215	-11.301	
85.00	-51.675	5.830	
86.00	-51.493	19.137	
87.00	-51.042	36.476	
88.00	-50.728	55.894	
89.00	-50.040	73.042	
90.00	-49.647	88.681	
91.00	-49.286	105.491	
92.00	-48.933	123.452	
93.00	-48.273	137.765	
94.00	-47.614	154.344	
95.00	-47.540	167.692	
96.00	-47.086	-177.167	
97.00	-46.883	-159.762	
98.00	-46.673	-140.435	
99.00	-46.465	-120.372	
100.00	-46.513	-111.711	
101.00	-45.932	-91.509	
102.00	-45.708	-74.485	
103.00	-45.255	-59.855	
104.00	-45.333	-44.923	
105.00	-44.993	-30.376	
106.00	-44.945	-14.562	
107.00	-44.644	2.015	
108.00	-44.401	14.123	
109.00	-44.364	31.290	
110.00	-44.121	44.637	
111.00	-44.214	63.655	
112.00	-44.142	77.232	
113.00	-43.920	95.556	
114.00	-43.815	107.360	
115.00	-43.643	127.473	
116.00	-43.657	138.413	
117.00	-43.432	153.961	
118.00	-43.352	166.133	
119.00	-43.174	-177.338	
120.00	-43.180	-162.482	
121.00	-43.227	-148.244	
122.00	-43.074	-135.442	
123.00	-43.288	-117.543	
124.00	-43.076	-105.925	
125.00	-43.173	-92.406	
126.00	-43.408	-76.388	
127.00	-43.328	-61.499	
128.00	-43.645	-42.440	
129.00	-43.713	-29.984	
130.00	-43.761	-12.310	
131.00	-44.088	-0.144	
132.00	-43.996	18.995	
133.00	-43.868	31.073	
134.00	-43.763	48.006	
135.00	-43.792	60.838	
136.00	-43.761	73.228	
137.00	-43.742	87.179	
138.00	-43.579	99.737	
139.00	-43.831	114.457	
140.00	-44.063	122.415	
141.00	-44.293	135.605	
142.00	-44.763	144.886	
143.00	-45.112	158.124	
144.00	-45.726	166.871	
145.00	-46.126	179.046	
146.00	-47.094	-168.396	
147.00	-47.843	-153.729	
148.00	-48.867	-141.955	
149.00	-49.644	-127.437	
150.00	-50.781	-109.306	
151.00	-51.556	-93.241	
152.00	-52.326	-75.326	
153.00	-52.631	-59.318	
154.00	-52.073	-39.820	
155.00	-52.358	-22.141	
156.00	-52.442	-5.208	
157.00	-52.150	9.727	
158.00	-51.756	25.477	
159.00	-51.541	39.235	
160.00	-51.177	53.748	
161.00	-51.112	66.730	
162.00	-50.854	82.361	
163.00	-50.744	88.018	
164.00	-50.195	100.463	
165.00	-49.794	117.108	
166.00	-49.483	122.565	
167.00	-48.930	134.781	
168.00	-48.541	140.340	
169.00	-48.207	150.460	
170.00	-47.894	157.314	
171.00	-47.440	165.055	
172.00	-47.215	171.054	
173.00	-46.752	178.998	
174.00	-46.657	-177.568	
175.00	-46.250	-168.478	
176.00	-46.382	-168.045	
177.00	-46.085	-165.398	
178.00	-45.904	-157.662	
179.00	-45.924	-155.267	
180.00	-45.624	-147.741	
181.00	-45.576	-146.632	
182.00	-45.434	-142.989	
183.00	-45.461	-139.179	
184.00	-45.398	-132.847	
185.00	-45.412	-132.598	
186.00	-45.449	-128.718	
187.00	-45.284	-127.086	
188.00	-45.360	-121.073	
189.00	-45.197	-120.310	
190.00	-45.043	-119.162	
191.00	-44.932	-118.684	
192.00	-44.787	-116.154	
193.00	-44.619	-112.700	
194.00	-44.657	-113.232	
195.00	-44.413	-115.846	
196.00	-44.302	-114.724	
197.00	-44.221	-112.713	
198.00	-44.265	-118.164	
199.00	-44.067	-117.098	
200.00	-43.885	-122.085	
201.00	-43.788	-119.529	
202.00	-43.835	-120.854	
203.00	-43.775	-126.861	
204.00	-43.653	-129.467	
205.00	-43.712	-139.386	
206.00	-44.287	-141.056	
207.00	-44.190	-145.006	
208.00	-44.362	-146.912	
209.00	-43.753	-152.799	
210.00	-44.354	-152.287	
211.00	-44.488	-165.259	
212.00	-44.668	-161.494	
213.00	-44.490	-175.271	
214.00	-44.810	-176.399	
215.00	-45.121	178.211	
216.00	-45.289	169.346	
217.00	-45.438	163.881	
218.00	-46.081	153.437	
219.00	-46.109	153.453	
220.00	-46.580	147.091	
221.00	-46.775	140.648	
222.00	-47.308	132.299	
223.00	-47.817	125.604	
224.00	-48.268	119.744	
225.00	-48.706	111.704	
226.00	-49.335	100.112	
227.00	-49.977	93.328	
228.00	-50.627	84.331	
229.00	-51.083	77.636	
230.00	-51.384	65.329	
231.00	-51.552	54.473	
232.00	-52.244	47.081	
233.00	-51.330	37.910	
234.00	-52.536	25.124	
235.00	-52.914	15.235	
236.00	-53.181	6.042	
237.00	-53.112	-0.924	
238.00	-53.680	-11.217	
239.00	-54.510	-19.130	
240.00	-54.529	-27.802	
241.00	-55.182	-37.999	
242.00	-55.718	-49.026	
243.00	-56.562	-60.436	
244.00	-56.354	-72.699	
245.00	-57.166	-85.560	
246.00	-57.098	-103.395	
247.00	-57.389	-120.665	
248.00	-56.615	-134.164	
249.00	-56.004	-146.034	
250.00	-55.655	-159.980	
251.00	-55.204	-169.450	
252.00	-55.366	-178.365	
253.00	-56.326	175.095	
254.00	-56.646	161.721	
255.00	-57.544	153.138	
256.00	-58.500	137.715	
257.00	-60.288	128.943	
258.00	-61.876	114.286	
259.00	-63.346	86.921	
260.00	-63.527	59.245	
261.00	-62.646	29.217	
262.00	-61.377	13.054	
263.00	-59.574	0.299	
264.00	-59.205	-11.301	
265.00	-58.560	-22.375	
266.00	-58.753	-27.164	
267.00	-58.931	-38.237	
268.00	-59.735	-39.543	
269.00	-60.898	-46.034	
270.00	-63.670	-56.379	
271.00	-67.870	-58.580	
272.00	-75.173	-60.704	
273.00	-79.556	130.760	
274.00	-68.814	111.259	
275.00	-65.250	95.295	
276.00	-62.525	97.604	
277.00	-60.805	90.937	
278.00	-59.616	84.519	
279.00	-59.698	80.399	
280.00	-59.284	78.276	
281.00	-59.743	72.470	
282.00	-61.634	64.047	
283.00	-61.668	65.382	
284.00	-64.399	61.018	
285.00	-67.282	59.513	
286.00	-71.335	48.531	
287.00	-70.888	54.281	
288.00	-73.796	68.280	
289.00	-73.110	86.901	
290.00	-72.926	63.190	
291.00	-70.496	63.830	
292.00	-69.739	51.468	
293.00	-68.514	39.211	
294.00	-67.810	24.003	
295.00	-66.385	16.054	
296.00	-64.092	9.889	
297.00	-62.112	-4.311	
298.00	-62.114	-13.037	
299.00	-62.088	-21.407	
300.00	-61.831	-38.439	
301.00	-61.513	-52.008	
302.00	-61.520	-56.620	
303.00	-61.197	-74.335	
304.00	-61.323	-92.068	
305.00	-60.866	-102.466	
306.00	-61.351	-111.131	
307.00	-61.274	-133.249	
308.00	-60.795	-146.135	
309.00	-60.964	-156.093	
310.00	-61.501	-168.778	
311.00	-62.890	-176.191	
312.00	-62.716	172.725	
313.00	-66.374	163.374	
314.00	-67.622	138.100	
315.00	-69.866	100.183	
316.00	-69.033	55.121	
317.00	-65.690	13.816	
318.00	-64.200	-10.891	
319.00	-62.998	-23.516	
320.00	-60.423	-27.814	
321.00	-58.765	-31.651	
322.00	-58.792	-39.444	
323.00	-58.338	-46.324	
324.00	-57.998	-53.277	
325.00	-57.961	-54.905	
326.00	-57.236	-79.608	
327.00	-59.181	-69.492	
328.00	-57.567	-92.163	
329.00	-58.777	-109.061	
330.00	-56.918	-113.904	
331.00	-58.337	-118.497	
332.00	-58.471	-127.030	
333.00	-59.332	-140.462	
334.00	-58.592	-144.007	
335.00	-59.631	-138.585	
336.00	-59.858	-141.038	
337.00	-60.325	-151.364	
338.00	-61.195	-148.492	
339.00	-61.345	-147.063	
340.00	-63.060	-147.460	
341.00	-63.427	-149.348	
342.00	-64.015	-138.877	
343.00	-66.138	-129.371	
344.00	-67.344	-116.047	
345.00	-65.085	-102.207	
346.00	-65.526	-99.466	
347.00	-67.459	-94.635	
348.00	-65.588	-83.975	
349.00	-67.331	-91.926	
350.00	-66.953	-80.720	
351.00	-67.461	-80.696	
352.00	-73.647	-87.649	
353.00	-69.714	-97.761	
354.00	-74.189	-115.382	
355.00	-74.089	-153.110	
356.00	-71.693	-157.762	
357.00	-67.684	165.830	
358.00	-69.050	-176.309	
359.00	-65.792	179.105	
Frequency	1950.00	MHz	
Channel	test		
Scan Axis name	Azimuth  [deg]		
Scan Axis	Amplitude	Phase	
			
0.00	-61.470	117.692	
1.00	-63.925	132.863	
2.00	-69.570	137.555	
3.00	-66.296	168.778	
4.00	-67.033	166.744	
5.00	-73.541	164.620	
6.00	-66.678	-146.400	
7.00	-68.735	-150.352	
8.00	-69.682	-162.165	
9.00	-63.031	-108.381	
10.00	-66.659	-133.053	
11.00	-68.075	-132.456	
12.00	-68.514	-124.234	
13.00	-68.031	-111.805	
14.00	-66.495	-131.588	
15.00	-69.347	-117.319	
16.00	-72.848	-124.024	
17.00	-71.669	-119.412	
18.00	-73.196	-41.299	
19.00	-72.749	-27.611	
20.00	-67.915	-11.373	
21.00	-67.581	20.046	
22.00	-64.746	17.683	
23.00	-63.585	22.125	
24.00	-60.966	32.223	
25.00	-60.622	30.603	
26.00	-58.487	22.791	
27.00	-59.506	35.600	
28.00	-58.445	31.754	
29.00	-58.094	36.632	
30.00	-58.564	38.226	
31.00	-57.758	40.372	
32.00	-59.856	37.961	
33.00	-63.807	36.332	
34.00	-62.359	39.052	
35.00	-67.703	64.775	
36.00	-69.560	100.609	
37.00	-83.070	16.224	
38.00	-69.264	-152.156	
39.00	-80.121	-106.499	
40.00	-63.871	-122.916	
41.00	-59.730	-135.042	
42.00	-59.711	-121.050	
43.00	-61.008	-103.408	
44.00	-59.503	-98.892	
45.00	-61.576	-108.984	
46.00	-59.883	-82.451	
47.00	-58.617	-68.315	
48.00	-59.281	-54.731	
49.00	-59.819	-44.035	
50.00	-58.818	-18.973	
51.00	-59.316	3.250	
52.00	-57.989	10.704	
53.00	-57.342	27.439	
54.00	-57.957	34.603	
55.00	-56.025	53.930	
56.00	-56.823	63.378	
57.00	-55.773	70.831	
58.00	-56.990	88.295	
59.00	-57.146	96.297	
60.00	-57.985	119.641	
61.00	-59.950	134.712	
62.00	-61.341	140.509	
63.00	-61.186	163.410	
64.00	-59.844	-174.992	
65.00	-59.597	-138.950	
66.00	-58.863	-123.504	
67.00	-57.807	-102.573	
68.00	-56.514	-87.260	
69.00	-56.759	-66.151	
70.00	-56.651	-55.753	
71.00	-55.999	-41.621	
72.00	-55.468	-31.797	
73.00	-56.003	-14.479	
74.00	-56.379	3.063	
75.00	-57.353	19.203	
76.00	-56.953	38.053	
77.00	-58.056	62.069	
78.00	-57.393	81.525	
79.00	-56.932	108.330	
80.00	-56.938	124.640	
81.00	-56.014	144.073	
82.00	-54.948	165.584	
83.00	-53.983	-175.571	
84.00	-54.252	-163.330	
85.00	-53.664	-145.702	
86.00	-53.173	-125.040	
87.00	-52.462	-110.469	
88.00	-52.377	-94.757	
89.00	-52.082	-79.034	
90.00	-52.095	-62.471	
91.00	-52.029	-44.410	
92.00	-51.505	-25.949	
93.00	-51.927	-11.295	
94.00	-51.537	8.268	
95.00	-51.291	26.921	
96.00	-51.166	44.017	
97.00	-51.147	63.705	
98.00	-50.992	87.161	
99.00	-50.390	116.929	
100.00	-50.273	127.259	
101.00	-49.830	144.154	
102.00	-49.205	164.844	
103.00	-49.392	-176.058	
104.00	-48.791	-163.856	
105.00	-48.118	-147.311	
106.00	-47.594	-129.069	
107.00	-47.367	-110.090	
108.00	-46.931	-97.708	
109.00	-46.601	-80.463	
110.00	-46.675	-64.136	
111.00	-46.081	-52.493	
112.00	-46.019	-32.795	
113.00	-45.949	-13.733	
114.00	-45.860	-1.566	
115.00	-45.364	21.659	
116.00	-45.208	28.334	
117.00	-45.114	46.260	
118.00	-45.095	57.835	
119.00	-45.050	74.030	
120.00	-44.819	89.410	
121.00	-45.079	103.959	
122.00	-45.264	118.074	
123.00	-44.802	139.602	
124.00	-45.014	151.729	
125.00	-45.008	164.967	
126.00	-44.810	-177.309	
127.00	-44.961	-162.238	
128.00	-44.929	-142.162	
129.00	-45.003	-128.413	
130.00	-44.755	-110.398	
131.00	-44.298	-99.785	
132.00	-44.896	-81.952	
133.00	-44.817	-69.135	
134.00	-44.990	-54.307	
135.00	-45.299	-41.005	
136.00	-45.834	-25.965	
137.00	-45.256	-10.431	
138.00	-45.607	3.227	
139.00	-45.575	17.682	
140.00	-45.866	27.339	
141.00	-46.461	44.545	
142.00	-46.661	53.495	
143.00	-46.672	70.612	
144.00	-47.306	83.275	
145.00	-47.453	93.036	
146.00	-48.175	107.974	
147.00	-48.637	119.815	
148.00	-49.086	130.580	
149.00	-50.461	144.110	
150.00	-52.281	163.972	
151.00	-51.924	171.748	
152.00	-52.299	-172.583	
153.00	-53.246	-152.836	
154.00	-54.137	-132.978	
155.00	-54.387	-114.588	
156.00	-54.077	-89.116	
157.00	-54.111	-68.506	
158.00	-52.654	-56.898	
159.00	-52.291	-41.429	
160.00	-51.514	-28.695	
161.00	-51.189	-17.581	
162.00	-50.308	-6.328	
163.00	-50.324	-2.431	
164.00	-50.410	8.156	
165.00	-50.415	15.119	
166.00	-50.074	23.401	
167.00	-50.217	30.690	
168.00	-49.762	35.123	
169.00	-49.638	44.027	
170.00	-50.107	49.296	
171.00	-50.149	53.896	
172.00	-50.711	58.724	
173.00	-51.148	65.971	
174.00	-51.086	67.506	
175.00	-52.301	71.351	
176.00	-52.602	77.698	
177.00	-53.129	80.670	
178.00	-53.562	89.769	
179.00	-54.752	96.227	
180.00	-54.730	104.174	
181.00	-55.906	111.441	
182.00	-56.661	115.267	
183.00	-57.811	129.788	
184.00	-57.271	142.644	
185.00	-57.376	155.324	
186.00	-58.745	173.972	
187.00	-56.983	171.480	
188.00	-56.865	-177.547	
189.00	-56.401	-168.455	
190.00	-56.170	-165.579	
191.00	-55.868	-165.227	
192.00	-55.779	-161.208	
193.00	-56.097	-155.796	
194.00	-55.868	-157.811	
195.00	-55.952	-157.561	
196.00	-56.458	-160.962	
197.00	-58.349	-158.561	
198.00	-57.800	-167.733	
199.00	-58.717	-172.712	
200.00	-58.150	175.012	
201.00	-59.783	172.844	
202.00	-60.559	157.917	
203.00	-60.219	145.681	
204.00	-59.932	131.056	
205.00	-59.346	109.556	
206.00	-59.424	99.853	
207.00	-57.591	93.470	
208.00	-57.894	85.203	
209.00	-57.266	84.161	
210.00	-57.361	76.192	
211.00	-56.861	51.597	
212.00	-57.932	62.264	
213.00	-57.606	53.365	
214.00	-58.283	57.437	
215.00	-58.805	43.436	
216.00	-58.308	37.687	
217.00	-61.099	34.380	
218.00	-63.400	31.339	
219.00	-67.071	31.875	
220.00	-70.774	60.199	
221.00	-74.768	69.036	
222.00	-71.616	147.006	
223.00	-66.976	136.982	
224.00	-63.124	154.906	
225.00	-61.847	147.739	
226.00	-59.928	146.131	
227.00	-58.236	138.441	
228.00	-58.008	135.440	
229.00	-56.361	127.898	
230.00	-56.329	115.702	
231.00	-55.499	102.594	
232.00	-55.385	101.668	
233.00	-55.888	87.591	
234.00	-56.331	71.905	
235.00	-55.747	64.633	
236.00	-56.949	62.252	
237.00	-57.482	46.652	
238.00	-57.962	32.815	
239.00	-57.878	18.574	
240.00	-58.670	4.414	
241.00	-59.118	-11.525	
242.00	-58.811	-29.001	
243.00	-60.151	-39.344	
244.00	-60.082	-54.999	
245.00	-61.220	-71.856	
246.00	-61.077	-84.354	
247.00	-61.141	-96.793	
248.00	-61.334	-113.442	
249.00	-62.400	-118.821	
250.00	-63.595	-140.901	
251.00	-63.242	-150.842	
252.00	-65.543	-157.729	
253.00	-71.659	175.275	
254.00	-70.133	174.037	
255.00	-76.636	149.086	
256.00	-80.752	157.673	
257.00	-81.028	31.630	
258.00	-78.238	-25.678	
259.00	-72.451	-51.484	
260.00	-68.793	-61.228	
261.00	-68.270	-63.397	
262.00	-68.635	-73.064	
263.00	-69.207	-91.632	
264.00	-74.017	-45.047	
265.00	-71.078	-96.771	
266.00	-72.207	-121.536	
267.00	-73.404	-141.517	
268.00	-79.116	-128.914	
269.00	-79.472	154.078	
270.00	-93.144	70.279	
271.00	-84.693	-44.756	
272.00	-85.877	92.793	
273.00	-82.780	-59.313	
274.00	-72.496	-96.165	
275.00	-69.359	-83.743	
276.00	-68.521	-104.359	
277.00	-68.806	-102.057	
278.00	-66.254	-111.590	
279.00	-67.461	-134.919	
280.00	-66.028	-136.018	
281.00	-66.696	-153.681	
282.00	-67.174	176.011	
283.00	-67.245	148.232	
284.00	-65.009	138.807	
285.00	-72.806	62.259	
286.00	-63.946	55.894	
287.00	-65.477	39.650	
288.00	-63.541	24.271	
289.00	-60.690	12.939	
290.00	-60.555	-12.249	
291.00	-58.701	-8.620	
292.00	-58.857	-32.998	
293.00	-58.349	-46.644	
294.00	-57.681	-59.855	
295.00	-57.357	-72.116	
296.00	-56.436	-93.414	
297.00	-57.088	-103.218	
298.00	-56.340	-123.016	
299.00	-57.396	-128.516	
300.00	-56.816	-135.872	
301.00	-58.987	-161.063	
302.00	-59.073	-176.453	
303.00	-61.166	161.749	
304.00	-60.171	143.867	
305.00	-60.908	111.739	
306.00	-58.969	99.039	
307.00	-57.397	91.858	
308.00	-57.796	73.667	
309.00	-57.001	60.508	
310.00	-57.624	45.737	
311.00	-57.458	38.073	
312.00	-57.802	36.460	
313.00	-59.593	26.822	
314.00	-59.830	11.770	
315.00	-62.928	3.821	
316.00	-65.165	-11.857	
317.00	-65.435	-42.688	
318.00	-70.543	-86.255	
319.00	-69.522	-107.756	
320.00	-66.974	-123.758	
321.00	-67.595	-132.571	
322.00	-65.379	-148.447	
323.00	-68.473	-143.656	
324.00	-70.722	-139.224	
325.00	-77.153	178.899	
326.00	-75.015	-61.196	
327.00	-69.368	-34.430	
328.00	-64.839	-26.062	
329.00	-62.143	-27.101	
330.00	-58.790	-25.824	
331.00	-58.519	-25.550	
332.00	-56.166	-40.332	
333.00	-55.294	-37.483	
334.00	-55.763	-39.563	
335.00	-55.933	-40.212	
336.00	-55.331	-42.237	
337.00	-56.323	-49.055	
338.00	-56.920	-51.560	
339.00	-57.548	-57.865	
340.00	-59.281	-65.899	
341.00	-61.368	-69.392	
342.00	-64.315	-86.650	
343.00	-64.029	-85.242	
344.00	-65.451	-116.395	
345.00	-67.145	-165.679	
346.00	-63.906	176.550	
347.00	-62.003	160.535	
348.00	-60.631	154.613	
349.00	-60.558	149.213	
350.00	-59.123	137.638	
351.00	-57.443	139.926	
352.00	-59.280	138.926	
353.00	-58.326	131.794	
354.00	-58.427	153.523	
355.00	-59.175	125.455	
356.00	-59.012	126.508	
357.00	-60.322	129.327	
358.00	-60.509	126.408	
359.00	-62.401	131.493	
Frequency	2050.00	MHz	
Channel	test		
Scan Axis name	Azimuth  [deg]		
Scan Axis	Amplitude	Phase	
			
0.00	-60.059	-150.804	
1.00	-58.648	-150.476	
2.00	-57.663	-152.597	
3.00	-58.484	-159.614	
4.00	-57.310	-155.895	
5.00	-56.832	-152.807	
6.00	-58.840	-168.062	
7.00	-58.092	-161.167	
8.00	-57.550	-159.168	
9.00	-57.601	-159.042	
10.00	-57.230	-161.352	
11.00	-57.472	-168.606	
12.00	-58.994	-173.853	
13.00	-60.430	-171.787	
14.00	-60.001	-175.919	
15.00	-59.484	-174.860	
16.00	-60.726	177.809	
17.00	-60.473	176.811	
18.00	-60.726	177.508	
19.00	-61.367	176.019	
20.00	-61.283	164.171	
21.00	-61.729	179.217	
22.00	-62.065	175.321	
23.00	-60.184	-177.826	
24.00	-62.456	-166.079	
25.00	-62.389	-168.627	
26.00	-62.296	-169.185	
27.00	-65.458	-161.052	
28.00	-63.914	-157.757	
29.00	-63.706	-165.568	
30.00	-64.877	-143.612	
31.00	-66.742	-128.803	
32.00	-72.260	-130.841	
33.00	-74.054	-67.972	
34.00	-69.464	-65.801	
35.00	-67.677	-50.217	
36.00	-67.473	-7.404	
37.00	-74.793	7.111	
38.00	-68.723	14.589	
39.00	-68.189	42.346	
40.00	-64.183	65.195	
41.00	-67.012	80.719	
42.00	-65.315	86.960	
43.00	-62.798	107.670	
44.00	-61.578	121.546	
45.00	-60.514	132.534	
46.00	-59.539	136.195	
47.00	-59.368	151.182	
48.00	-58.163	160.891	
49.00	-57.769	165.311	
50.00	-56.868	-179.681	
51.00	-56.556	-166.279	
52.00	-56.742	-150.589	
53.00	-55.283	-137.591	
54.00	-56.714	-134.249	
55.00	-56.163	-122.143	
56.00	-56.473	-97.742	
57.00	-56.515	-94.853	
58.00	-58.026	-67.107	
59.00	-57.657	-68.619	
60.00	-56.878	-45.910	
61.00	-58.435	-31.519	
62.00	-58.387	-6.595	
63.00	-59.314	7.306	
64.00	-59.895	28.006	
65.00	-59.214	49.237	
66.00	-57.858	67.361	
67.00	-56.545	79.386	
68.00	-56.879	90.248	
69.00	-58.607	119.888	
70.00	-58.800	128.519	
71.00	-59.026	139.519	
72.00	-58.102	168.062	
73.00	-58.789	-175.444	
74.00	-58.920	-154.625	
75.00	-57.283	-127.679	
76.00	-58.131	-111.096	
77.00	-57.658	-94.417	
78.00	-57.748	-75.119	
79.00	-57.709	-57.765	
80.00	-58.382	-29.661	
81.00	-58.737	-12.650	
82.00	-57.311	10.314	
83.00	-56.633	26.260	
84.00	-54.813	36.392	
85.00	-56.194	59.832	
86.00	-54.748	74.503	
87.00	-55.998	88.457	
88.00	-55.173	121.061	
89.00	-55.711	120.548	
90.00	-54.834	137.903	
91.00	-54.885	154.072	
92.00	-56.540	173.580	
93.00	-56.016	-163.342	
94.00	-56.737	-150.060	
95.00	-56.432	-119.546	
96.00	-57.756	-97.900	
97.00	-56.824	-60.168	
98.00	-55.797	-33.141	
99.00	-54.487	-23.150	
100.00	-54.686	-2.776	
101.00	-53.899	18.172	
102.00	-51.629	41.671	
103.00	-51.409	46.964	
104.00	-51.533	72.069	
105.00	-51.400	87.045	
106.00	-51.177	102.936	
107.00	-51.895	120.299	
108.00	-51.345	140.615	
109.00	-50.394	159.601	
110.00	-49.930	176.561	
111.00	-49.778	-161.666	
112.00	-49.193	-151.343	
113.00	-49.888	-126.773	
114.00	-50.179	-110.569	
115.00	-49.482	-92.936	
116.00	-49.544	-76.775	
117.00	-49.189	-60.863	
118.00	-48.948	-51.858	
119.00	-48.832	-34.115	
120.00	-48.979	-8.411	
121.00	-48.941	7.945	
122.00	-48.617	25.339	
123.00	-48.447	44.867	
124.00	-48.306	61.677	
125.00	-48.186	77.717	
126.00	-48.047	96.795	
127.00	-48.070	112.755	
128.00	-47.613	133.981	
129.00	-47.525	146.374	
130.00	-47.671	164.275	
131.00	-46.954	179.827	
132.00	-47.338	-164.701	
133.00	-47.079	-152.535	
134.00	-47.439	-134.136	
135.00	-47.646	-120.463	
136.00	-48.248	-108.433	
137.00	-47.875	-89.016	
138.00	-48.552	-72.529	
139.00	-48.563	-52.720	
140.00	-48.691	-41.901	
141.00	-49.169	-23.189	
142.00	-49.317	-5.675	
143.00	-49.605	10.624	
144.00	-49.813	26.803	
145.00	-49.493	45.614	
146.00	-49.769	63.760	
147.00	-49.454	78.579	
148.00	-49.346	95.835	
149.00	-48.941	110.935	
150.00	-48.408	127.307	
151.00	-48.453	139.188	
152.00	-47.301	155.498	
153.00	-47.569	165.333	
154.00	-47.001	-179.786	
155.00	-46.635	-167.779	
156.00	-46.338	-152.566	
157.00	-46.073	-142.546	
158.00	-45.783	-128.215	
159.00	-45.475	-116.578	
160.00	-45.078	-106.292	
161.00	-44.955	-97.479	
162.00	-44.828	-87.827	
163.00	-44.428	-82.794	
164.00	-44.102	-74.645	
165.00	-43.834	-62.924	
166.00	-43.643	-57.180	
167.00	-43.585	-48.137	
168.00	-43.550	-43.766	
169.00	-43.454	-36.091	
170.00	-43.472	-30.283	
171.00	-43.600	-24.097	
172.00	-43.629	-19.620	
173.00	-43.726	-11.173	
174.00	-43.968	-8.517	
175.00	-44.126	-0.786	
176.00	-44.218	1.759	
177.00	-44.363	3.877	
178.00	-44.488	13.782	
179.00	-44.925	19.337	
180.00	-45.156	26.061	
181.00	-45.356	29.636	
182.00	-45.507	37.239	
183.00	-45.411	43.258	
184.00	-45.760	51.759	
185.00	-45.582	52.576	
186.00	-46.065	58.567	
187.00	-45.902	59.341	
188.00	-45.788	67.648	
189.00	-45.805	69.233	
190.00	-45.721	70.430	
191.00	-45.815	70.839	
192.00	-45.715	74.407	
193.00	-45.844	76.745	
194.00	-45.901	75.512	
195.00	-45.989	72.895	
196.00	-46.285	72.013	
197.00	-46.474	73.090	
198.00	-46.629	67.313	
199.00	-47.029	67.222	
200.00	-47.501	62.318	
201.00	-47.770	62.987	
202.00	-48.244	62.163	
203.00	-48.776	53.784	
204.00	-49.578	51.546	
205.00	-50.465	38.200	
206.00	-51.282	36.352	
207.00	-52.294	30.277	
208.00	-52.793	26.304	
209.00	-53.940	20.532	
210.00	-56.393	11.007	
211.00	-57.340	-1.061	
212.00	-59.092	-15.411	
213.00	-61.139	-36.629	
214.00	-61.095	-58.014	
215.00	-62.162	-75.151	
216.00	-60.962	-97.626	
217.00	-60.468	-114.561	
218.00	-59.591	-124.424	
219.00	-59.221	-131.047	
220.00	-58.757	-134.665	
221.00	-59.425	-146.744	
222.00	-60.281	-150.683	
223.00	-60.144	-156.010	
224.00	-61.952	-159.614	
225.00	-63.474	-166.229	
226.00	-64.765	-177.753	
227.00	-68.228	-170.847	
228.00	-68.767	-176.221	
229.00	-71.219	-158.594	
230.00	-70.911	-120.921	
231.00	-67.307	-117.649	
232.00	-66.502	-129.552	
233.00	-63.882	-126.460	
234.00	-62.159	-149.352	
235.00	-60.874	-155.489	
236.00	-60.130	-161.336	
237.00	-59.143	-175.443	
238.00	-57.245	-177.736	
239.00	-57.673	172.849	
240.00	-57.608	163.017	
241.00	-57.930	153.205	
242.00	-58.208	140.511	
243.00	-57.895	126.928	
244.00	-58.366	109.685	
245.00	-58.166	95.256	
246.00	-57.495	76.172	
247.00	-57.628	59.355	
248.00	-57.146	45.457	
249.00	-57.325	31.012	
250.00	-56.868	16.426	
251.00	-57.106	6.633	
252.00	-58.107	-10.810	
253.00	-58.464	-23.833	
254.00	-59.713	-44.367	
255.00	-59.759	-61.227	
256.00	-61.335	-87.450	
257.00	-61.876	-106.724	
258.00	-62.307	-126.366	
259.00	-61.088	-152.216	
260.00	-61.553	-159.118	
261.00	-61.217	178.959	
262.00	-61.716	165.146	
263.00	-62.436	153.880	
264.00	-63.203	131.823	
265.00	-62.920	110.152	
266.00	-64.341	94.302	
267.00	-65.236	67.912	
268.00	-65.754	53.021	
269.00	-67.762	33.023	
270.00	-68.878	25.606	
271.00	-72.301	0.718	
272.00	-82.369	-46.927	
273.00	-80.160	-152.383	
274.00	-69.596	153.557	
275.00	-64.601	152.214	
276.00	-62.263	134.331	
277.00	-59.392	129.292	
278.00	-57.867	116.450	
279.00	-57.773	107.293	
280.00	-56.375	93.435	
281.00	-56.129	79.136	
282.00	-57.054	64.680	
283.00	-56.283	53.132	
284.00	-56.681	37.211	
285.00	-57.320	10.983	
286.00	-58.192	-10.492	
287.00	-58.375	-34.317	
288.00	-58.562	-56.907	
289.00	-58.350	-71.853	
290.00	-58.064	-104.051	
291.00	-56.051	-121.376	
292.00	-55.653	-145.428	
293.00	-54.895	-158.017	
294.00	-53.647	-176.461	
295.00	-53.308	172.250	
296.00	-52.844	159.874	
297.00	-52.866	143.819	
298.00	-52.525	132.785	
299.00	-53.094	120.577	
300.00	-53.589	111.615	
301.00	-54.420	97.027	
302.00	-56.201	81.746	
303.00	-56.962	66.996	
304.00	-58.905	38.971	
305.00	-60.303	17.411	
306.00	-60.185	-2.303	
307.00	-60.405	-37.543	
308.00	-59.892	-63.388	
309.00	-58.808	-86.491	
310.00	-57.385	-103.410	
311.00	-55.844	-117.996	
312.00	-55.414	-130.472	
313.00	-55.265	-139.462	
314.00	-55.220	-154.645	
315.00	-55.809	-169.052	
316.00	-55.093	-177.386	
317.00	-55.633	170.755	
318.00	-55.590	164.404	
319.00	-56.602	150.991	
320.00	-56.657	146.857	
321.00	-57.462	142.449	
322.00	-58.397	143.428	
323.00	-59.272	138.059	
324.00	-60.159	139.851	
325.00	-61.779	152.036	
326.00	-61.160	160.770	
327.00	-61.998	167.178	
328.00	-60.514	176.792	
329.00	-59.803	176.138	
330.00	-58.609	179.401	
331.00	-57.634	-179.038	
332.00	-57.273	-176.440	
333.00	-57.202	177.099	
334.00	-56.462	176.553	
335.00	-56.180	172.445	
336.00	-57.616	169.587	
337.00	-58.246	171.058	
338.00	-58.864	171.819	
339.00	-59.580	171.107	
340.00	-62.335	172.927	
341.00	-63.933	177.039	
342.00	-65.889	169.004	
343.00	-73.106	-175.022	
344.00	-87.294	-38.652	
345.00	-76.326	-98.188	
346.00	-74.135	-56.280	
347.00	-70.333	-64.614	
348.00	-71.652	-65.793	
349.00	-66.988	-55.871	
350.00	-69.579	-88.853	
351.00	-65.351	-89.469	
352.00	-67.653	-90.499	
353.00	-62.509	-93.334	
354.00	-61.608	-113.382	
355.00	-61.710	-122.951	
356.00	-60.430	-127.304	
357.00	-59.669	-130.980	
358.00	-59.606	-139.625	
359.00	-58.735	-137.959	
Frequency	2170.00	MHz	
Channel	test		
Scan Axis name	Azimuth  [deg]		
Scan Axis	Amplitude	Phase	
			
0.00	-57.522	99.262	
1.00	-58.634	91.789	
2.00	-60.455	99.483	
3.00	-61.447	83.040	
4.00	-62.259	74.711	
5.00	-68.467	61.990	
6.00	-66.348	43.096	
7.00	-70.866	43.713	
8.00	-78.486	-42.930	
9.00	-76.940	-9.087	
10.00	-70.328	-78.984	
11.00	-66.066	-91.353	
12.00	-64.571	-109.235	
13.00	-61.788	-110.687	
14.00	-60.815	-111.172	
15.00	-58.844	-115.719	
16.00	-57.736	-118.319	
17.00	-56.440	-123.722	
18.00	-55.553	-119.156	
19.00	-55.121	-120.835	
20.00	-53.925	-116.615	
21.00	-54.443	-116.095	
22.00	-54.313	-116.071	
23.00	-54.742	-113.305	
24.00	-54.286	-111.769	
25.00	-53.811	-110.148	
26.00	-53.497	-107.516	
27.00	-55.134	-101.338	
28.00	-54.640	-99.660	
29.00	-55.188	-96.241	
30.00	-56.519	-85.232	
31.00	-57.717	-76.872	
32.00	-58.505	-69.393	
33.00	-61.421	-62.894	
34.00	-64.476	-55.649	
35.00	-68.040	-39.086	
36.00	-64.640	-41.731	
37.00	-74.286	1.110	
38.00	-73.123	90.955	
39.00	-66.418	116.861	
40.00	-64.283	122.096	
41.00	-61.444	138.921	
42.00	-63.278	138.528	
43.00	-61.833	148.377	
44.00	-61.655	158.123	
45.00	-60.154	166.728	
46.00	-60.665	164.320	
47.00	-61.862	-166.747	
48.00	-63.019	-162.596	
49.00	-62.716	-149.710	
50.00	-66.443	-114.402	
51.00	-65.805	-108.093	
52.00	-66.667	-90.283	
53.00	-65.624	-51.327	
54.00	-64.519	-23.208	
55.00	-65.852	11.848	
56.00	-63.512	2.093	
57.00	-66.989	33.404	
58.00	-66.703	46.730	
59.00	-63.156	63.471	
60.00	-64.142	60.079	
61.00	-64.642	90.017	
62.00	-67.047	119.681	
63.00	-68.382	150.178	
64.00	-66.180	170.231	
65.00	-67.635	-163.743	
66.00	-64.170	-126.687	
67.00	-64.948	-110.247	
68.00	-61.976	-81.830	
69.00	-62.179	-74.377	
70.00	-61.869	-56.501	
71.00	-61.227	-51.013	
72.00	-60.198	-35.734	
73.00	-62.226	-16.995	
74.00	-62.645	-8.510	
75.00	-62.467	26.591	
76.00	-61.466	34.399	
77.00	-62.745	53.980	
78.00	-62.515	75.243	
79.00	-63.387	106.963	
80.00	-63.417	124.118	
81.00	-65.196	147.473	
82.00	-66.935	-175.134	
83.00	-66.066	-156.092	
84.00	-67.663	-126.337	
85.00	-64.547	-106.147	
86.00	-63.195	-79.377	
87.00	-63.221	-56.553	
88.00	-60.436	-26.104	
89.00	-59.963	-5.633	
90.00	-58.204	7.424	
91.00	-57.331	25.287	
92.00	-56.478	40.782	
93.00	-55.336	59.790	
94.00	-55.404	70.897	
95.00	-54.596	88.566	
96.00	-54.517	94.280	
97.00	-54.425	116.723	
98.00	-55.648	141.431	
99.00	-55.821	160.651	
100.00	-56.464	177.285	
101.00	-56.798	-158.470	
102.00	-57.060	-133.564	
103.00	-57.131	-111.286	
104.00	-56.392	-86.540	
105.00	-55.500	-65.603	
106.00	-55.093	-45.813	
107.00	-53.558	-20.700	
108.00	-53.684	-7.651	
109.00	-52.258	11.963	
110.00	-52.006	28.686	
111.00	-51.619	44.446	
112.00	-52.077	58.775	
113.00	-51.711	87.906	
114.00	-51.676	101.883	
115.00	-50.827	126.125	
116.00	-50.760	141.434	
117.00	-50.573	162.175	
118.00	-50.016	176.050	
119.00	-50.491	-169.543	
120.00	-49.228	-145.096	
121.00	-48.959	-124.210	
122.00	-48.683	-108.814	
123.00	-48.104	-90.927	
124.00	-47.756	-72.764	
125.00	-47.332	-57.705	
126.00	-47.345	-38.010	
127.00	-46.749	-22.755	
128.00	-46.862	-0.512	
129.00	-46.586	14.599	
130.00	-46.443	33.712	
131.00	-46.265	46.822	
132.00	-46.413	63.904	
133.00	-46.381	78.864	
134.00	-46.213	99.391	
135.00	-46.261	114.942	
136.00	-46.127	131.282	
137.00	-46.145	147.663	
138.00	-45.895	163.135	
139.00	-46.349	-176.775	
140.00	-46.229	-167.473	
141.00	-46.280	-149.651	
142.00	-46.465	-133.312	
143.00	-46.552	-116.220	
144.00	-46.818	-101.511	
145.00	-47.033	-83.849	
146.00	-46.883	-62.265	
147.00	-46.930	-46.603	
148.00	-46.610	-28.013	
149.00	-46.251	-11.163	
150.00	-45.648	7.745	
151.00	-44.924	18.013	
152.00	-44.319	32.397	
153.00	-43.797	43.477	
154.00	-42.470	57.121	
155.00	-42.730	68.316	
156.00	-42.477	81.099	
157.00	-42.158	91.215	
158.00	-41.723	102.308	
159.00	-41.432	111.907	
160.00	-41.330	120.397	
161.00	-41.215	130.614	
162.00	-41.286	139.672	
163.00	-41.204	143.641	
164.00	-41.239	152.670	
165.00	-41.345	163.439	
166.00	-41.195	169.748	
167.00	-41.296	179.061	
168.00	-41.368	-177.028	
169.00	-41.289	-167.282	
170.00	-41.401	-162.065	
171.00	-41.436	-154.043	
172.00	-41.606	-149.204	
173.00	-41.704	-140.821	
174.00	-41.979	-137.879	
175.00	-41.967	-127.563	
176.00	-42.014	-125.964	
177.00	-42.034	-124.258	
178.00	-42.262	-113.569	
179.00	-42.393	-110.470	
180.00	-42.521	-102.213	
181.00	-42.681	-99.972	
182.00	-42.542	-95.055	
183.00	-42.590	-91.222	
184.00	-42.667	-81.076	
185.00	-42.693	-82.236	
186.00	-42.605	-77.900	
187.00	-42.431	-75.682	
188.00	-42.627	-69.526	
189.00	-42.395	-69.479	
190.00	-42.490	-70.864	
191.00	-42.343	-71.310	
192.00	-42.308	-69.377	
193.00	-42.043	-67.530	
194.00	-42.288	-69.613	
195.00	-42.183	-75.067	
196.00	-42.288	-76.014	
197.00	-42.242	-74.915	
198.00	-42.292	-81.269	
199.00	-42.476	-82.985	
200.00	-42.645	-87.283	
201.00	-42.875	-88.619	
202.00	-42.971	-90.073	
203.00	-43.260	-97.569	
204.00	-43.873	-102.006	
205.00	-43.907	-114.626	
206.00	-44.299	-117.170	
207.00	-44.780	-121.119	
208.00	-45.297	-126.247	
209.00	-45.549	-129.157	
210.00	-46.055	-134.088	
211.00	-46.055	-145.328	
212.00	-47.367	-147.076	
213.00	-47.801	-157.014	
214.00	-48.465	-161.732	
215.00	-48.825	-165.976	
216.00	-49.881	-175.107	
217.00	-50.243	179.245	
218.00	-51.152	170.816	
219.00	-51.608	169.799	
220.00	-52.559	165.704	
221.00	-53.417	157.693	
222.00	-54.820	150.564	
223.00	-55.048	147.006	
224.00	-55.451	144.498	
225.00	-56.099	135.452	
226.00	-56.517	125.680	
227.00	-56.501	119.899	
228.00	-56.723	112.882	
229.00	-56.010	107.422	
230.00	-56.972	99.901	
231.00	-56.495	90.219	
232.00	-56.599	78.056	
233.00	-56.596	66.150	
234.00	-56.466	56.073	
235.00	-56.887	39.097	
236.00	-56.844	24.260	
237.00	-56.587	8.529	
238.00	-56.646	-8.508	
239.00	-56.396	-20.965	
240.00	-55.425	-34.708	
241.00	-55.256	-47.196	
242.00	-55.031	-64.468	
243.00	-54.561	-73.742	
244.00	-54.557	-89.288	
245.00	-54.517	-102.298	
246.00	-54.301	-117.345	
247.00	-55.044	-135.228	
248.00	-54.993	-147.867	
249.00	-55.271	-166.253	
250.00	-55.036	172.869	
251.00	-54.338	154.936	
252.00	-55.253	131.673	
253.00	-54.566	122.318	
254.00	-54.434	104.830	
255.00	-54.846	90.200	
256.00	-55.175	78.006	
257.00	-56.099	65.412	
258.00	-56.231	51.840	
259.00	-57.502	33.726	
260.00	-58.536	18.485	
261.00	-60.784	-3.392	
262.00	-61.023	-14.374	
263.00	-62.383	-53.106	
264.00	-64.503	-104.946	
265.00	-60.741	-130.345	
266.00	-58.888	-144.521	
267.00	-57.003	-167.983	
268.00	-55.938	-176.300	
269.00	-55.387	171.743	
270.00	-54.881	159.521	
271.00	-54.779	148.117	
272.00	-55.596	138.907	
273.00	-56.474	122.673	
274.00	-57.768	107.843	
275.00	-59.802	85.027	
276.00	-60.088	62.457	
277.00	-62.262	24.581	
278.00	-62.156	0.696	
279.00	-60.547	-27.966	
280.00	-58.065	-53.555	
281.00	-57.740	-63.204	
282.00	-57.203	-82.260	
283.00	-57.333	-99.143	
284.00	-57.753	-116.315	
285.00	-57.843	-149.548	
286.00	-58.127	-175.374	
287.00	-57.745	165.209	
288.00	-57.209	142.012	
289.00	-57.151	126.437	
290.00	-56.673	107.247	
291.00	-56.230	91.686	
292.00	-57.362	70.226	
293.00	-58.588	53.873	
294.00	-58.932	35.774	
295.00	-59.453	7.163	
296.00	-60.725	-19.311	
297.00	-60.866	-54.163	
298.00	-59.274	-79.889	
299.00	-58.541	-98.496	
300.00	-58.053	-115.769	
301.00	-58.239	-138.289	
302.00	-58.721	-158.003	
303.00	-57.589	178.422	
304.00	-56.381	158.812	
305.00	-55.777	138.523	
306.00	-55.321	122.092	
307.00	-54.566	103.652	
308.00	-54.308	91.628	
309.00	-54.387	79.715	
310.00	-55.168	60.832	
311.00	-55.954	46.479	
312.00	-57.135	27.506	
313.00	-57.559	8.228	
314.00	-59.124	-8.803	
315.00	-58.343	-46.355	
316.00	-57.881	-63.281	
317.00	-56.513	-90.905	
318.00	-56.296	-105.153	
319.00	-55.994	-120.462	
320.00	-56.397	-137.784	
321.00	-57.159	-154.530	
322.00	-57.009	-168.826	
323.00	-57.817	167.815	
324.00	-56.764	144.362	
325.00	-56.569	124.899	
326.00	-55.144	112.862	
327.00	-54.910	94.208	
328.00	-54.830	78.211	
329.00	-54.218	63.903	
330.00	-54.358	50.859	
331.00	-54.468	38.567	
332.00	-55.454	26.413	
333.00	-55.488	13.449	
334.00	-57.175	-3.782	
335.00	-57.714	-14.366	
336.00	-56.985	-38.157	
337.00	-57.200	-54.169	
338.00	-59.094	-73.311	
339.00	-57.204	-92.525	
340.00	-58.100	-113.461	
341.00	-55.632	-113.545	
342.00	-56.864	-133.945	
343.00	-56.627	-144.948	
344.00	-56.463	-155.995	
345.00	-56.968	-170.861	
346.00	-57.685	178.079	
347.00	-56.678	163.988	
348.00	-56.788	147.606	
349.00	-55.281	133.650	
350.00	-55.109	133.157	
351.00	-54.845	123.801	
352.00	-54.890	117.788	
353.00	-54.545	110.908	
354.00	-54.579	106.481	
355.00	-54.316	104.496	
356.00	-53.898	102.818	
357.00	-54.670	101.986	
358.00	-55.116	101.085	
359.00	-56.873	90.624	
Frequency	2300.00	MHz	
Channel	test		
Scan Axis name	Azimuth  [deg]		
Scan Axis	Amplitude	Phase	
			
0.00	-60.980	-93.125	
1.00	-59.285	-85.517	
2.00	-62.607	-87.214	
3.00	-62.100	-68.958	
4.00	-61.203	-79.986	
5.00	-60.538	-88.387	
6.00	-60.473	-74.657	
7.00	-60.907	-80.394	
8.00	-61.107	-70.229	
9.00	-61.800	-72.724	
10.00	-65.024	-67.229	
11.00	-67.600	-58.882	
12.00	-67.838	-52.214	
13.00	-69.926	-56.010	
14.00	-70.218	-47.303	
15.00	-72.723	-35.156	
16.00	-84.272	-69.996	
17.00	-79.242	-158.993	
18.00	-76.730	132.677	
19.00	-67.059	131.596	
20.00	-72.159	120.584	
21.00	-70.776	107.268	
22.00	-68.728	161.686	
23.00	-64.189	123.128	
24.00	-70.748	148.817	
25.00	-69.081	124.998	
26.00	-70.561	-173.567	
27.00	-71.394	159.652	
28.00	-71.926	-153.417	
29.00	-76.076	-171.977	
30.00	-72.301	-136.433	
31.00	-78.083	172.319	
32.00	-78.684	-115.942	
33.00	-71.978	41.925	
34.00	-84.666	-7.019	
35.00	-73.198	41.306	
36.00	-76.051	133.873	
37.00	-74.103	141.998	
38.00	-69.322	131.682	
39.00	-76.595	165.815	
40.00	-66.788	136.155	
41.00	-69.386	161.210	
42.00	-65.995	152.125	
43.00	-67.470	173.095	
44.00	-63.477	-141.234	
45.00	-66.095	-119.522	
46.00	-60.813	-141.148	
47.00	-59.360	-107.013	
48.00	-58.166	-98.909	
49.00	-59.867	-96.979	
50.00	-59.793	-81.536	
51.00	-60.000	-61.374	
52.00	-58.540	-47.773	
53.00	-59.422	-42.977	
54.00	-58.314	-29.229	
55.00	-59.532	-10.827	
56.00	-60.657	6.526	
57.00	-60.358	9.474	
58.00	-60.271	29.342	
59.00	-59.573	47.723	
60.00	-65.663	67.870	
61.00	-63.783	110.742	
62.00	-62.923	120.148	
63.00	-61.686	156.847	
64.00	-60.101	174.949	
65.00	-61.486	-175.782	
66.00	-62.038	-172.617	
67.00	-60.212	-148.785	
68.00	-62.242	-126.385	
69.00	-65.442	-108.640	
70.00	-61.566	-82.585	
71.00	-59.556	-34.839	
72.00	-59.007	-32.125	
73.00	-60.518	2.005	
74.00	-58.105	6.828	
75.00	-59.301	31.436	
76.00	-56.771	30.738	
77.00	-59.507	47.595	
78.00	-57.695	66.853	
79.00	-59.376	79.856	
80.00	-61.312	83.827	
81.00	-59.780	106.361	
82.00	-64.231	120.046	
83.00	-65.860	177.092	
84.00	-62.414	-156.498	
85.00	-60.817	-128.026	
86.00	-69.412	-135.799	
87.00	-63.151	-92.514	
88.00	-60.569	-74.924	
89.00	-63.054	-66.632	
90.00	-59.011	-49.982	
91.00	-59.908	-34.798	
92.00	-63.243	-23.200	
93.00	-62.097	-10.166	
94.00	-63.224	2.629	
95.00	-65.415	8.398	
96.00	-69.633	59.525	
97.00	-71.447	61.692	
98.00	-72.738	-122.337	
99.00	-66.133	-125.348	
100.00	-63.025	-130.571	
101.00	-66.215	-124.365	
102.00	-61.504	-100.450	
103.00	-59.167	-71.636	
104.00	-57.876	-57.909	
105.00	-57.493	-55.501	
106.00	-58.389	-51.350	
107.00	-57.324	-12.919	
108.00	-56.412	-12.194	
109.00	-57.244	-5.085	
110.00	-57.918	28.946	
111.00	-57.810	45.798	
112.00	-59.763	80.303	
113.00	-58.872	110.105	
114.00	-57.960	127.145	
115.00	-57.071	166.227	
116.00	-58.764	179.011	
117.00	-55.499	-150.352	
118.00	-54.997	-136.969	
119.00	-53.115	-115.958	
120.00	-51.879	-100.435	
121.00	-52.651	-84.808	
122.00	-50.988	-72.010	
123.00	-51.448	-54.275	
124.00	-51.288	-35.043	
125.00	-50.680	-20.390	
126.00	-51.386	1.008	
127.00	-50.118	15.683	
128.00	-49.753	27.115	
129.00	-49.560	53.807	
130.00	-50.553	69.437	
131.00	-50.171	83.292	
132.00	-50.514	106.990	
133.00	-50.395	123.922	
134.00	-50.419	141.694	
135.00	-50.962	162.105	
136.00	-51.335	-179.103	
137.00	-49.932	-154.194	
138.00	-50.305	-132.429	
139.00	-49.872	-112.394	
140.00	-48.556	-100.834	
141.00	-48.388	-79.829	
142.00	-47.599	-66.800	
143.00	-47.969	-48.966	
144.00	-47.886	-36.104	
145.00	-47.588	-20.701	
146.00	-47.642	-5.154	
147.00	-47.637	7.027	
148.00	-47.092	24.934	
149.00	-47.185	38.813	
150.00	-46.995	56.581	
151.00	-46.976	67.281	
152.00	-46.816	88.868	
153.00	-46.323	99.905	
154.00	-45.444	115.958	
155.00	-45.373	126.939	
156.00	-44.827	142.063	
157.00	-44.669	153.632	
158.00	-44.328	166.474	
159.00	-43.819	179.020	
160.00	-43.345	-172.023	
161.00	-43.105	-164.220	
162.00	-42.894	-152.606	
163.00	-43.005	-148.410	
164.00	-42.848	-140.673	
165.00	-42.884	-130.755	
166.00	-42.717	-123.119	
167.00	-42.647	-113.543	
168.00	-42.928	-109.349	
169.00	-42.987	-99.702	
170.00	-42.815	-92.906	
171.00	-43.019	-85.505	
172.00	-42.999	-79.853	
173.00	-43.073	-72.095	
174.00	-43.128	-67.289	
175.00	-43.224	-57.369	
176.00	-43.332	-54.754	
177.00	-43.120	-53.358	
178.00	-43.208	-42.039	
179.00	-43.188	-37.004	
180.00	-42.837	-30.902	
181.00	-43.009	-27.935	
182.00	-43.005	-23.720	
183.00	-42.768	-19.695	
184.00	-42.774	-10.991	
185.00	-42.827	-12.697	
186.00	-42.899	-8.677	
187.00	-42.637	-8.088	
188.00	-42.637	-1.651	
189.00	-42.688	-3.136	
190.00	-42.763	-5.476	
191.00	-42.948	-6.046	
192.00	-43.041	-6.123	
193.00	-43.281	-4.213	
194.00	-43.566	-8.354	
195.00	-43.848	-12.755	
196.00	-44.011	-15.988	
197.00	-44.261	-16.027	
198.00	-44.677	-24.593	
199.00	-44.616	-27.372	
200.00	-45.080	-32.342	
201.00	-45.374	-35.164	
202.00	-45.494	-36.437	
203.00	-45.821	-45.025	
204.00	-45.662	-49.980	
205.00	-46.388	-64.645	
206.00	-46.631	-65.273	
207.00	-46.949	-71.066	
208.00	-47.529	-73.428	
209.00	-48.101	-79.411	
210.00	-48.263	-80.363	
211.00	-48.498	-93.997	
212.00	-49.144	-97.557	
213.00	-49.610	-105.464	
214.00	-49.997	-110.690	
215.00	-50.187	-116.048	
216.00	-50.657	-124.560	
217.00	-50.783	-132.229	
218.00	-52.050	-141.411	
219.00	-51.397	-143.764	
220.00	-52.290	-150.547	
221.00	-52.372	-157.798	
222.00	-52.536	-169.941	
223.00	-52.704	-179.245	
224.00	-52.194	178.340	
225.00	-52.148	164.499	
226.00	-51.763	156.211	
227.00	-50.910	144.582	
228.00	-51.566	137.675	
229.00	-51.021	133.053	
230.00	-51.648	121.012	
231.00	-52.356	109.640	
232.00	-52.146	105.562	
233.00	-51.918	83.684	
234.00	-52.143	65.032	
235.00	-53.229	55.311	
236.00	-53.263	36.445	
237.00	-52.473	25.859	
238.00	-52.465	11.843	
239.00	-52.313	-5.446	
240.00	-52.334	-18.862	
241.00	-52.485	-31.631	
242.00	-52.218	-47.329	
243.00	-52.868	-63.130	
244.00	-53.028	-78.688	
245.00	-53.309	-91.129	
246.00	-52.897	-105.241	
247.00	-53.033	-122.746	
248.00	-53.260	-141.592	
249.00	-53.824	-156.520	
250.00	-53.519	-173.352	
251.00	-53.451	178.441	
252.00	-55.371	156.270	
253.00	-54.704	144.493	
254.00	-55.417	129.140	
255.00	-57.027	114.187	
256.00	-58.279	89.440	
257.00	-57.574	89.974	
258.00	-58.288	72.180	
259.00	-60.568	32.733	
260.00	-61.154	16.159	
261.00	-60.970	-10.949	
262.00	-59.857	-15.082	
263.00	-59.994	-40.892	
264.00	-61.240	-54.418	
265.00	-57.938	-94.022	
266.00	-58.265	-105.098	
267.00	-56.851	-122.396	
268.00	-57.186	-132.363	
269.00	-55.365	-143.460	
270.00	-55.677	-157.669	
271.00	-55.869	-168.032	
272.00	-55.771	-178.522	
273.00	-55.735	166.632	
274.00	-56.744	154.682	
275.00	-57.156	140.858	
276.00	-58.110	126.668	
277.00	-59.828	101.488	
278.00	-60.623	83.850	
279.00	-60.706	62.338	
280.00	-60.710	39.378	
281.00	-61.067	14.093	
282.00	-59.944	-19.840	
283.00	-58.882	-32.871	
284.00	-59.293	-55.587	
285.00	-58.034	-76.994	
286.00	-58.350	-95.996	
287.00	-58.840	-106.830	
288.00	-59.967	-117.504	
289.00	-62.704	-141.818	
290.00	-63.080	-160.543	
291.00	-68.140	158.588	
292.00	-67.927	98.100	
293.00	-65.787	60.807	
294.00	-62.219	40.378	
295.00	-60.302	16.406	
296.00	-59.224	2.853	
297.00	-59.199	-3.359	
298.00	-58.766	-13.377	
299.00	-58.390	-24.494	
300.00	-59.354	-32.500	
301.00	-60.553	-49.000	
302.00	-63.780	-71.941	
303.00	-69.389	-65.738	
304.00	-69.371	-131.976	
305.00	-68.624	173.335	
306.00	-64.091	143.136	
307.00	-62.469	128.448	
308.00	-61.260	93.105	
309.00	-61.042	73.051	
310.00	-59.220	62.437	
311.00	-59.368	48.521	
312.00	-59.350	33.056	
313.00	-60.423	10.423	
314.00	-59.826	-6.468	
315.00	-58.760	-26.807	
316.00	-59.198	-44.430	
317.00	-58.313	-66.585	
318.00	-57.123	-74.414	
319.00	-56.619	-83.279	
320.00	-57.509	-92.277	
321.00	-58.249	-95.082	
322.00	-59.659	-101.756	
323.00	-63.784	-107.128	
324.00	-62.810	-119.632	
325.00	-65.861	-125.172	
326.00	-74.275	-123.887	
327.00	-72.425	-124.387	
328.00	-76.028	-95.830	
329.00	-79.889	-76.883	
330.00	-75.213	-60.122	
331.00	-67.192	-69.075	
332.00	-69.292	-47.485	
333.00	-66.183	-90.073	
334.00	-65.796	-95.206	
335.00	-62.133	-87.581	
336.00	-62.763	-90.826	
337.00	-61.991	-101.248	
338.00	-61.694	-108.771	
339.00	-59.767	-114.721	
340.00	-61.810	-115.918	
341.00	-61.250	-121.173	
342.00	-61.023	-129.632	
343.00	-62.210	-141.071	
344.00	-61.374	-155.104	
345.00	-61.399	-147.473	
346.00	-63.567	-159.067	
347.00	-64.717	-165.409	
348.00	-62.799	-167.967	
349.00	-62.325	-168.547	
350.00	-64.591	-152.121	
351.00	-63.689	-163.176	
352.00	-65.630	-164.760	
353.00	-63.815	-146.610	
354.00	-65.186	-146.723	
355.00	-63.488	-120.231	
356.00	-61.981	-106.355	
357.00	-64.962	-98.561	
358.00	-65.021	-92.223	
359.00	-61.857	-86.433	
Frequency	2350.00	MHz	
Channel	test		
Scan Axis name	Azimuth  [deg]		
Scan Axis	Amplitude	Phase	
			
0.00	-60.514	80.544	
1.00	-60.955	70.639	
2.00	-61.555	66.546	
3.00	-62.134	60.329	
4.00	-62.299	53.195	
5.00	-63.788	44.023	
6.00	-64.502	36.914	
7.00	-66.127	20.081	
8.00	-67.090	6.608	
9.00	-70.156	-2.973	
10.00	-68.217	-37.241	
11.00	-72.415	-40.713	
12.00	-70.223	-70.367	
13.00	-69.994	-80.216	
14.00	-66.031	-99.116	
15.00	-63.474	-102.813	
16.00	-62.215	-106.511	
17.00	-62.329	-107.357	
18.00	-61.194	-105.099	
19.00	-61.041	-111.962	
20.00	-60.780	-112.049	
21.00	-60.552	-108.022	
22.00	-60.470	-105.659	
23.00	-61.154	-104.460	
24.00	-61.246	-95.262	
25.00	-61.915	-98.956	
26.00	-62.123	-92.504	
27.00	-63.095	-83.833	
28.00	-62.997	-79.609	
29.00	-62.991	-71.646	
30.00	-64.387	-65.406	
31.00	-64.815	-42.656	
32.00	-65.193	-40.058	
33.00	-67.079	-27.795	
34.00	-68.279	-31.070	
35.00	-65.720	-16.793	
36.00	-69.025	-0.019	
37.00	-68.349	-14.284	
38.00	-69.123	8.441	
39.00	-69.767	-1.851	
40.00	-68.394	-15.241	
41.00	-72.179	-0.076	
42.00	-76.127	-100.374	
43.00	-71.506	-43.917	
44.00	-67.373	-48.120	
45.00	-69.316	-60.559	
46.00	-67.331	-37.300	
47.00	-67.023	-62.334	
48.00	-67.295	-41.900	
49.00	-67.310	-58.893	
50.00	-67.616	-63.793	
51.00	-66.916	-48.362	
52.00	-66.418	-96.118	
53.00	-66.950	-95.844	
54.00	-65.904	-102.299	
55.00	-62.927	-108.039	
56.00	-61.427	-99.265	
57.00	-59.055	-99.884	
58.00	-60.060	-94.003	
59.00	-58.361	-93.546	
60.00	-57.149	-78.817	
61.00	-56.175	-66.691	
62.00	-56.100	-62.628	
63.00	-56.063	-55.008	
64.00	-57.113	-44.319	
65.00	-56.964	-30.363	
66.00	-57.456	-21.360	
67.00	-58.154	-11.605	
68.00	-57.696	1.996	
69.00	-60.937	25.429	
70.00	-59.803	40.337	
71.00	-60.453	63.638	
72.00	-63.083	83.445	
73.00	-61.624	123.329	
74.00	-63.842	152.555	
75.00	-62.046	174.849	
76.00	-63.653	-170.818	
77.00	-59.847	-136.262	
78.00	-59.758	-130.621	
79.00	-59.070	-115.808	
80.00	-61.094	-96.631	
81.00	-58.097	-68.249	
82.00	-57.923	-67.177	
83.00	-59.877	-38.179	
84.00	-58.319	-13.526	
85.00	-59.504	3.182	
86.00	-58.841	19.965	
87.00	-58.965	28.333	
88.00	-57.973	55.645	
89.00	-58.372	69.037	
90.00	-60.372	80.727	
91.00	-60.658	102.657	
92.00	-59.993	122.237	
93.00	-63.274	147.694	
94.00	-60.784	171.472	
95.00	-62.964	-166.001	
96.00	-61.098	-148.094	
97.00	-62.442	-122.811	
98.00	-62.126	-84.324	
99.00	-62.140	-51.266	
100.00	-60.493	-26.546	
101.00	-61.285	-8.325	
102.00	-57.896	12.295	
103.00	-57.687	30.860	
104.00	-55.989	48.264	
105.00	-56.458	66.402	
106.00	-55.906	85.887	
107.00	-56.129	100.824	
108.00	-56.674	123.098	
109.00	-56.445	141.695	
110.00	-55.742	151.429	
111.00	-55.013	-178.961	
112.00	-55.302	-158.682	
113.00	-54.242	-127.622	
114.00	-54.257	-111.987	
115.00	-53.744	-82.504	
116.00	-53.448	-67.223	
117.00	-53.134	-48.534	
118.00	-52.102	-33.839	
119.00	-51.711	-15.987	
120.00	-50.953	-1.398	
121.00	-50.929	12.901	
122.00	-50.768	26.265	
123.00	-51.092	45.388	
124.00	-51.446	62.758	
125.00	-51.619	75.093	
126.00	-51.595	99.264	
127.00	-53.405	117.689	
128.00	-53.803	138.573	
129.00	-54.316	165.880	
130.00	-55.396	-166.951	
131.00	-55.368	-145.160	
132.00	-54.574	-111.615	
133.00	-54.278	-92.493	
134.00	-53.634	-65.709	
135.00	-53.165	-45.943	
136.00	-52.548	-28.703	
137.00	-51.193	-7.370	
138.00	-50.513	11.847	
139.00	-49.728	33.734	
140.00	-49.076	44.415	
141.00	-48.876	63.615	
142.00	-48.382	77.318	
143.00	-48.088	93.639	
144.00	-47.974	105.551	
145.00	-47.816	122.958	
146.00	-47.614	137.807	
147.00	-47.735	155.017	
148.00	-47.386	173.077	
149.00	-47.066	-173.475	
150.00	-46.779	-154.516	
151.00	-46.377	-141.246	
152.00	-45.925	-124.559	
153.00	-45.474	-113.037	
154.00	-45.044	-98.059	
155.00	-44.643	-86.033	
156.00	-44.240	-71.759	
157.00	-43.786	-60.492	
158.00	-43.515	-46.985	
159.00	-43.166	-35.964	
160.00	-42.969	-25.937	
161.00	-42.823	-15.323	
162.00	-42.668	-5.208	
163.00	-42.641	-0.818	
164.00	-42.533	9.263	
165.00	-42.550	21.860	
166.00	-42.492	29.200	
167.00	-42.573	40.123	
168.00	-42.464	43.899	
169.00	-42.503	55.092	
170.00	-42.443	62.109	
171.00	-42.524	71.177	
172.00	-42.522	76.447	
173.00	-42.519	85.453	
174.00	-42.460	89.003	
175.00	-42.374	99.116	
176.00	-42.389	102.660	
177.00	-42.415	103.782	
178.00	-42.373	114.609	
179.00	-42.347	118.416	
180.00	-42.389	125.095	
181.00	-42.340	128.274	
182.00	-42.334	131.920	
183.00	-42.383	134.708	
184.00	-42.382	143.407	
185.00	-42.492	141.879	
186.00	-42.554	144.710	
187.00	-42.639	145.001	
188.00	-42.739	149.187	
189.00	-42.771	148.981	
190.00	-42.844	147.324	
191.00	-43.079	144.857	
192.00	-43.205	144.861	
193.00	-43.309	146.241	
194.00	-43.503	142.417	
195.00	-43.614	138.002	
196.00	-43.818	135.582	
197.00	-43.908	135.476	
198.00	-44.057	128.570	
199.00	-44.279	127.059	
200.00	-44.485	122.708	
201.00	-44.718	120.819	
202.00	-44.927	120.185	
203.00	-45.141	113.217	
204.00	-45.507	109.604	
205.00	-45.927	96.454	
206.00	-46.177	95.301	
207.00	-46.481	91.922	
208.00	-46.753	89.120	
209.00	-47.271	83.648	
210.00	-47.586	83.054	
211.00	-47.839	71.069	
212.00	-48.245	72.176	
213.00	-48.630	60.150	
214.00	-48.866	55.113	
215.00	-49.207	51.288	
216.00	-49.331	40.328	
217.00	-49.574	32.744	
218.00	-49.830	21.926	
219.00	-50.036	19.040	
220.00	-50.265	13.064	
221.00	-50.396	4.240	
222.00	-50.603	-5.984	
223.00	-50.793	-15.665	
224.00	-51.010	-22.512	
225.00	-51.190	-35.337	
226.00	-51.431	-48.326	
227.00	-51.668	-59.319	
228.00	-51.639	-70.411	
229.00	-51.820	-80.480	
230.00	-51.801	-93.654	
231.00	-52.040	-110.808	
232.00	-52.218	-119.715	
233.00	-52.563	-135.256	
234.00	-52.816	-149.420	
235.00	-53.260	-163.995	
236.00	-53.460	179.337	
237.00	-53.914	166.333	
238.00	-53.922	150.145	
239.00	-54.411	134.764	
240.00	-54.669	122.648	
241.00	-54.850	109.443	
242.00	-55.348	92.059	
243.00	-55.722	79.363	
244.00	-56.110	66.088	
245.00	-57.146	53.894	
246.00	-58.188	37.121	
247.00	-59.561	19.117	
248.00	-60.374	3.050	
249.00	-60.859	-21.732	
250.00	-61.266	-41.391	
251.00	-61.330	-51.864	
252.00	-60.975	-72.625	
253.00	-63.971	-77.687	
254.00	-64.815	-90.865	
255.00	-65.421	-96.205	
256.00	-69.106	-105.485	
257.00	-71.222	-112.056	
258.00	-74.671	-101.231	
259.00	-84.103	-118.527	
260.00	-88.993	119.927	
261.00	-76.117	90.227	
262.00	-73.970	100.255	
263.00	-68.307	107.396	
264.00	-67.334	101.191	
265.00	-65.368	100.400	
266.00	-65.180	101.441	
267.00	-64.559	96.712	
268.00	-65.078	89.326	
269.00	-64.935	78.180	
270.00	-66.944	55.880	
271.00	-71.341	25.077	
272.00	-70.898	-17.774	
273.00	-66.476	-48.463	
274.00	-64.153	-67.896	
275.00	-61.466	-81.176	
276.00	-60.708	-89.218	
277.00	-60.027	-101.890	
278.00	-60.185	-109.876	
279.00	-60.934	-118.096	
280.00	-62.517	-133.603	
281.00	-64.582	-154.126	
282.00	-67.496	172.446	
283.00	-69.545	139.234	
284.00	-67.734	108.406	
285.00	-65.526	78.977	
286.00	-66.171	60.712	
287.00	-68.916	49.714	
288.00	-70.274	18.936	
289.00	-77.415	-15.747	
290.00	-72.062	-89.418	
291.00	-69.568	-118.568	
292.00	-65.569	-144.905	
293.00	-64.895	-149.492	
294.00	-63.063	-157.905	
295.00	-63.702	-178.138	
296.00	-64.947	-179.248	
297.00	-66.429	158.082	
298.00	-73.202	148.785	
299.00	-78.452	97.260	
300.00	-72.197	-4.344	
301.00	-68.376	-36.484	
302.00	-64.163	-39.027	
303.00	-64.189	-48.348	
304.00	-62.210	-52.597	
305.00	-62.477	-66.540	
306.00	-63.138	-69.761	
307.00	-63.400	-72.218	
308.00	-67.060	-74.307	
309.00	-73.325	-86.093	
310.00	-94.793	-1.917	
311.00	-75.029	64.657	
312.00	-67.778	65.868	
313.00	-65.044	60.808	
314.00	-63.951	50.854	
315.00	-62.362	39.439	
316.00	-62.342	39.240	
317.00	-61.435	24.639	
318.00	-61.060	22.498	
319.00	-61.913	12.598	
320.00	-62.754	1.834	
321.00	-64.706	-0.969	
322.00	-66.591	-13.295	
323.00	-69.789	15.052	
324.00	-72.117	26.781	
325.00	-69.991	51.677	
326.00	-66.352	55.955	
327.00	-62.822	66.886	
328.00	-61.236	64.122	
329.00	-59.760	59.192	
330.00	-59.227	52.941	
331.00	-58.715	46.027	
332.00	-58.498	36.278	
333.00	-58.078	24.988	
334.00	-58.373	10.992	
335.00	-58.398	-1.997	
336.00	-59.023	-22.040	
337.00	-58.582	-31.203	
338.00	-58.202	-49.487	
339.00	-57.175	-61.148	
340.00	-56.540	-72.052	
341.00	-56.116	-75.765	
342.00	-55.982	-83.007	
343.00	-56.113	-92.642	
344.00	-56.116	-99.707	
345.00	-56.992	-105.493	
346.00	-57.592	-111.305	
347.00	-59.008	-115.539	
348.00	-60.968	-126.814	
349.00	-63.879	-141.093	
350.00	-64.697	-153.301	
351.00	-64.979	171.658	
352.00	-65.640	158.790	
353.00	-64.506	138.351	
354.00	-62.999	123.627	
355.00	-62.078	105.930	
356.00	-61.670	100.270	
357.00	-61.226	87.777	
358.00	-61.010	89.593	
359.00	-60.812	79.384	
Frequency	2400.00	MHz	
Channel	test		
Scan Axis name	Azimuth  [deg]		
Scan Axis	Amplitude	Phase	
			
0.00	-66.556	-100.945	
1.00	-70.115	-118.287	
2.00	-73.312	-148.353	
3.00	-74.883	134.446	
4.00	-68.251	117.477	
5.00	-63.815	110.550	
6.00	-63.243	103.453	
7.00	-61.287	102.967	
8.00	-59.820	100.693	
9.00	-59.350	102.920	
10.00	-57.958	98.063	
11.00	-57.799	103.431	
12.00	-56.855	100.284	
13.00	-56.541	100.362	
14.00	-57.023	100.083	
15.00	-57.181	105.636	
16.00	-57.619	101.607	
17.00	-57.365	106.390	
18.00	-58.110	109.332	
19.00	-59.169	107.388	
20.00	-58.849	112.472	
21.00	-60.043	119.541	
22.00	-61.324	120.223	
23.00	-63.683	115.873	
24.00	-64.075	111.572	
25.00	-66.206	109.533	
26.00	-67.141	107.755	
27.00	-70.126	110.085	
28.00	-67.621	95.070	
29.00	-69.581	77.996	
30.00	-69.315	90.329	
31.00	-69.528	92.793	
32.00	-71.198	86.465	
33.00	-68.736	92.891	
34.00	-69.756	101.914	
35.00	-68.938	104.870	
36.00	-69.953	122.404	
37.00	-67.587	125.285	
38.00	-68.691	140.776	
39.00	-66.925	150.334	
40.00	-68.980	134.190	
41.00	-66.946	174.372	
42.00	-68.285	174.834	
43.00	-67.619	177.684	
44.00	-68.183	177.818	
45.00	-68.766	-173.780	
46.00	-68.580	-164.000	
47.00	-72.732	-169.066	
48.00	-78.321	-147.031	
49.00	-80.910	-168.683	
50.00	-80.933	133.545	
51.00	-74.019	67.995	
52.00	-72.440	50.073	
53.00	-69.593	52.054	
54.00	-71.221	67.411	
55.00	-68.062	69.859	
56.00	-67.447	79.649	
57.00	-64.410	74.730	
58.00	-64.839	83.752	
59.00	-64.788	88.074	
60.00	-64.162	85.324	
61.00	-63.509	93.399	
62.00	-62.838	105.177	
63.00	-63.389	105.918	
64.00	-63.818	112.570	
65.00	-63.610	109.988	
66.00	-66.070	120.741	
67.00	-62.860	138.940	
68.00	-67.188	146.155	
69.00	-67.813	149.365	
70.00	-68.430	-170.177	
71.00	-72.374	-171.620	
72.00	-68.782	-121.245	
73.00	-71.023	-84.979	
74.00	-69.442	-32.476	
75.00	-67.378	0.535	
76.00	-67.731	9.103	
77.00	-65.321	20.897	
78.00	-63.903	36.056	
79.00	-64.151	52.373	
80.00	-62.910	57.723	
81.00	-62.958	63.325	
82.00	-62.287	85.275	
83.00	-63.160	86.150	
84.00	-62.827	112.809	
85.00	-63.146	122.507	
86.00	-65.871	148.731	
87.00	-65.468	179.176	
88.00	-64.306	-158.567	
89.00	-64.318	-143.726	
90.00	-64.841	-116.732	
91.00	-64.094	-94.110	
92.00	-62.339	-82.265	
93.00	-64.638	-66.720	
94.00	-62.822	-34.189	
95.00	-63.554	-25.961	
96.00	-63.084	-0.409	
97.00	-62.516	13.774	
98.00	-64.707	45.201	
99.00	-64.494	75.612	
100.00	-62.988	105.043	
101.00	-64.652	129.824	
102.00	-62.737	147.497	
103.00	-62.595	173.568	
104.00	-61.387	-167.969	
105.00	-61.421	-148.764	
106.00	-60.274	-127.703	
107.00	-59.992	-104.347	
108.00	-58.399	-77.826	
109.00	-58.413	-54.239	
110.00	-56.887	-39.851	
111.00	-55.617	-20.321	
112.00	-54.868	-4.579	
113.00	-54.145	13.522	
114.00	-53.703	30.604	
115.00	-53.249	50.557	
116.00	-53.033	62.102	
117.00	-52.234	82.067	
118.00	-52.550	93.696	
119.00	-52.271	113.281	
120.00	-52.169	133.771	
121.00	-51.874	146.193	
122.00	-52.354	164.911	
123.00	-52.963	-175.654	
124.00	-53.138	-155.180	
125.00	-53.638	-139.122	
126.00	-53.897	-114.383	
127.00	-54.582	-90.450	
128.00	-54.108	-63.351	
129.00	-54.145	-42.124	
130.00	-52.883	-21.085	
131.00	-53.050	-3.086	
132.00	-53.251	18.719	
133.00	-52.850	36.796	
134.00	-52.583	59.042	
135.00	-52.666	74.215	
136.00	-52.512	93.561	
137.00	-52.546	116.188	
138.00	-52.458	134.181	
139.00	-52.826	161.180	
140.00	-52.624	174.493	
141.00	-52.010	-161.369	
142.00	-51.919	-143.887	
143.00	-51.733	-123.681	
144.00	-50.478	-106.661	
145.00	-50.194	-87.663	
146.00	-49.340	-71.107	
147.00	-49.031	-56.480	
148.00	-48.687	-39.548	
149.00	-48.091	-27.924	
150.00	-47.670	-9.350	
151.00	-47.442	-1.139	
152.00	-47.032	14.812	
153.00	-46.828	25.494	
154.00	-46.622	40.687	
155.00	-46.386	52.238	
156.00	-46.236	67.503	
157.00	-45.964	79.510	
158.00	-46.009	93.071	
159.00	-45.742	105.846	
160.00	-45.595	116.656	
161.00	-45.530	128.609	
162.00	-45.397	139.879	
163.00	-45.309	146.681	
164.00	-45.365	156.757	
165.00	-45.349	167.955	
166.00	-45.214	175.678	
167.00	-45.338	-171.728	
168.00	-45.343	-166.882	
169.00	-45.510	-155.136	
170.00	-45.557	-147.586	
171.00	-45.505	-137.737	
172.00	-45.566	-131.647	
173.00	-45.529	-120.559	
174.00	-45.573	-116.440	
175.00	-45.477	-106.615	
176.00	-45.478	-101.856	
177.00	-45.388	-101.311	
178.00	-45.379	-90.355	
179.00	-45.329	-85.079	
180.00	-45.269	-78.375	
181.00	-45.174	-75.404	
182.00	-45.193	-71.540	
183.00	-45.097	-69.038	
184.00	-45.125	-60.486	
185.00	-45.212	-62.869	
186.00	-45.238	-60.551	
187.00	-45.370	-59.974	
188.00	-45.523	-56.503	
189.00	-45.683	-56.784	
190.00	-45.824	-58.028	
191.00	-46.068	-60.735	
192.00	-46.373	-61.461	
193.00	-46.566	-59.089	
194.00	-46.769	-63.568	
195.00	-47.139	-67.009	
196.00	-47.342	-71.175	
197.00	-47.760	-70.800	
198.00	-47.898	-78.211	
199.00	-48.111	-79.151	
200.00	-48.776	-82.626	
201.00	-49.192	-86.128	
202.00	-49.481	-85.438	
203.00	-49.699	-92.680	
204.00	-50.130	-97.976	
205.00	-50.317	-111.400	
206.00	-50.874	-112.811	
207.00	-51.176	-117.332	
208.00	-51.535	-115.289	
209.00	-52.074	-120.965	
210.00	-52.995	-121.903	
211.00	-54.106	-136.301	
212.00	-54.111	-133.948	
213.00	-54.035	-145.030	
214.00	-54.097	-146.269	
215.00	-54.832	-154.764	
216.00	-55.604	-166.942	
217.00	-55.607	-172.881	
218.00	-55.771	174.459	
219.00	-55.940	170.632	
220.00	-55.884	163.082	
221.00	-56.331	152.043	
222.00	-56.624	139.673	
223.00	-56.568	128.535	
224.00	-56.698	117.609	
225.00	-56.465	102.329	
226.00	-56.164	87.887	
227.00	-55.748	76.525	
228.00	-55.726	66.886	
229.00	-55.950	57.118	
230.00	-55.671	44.086	
231.00	-55.545	25.705	
232.00	-55.635	21.200	
233.00	-56.880	11.066	
234.00	-57.871	-0.310	
235.00	-58.069	-16.450	
236.00	-59.509	-26.588	
237.00	-60.633	-43.987	
238.00	-61.158	-65.241	
239.00	-62.323	-81.269	
240.00	-62.806	-96.747	
241.00	-63.587	-115.298	
242.00	-64.619	-132.482	
243.00	-64.968	-144.501	
244.00	-65.083	-158.421	
245.00	-66.825	-174.420	
246.00	-67.216	177.060	
247.00	-69.010	164.960	
248.00	-71.014	175.736	
249.00	-69.962	175.609	
250.00	-68.994	-157.553	
251.00	-66.899	-177.282	
252.00	-67.791	162.785	
253.00	-65.830	160.356	
254.00	-65.825	139.368	
255.00	-63.877	128.727	
256.00	-63.139	108.092	
257.00	-61.470	97.427	
258.00	-60.619	86.639	
259.00	-60.213	69.321	
260.00	-59.477	58.918	
261.00	-59.163	43.677	
262.00	-59.356	30.606	
263.00	-59.392	15.142	
264.00	-59.936	-7.989	
265.00	-60.003	-30.196	
266.00	-60.332	-51.797	
267.00	-59.985	-76.761	
268.00	-60.315	-94.431	
269.00	-59.805	-115.723	
270.00	-60.262	-140.801	
271.00	-60.133	-158.345	
272.00	-60.103	-172.546	
273.00	-60.208	161.307	
274.00	-60.867	142.011	
275.00	-60.598	118.525	
276.00	-60.707	104.315	
277.00	-60.753	81.028	
278.00	-61.273	64.116	
279.00	-61.272	46.177	
280.00	-62.101	23.044	
281.00	-62.705	7.698	
282.00	-63.476	-8.413	
283.00	-64.437	-33.155	
284.00	-66.204	-51.133	
285.00	-69.221	-67.321	
286.00	-72.371	-84.165	
287.00	-80.839	-106.593	
288.00	-82.648	135.856	
289.00	-77.706	118.366	
290.00	-78.273	97.199	
291.00	-78.486	83.859	
292.00	-75.279	79.233	
293.00	-80.292	81.707	
294.00	-81.646	109.263	
295.00	-73.689	124.223	
296.00	-73.599	125.597	
297.00	-71.386	116.004	
298.00	-72.093	108.460	
299.00	-69.759	86.158	
300.00	-66.204	56.184	
301.00	-64.076	44.349	
302.00	-61.173	30.726	
303.00	-60.025	21.578	
304.00	-58.819	14.658	
305.00	-58.214	4.199	
306.00	-57.797	-7.265	
307.00	-57.939	-13.906	
308.00	-59.068	-23.775	
309.00	-60.228	-31.288	
310.00	-64.115	-36.879	
311.00	-68.940	-47.280	
312.00	-90.221	160.878	
313.00	-70.455	145.260	
314.00	-65.078	117.745	
315.00	-60.943	106.347	
316.00	-58.476	102.343	
317.00	-57.486	94.977	
318.00	-56.891	85.023	
319.00	-56.482	73.938	
320.00	-56.748	67.229	
321.00	-57.395	62.398	
322.00	-58.533	50.472	
323.00	-60.097	36.038	
324.00	-63.422	18.356	
325.00	-67.668	-27.876	
326.00	-65.393	-44.679	
327.00	-65.953	-81.545	
328.00	-64.241	-107.559	
329.00	-61.908	-128.198	
330.00	-61.444	-147.142	
331.00	-60.683	-164.609	
332.00	-57.992	-177.289	
333.00	-57.537	167.426	
334.00	-57.646	151.249	
335.00	-57.916	140.459	
336.00	-58.113	128.662	
337.00	-58.583	115.944	
338.00	-59.284	102.364	
339.00	-59.713	84.205	
340.00	-59.236	71.077	
341.00	-60.078	49.989	
342.00	-59.205	39.836	
343.00	-60.058	20.807	
344.00	-58.882	7.637	
345.00	-58.608	-6.979	
346.00	-58.248	-16.502	
347.00	-57.681	-32.915	
348.00	-56.994	-37.563	
349.00	-56.691	-55.969	
350.00	-56.341	-53.968	
351.00	-56.498	-65.626	
352.00	-56.024	-61.512	
353.00	-56.553	-71.777	
354.00	-57.144	-73.568	
355.00	-57.721	-79.966	
356.00	-58.103	-86.501	
357.00	-59.471	-87.502	
358.00	-60.903	-91.194	
359.00	-61.616	-96.319	
Frequency	2450.00	MHz	
Channel	test		
Scan Axis name	Azimuth  [deg]		
Scan Axis	Amplitude	Phase	
			
0.00	-64.122	53.536	
1.00	-66.659	64.890	
2.00	-64.036	56.770	
3.00	-66.806	63.560	
4.00	-67.180	92.510	
5.00	-64.393	115.142	
6.00	-63.920	116.380	
7.00	-63.153	124.036	
8.00	-63.565	136.041	
9.00	-64.356	122.771	
10.00	-63.179	134.546	
11.00	-65.344	126.204	
12.00	-66.694	136.347	
13.00	-65.533	142.109	
14.00	-65.260	131.496	
15.00	-63.609	129.077	
16.00	-67.028	129.492	
17.00	-68.206	139.049	
18.00	-67.525	126.042	
19.00	-68.235	131.244	
20.00	-70.572	103.067	
21.00	-72.347	105.829	
22.00	-73.417	113.565	
23.00	-69.245	100.473	
24.00	-67.104	95.934	
25.00	-70.835	95.373	
26.00	-76.613	114.949	
27.00	-75.370	149.855	
28.00	-70.721	148.368	
29.00	-69.796	157.592	
30.00	-68.419	164.858	
31.00	-74.148	-116.256	
32.00	-68.182	-123.295	
33.00	-72.805	-93.765	
34.00	-66.606	-82.637	
35.00	-64.832	-87.622	
36.00	-66.084	-85.434	
37.00	-63.651	-44.452	
38.00	-66.034	-36.572	
39.00	-62.759	-25.065	
40.00	-66.884	-42.190	
41.00	-64.442	-46.065	
42.00	-66.722	2.937	
43.00	-62.375	33.644	
44.00	-64.555	70.673	
45.00	-68.305	46.684	
46.00	-68.886	80.702	
47.00	-63.672	83.649	
48.00	-64.406	122.674	
49.00	-68.195	85.490	
50.00	-67.708	151.611	
51.00	-76.561	-123.493	
52.00	-65.392	-111.715	
53.00	-68.176	-83.975	
54.00	-61.734	-55.817	
55.00	-63.134	-55.332	
56.00	-63.792	-14.093	
57.00	-58.407	-15.890	
58.00	-56.560	0.483	
59.00	-56.415	-2.293	
60.00	-57.429	21.148	
61.00	-57.497	47.624	
62.00	-56.610	44.703	
63.00	-56.590	36.870	
64.00	-61.757	57.052	
65.00	-62.723	95.785	
66.00	-60.569	119.252	
67.00	-64.003	131.230	
68.00	-65.218	154.492	
69.00	-66.352	-167.087	
70.00	-63.592	-147.934	
71.00	-59.720	-125.894	
72.00	-61.433	-76.835	
73.00	-68.988	-111.850	
74.00	-62.730	-63.259	
75.00	-64.994	-33.380	
76.00	-61.271	-69.244	
77.00	-61.166	-12.044	
78.00	-58.844	4.156	
79.00	-61.210	25.738	
80.00	-60.374	40.606	
81.00	-64.923	24.425	
82.00	-65.464	75.210	
83.00	-60.227	159.167	
84.00	-62.689	95.024	
85.00	-76.138	88.147	
86.00	-68.189	139.829	
87.00	-68.971	156.276	
88.00	-61.760	176.543	
89.00	-64.749	-161.104	
90.00	-64.033	-167.728	
91.00	-72.743	-112.966	
92.00	-64.975	-86.674	
93.00	-70.447	-129.826	
94.00	-67.262	176.562	
95.00	-64.581	-63.658	
96.00	-72.203	101.937	
97.00	-69.924	39.093	
98.00	-67.503	62.391	
99.00	-76.400	-81.912	
100.00	-69.891	-69.948	
101.00	-72.876	167.383	
102.00	-74.817	-86.519	
103.00	-66.342	-63.045	
104.00	-68.542	8.947	
105.00	-69.651	-58.658	
106.00	-63.732	-3.403	
107.00	-69.284	29.808	
108.00	-61.594	16.869	
109.00	-60.204	42.438	
110.00	-54.577	67.487	
111.00	-55.824	79.360	
112.00	-55.677	95.518	
113.00	-57.076	120.870	
114.00	-55.026	131.538	
115.00	-53.215	145.780	
116.00	-53.852	174.412	
117.00	-52.359	-172.911	
118.00	-52.742	-158.546	
119.00	-53.664	-136.796	
120.00	-54.112	-113.206	
121.00	-51.609	-90.021	
122.00	-53.298	-71.802	
123.00	-52.404	-47.420	
124.00	-52.173	-29.776	
125.00	-51.422	-7.685	
126.00	-50.972	11.897	
127.00	-50.477	28.715	
128.00	-50.836	59.803	
129.00	-49.860	73.354	
130.00	-49.587	95.264	
131.00	-49.361	109.446	
132.00	-49.307	130.964	
133.00	-49.156	146.559	
134.00	-49.332	171.181	
135.00	-49.146	-171.927	
136.00	-49.247	-153.098	
137.00	-49.123	-131.278	
138.00	-49.194	-113.486	
139.00	-48.815	-88.752	
140.00	-48.769	-76.492	
141.00	-48.610	-54.178	
142.00	-48.084	-37.828	
143.00	-48.115	-17.063	
144.00	-48.327	-1.739	
145.00	-47.937	18.964	
146.00	-47.268	38.898	
147.00	-46.434	54.791	
148.00	-46.774	72.201	
149.00	-45.909	85.653	
150.00	-45.471	108.433	
151.00	-44.878	115.978	
152.00	-44.867	132.883	
153.00	-44.691	143.541	
154.00	-44.190	158.892	
155.00	-43.964	171.181	
156.00	-44.017	-171.320	
157.00	-43.665	-159.127	
158.00	-43.348	-146.791	
159.00	-43.296	-135.095	
160.00	-43.242	-123.254	
161.00	-43.326	-111.538	
162.00	-43.362	-99.646	
163.00	-43.145	-95.254	
164.00	-43.420	-84.161	
165.00	-43.284	-71.076	
166.00	-43.507	-64.346	
167.00	-43.651	-51.629	
168.00	-43.650	-46.481	
169.00	-43.862	-35.940	
170.00	-43.866	-26.666	
171.00	-43.928	-17.153	
172.00	-44.137	-10.743	
173.00	-44.116	-0.338	
174.00	-44.205	4.456	
175.00	-44.252	14.927	
176.00	-44.091	18.636	
177.00	-44.018	20.414	
178.00	-44.086	30.905	
179.00	-43.990	37.640	
180.00	-44.116	43.673	
181.00	-44.257	48.400	
182.00	-43.954	52.484	
183.00	-43.905	55.464	
184.00	-43.817	64.228	
185.00	-43.831	63.477	
186.00	-43.890	65.219	
187.00	-44.098	64.765	
188.00	-44.016	68.986	
189.00	-44.190	68.775	
190.00	-44.210	68.489	
191.00	-44.593	65.861	
192.00	-44.787	64.966	
193.00	-44.878	66.322	
194.00	-45.202	63.943	
195.00	-45.675	58.099	
196.00	-45.989	55.722	
197.00	-46.409	54.072	
198.00	-46.627	49.082	
199.00	-47.073	51.071	
200.00	-47.366	45.379	
201.00	-48.170	42.208	
202.00	-48.322	45.582	
203.00	-48.834	36.618	
204.00	-49.008	38.529	
205.00	-49.709	27.890	
206.00	-49.919	27.830	
207.00	-50.100	23.757	
208.00	-50.854	24.450	
209.00	-50.692	21.567	
210.00	-50.811	26.597	
211.00	-51.372	14.325	
212.00	-52.083	21.040	
213.00	-53.048	14.167	
214.00	-52.979	6.258	
215.00	-53.063	2.905	
216.00	-53.744	-5.987	
217.00	-55.025	-18.225	
218.00	-54.893	-21.337	
219.00	-54.875	-19.413	
220.00	-54.942	-25.418	
221.00	-55.727	-36.311	
222.00	-57.236	-50.329	
223.00	-57.652	-61.356	
224.00	-57.129	-69.188	
225.00	-58.956	-88.564	
226.00	-59.601	-95.105	
227.00	-58.694	-118.044	
228.00	-61.890	-140.935	
229.00	-67.616	-147.731	
230.00	-66.285	-160.898	
231.00	-68.007	-164.891	
232.00	-66.946	152.594	
233.00	-66.696	148.105	
234.00	-68.599	95.828	
235.00	-71.592	120.549	
236.00	-68.776	70.341	
237.00	-75.262	14.862	
238.00	-74.314	-62.871	
239.00	-73.766	-88.371	
240.00	-66.823	-106.224	
241.00	-63.022	-109.302	
242.00	-63.420	-127.068	
243.00	-61.524	-130.205	
244.00	-61.450	-152.939	
245.00	-62.608	-173.127	
246.00	-62.176	171.496	
247.00	-61.200	160.826	
248.00	-62.746	125.078	
249.00	-62.096	104.244	
250.00	-63.614	58.594	
251.00	-60.297	34.588	
252.00	-60.717	19.604	
253.00	-59.648	-4.366	
254.00	-59.221	-34.255	
255.00	-57.817	-38.412	
256.00	-56.924	-66.822	
257.00	-59.552	-71.982	
258.00	-58.434	-79.463	
259.00	-58.718	-114.198	
260.00	-60.940	-119.117	
261.00	-59.273	-144.433	
262.00	-62.037	-161.998	
263.00	-61.398	-174.004	
264.00	-61.816	152.441	
265.00	-61.331	120.121	
266.00	-63.126	108.389	
267.00	-66.859	72.567	
268.00	-66.004	38.092	
269.00	-68.574	-25.176	
270.00	-67.582	-55.710	
271.00	-64.937	-77.685	
272.00	-60.949	-103.381	
273.00	-60.703	-119.451	
274.00	-60.083	-138.764	
275.00	-60.463	-151.208	
276.00	-60.609	-166.053	
277.00	-62.519	163.330	
278.00	-62.172	139.470	
279.00	-64.258	117.735	
280.00	-63.465	63.495	
281.00	-60.226	39.537	
282.00	-60.445	10.919	
283.00	-59.484	-10.370	
284.00	-58.662	-29.267	
285.00	-58.419	-60.191	
286.00	-58.522	-82.864	
287.00	-58.108	-102.111	
288.00	-58.294	-120.349	
289.00	-58.794	-130.953	
290.00	-60.759	-151.766	
291.00	-62.221	179.929	
292.00	-62.869	151.439	
293.00	-63.261	113.791	
294.00	-64.960	82.559	
295.00	-63.379	56.686	
296.00	-61.020	32.479	
297.00	-61.175	22.878	
298.00	-61.984	4.274	
299.00	-60.641	-11.639	
300.00	-63.393	-39.610	
301.00	-64.648	-48.280	
302.00	-67.682	-76.941	
303.00	-77.307	-107.442	
304.00	-69.388	-178.284	
305.00	-68.776	154.641	
306.00	-66.080	150.242	
307.00	-66.183	108.614	
308.00	-67.104	93.127	
309.00	-67.869	53.507	
310.00	-68.974	-14.803	
311.00	-66.640	-51.753	
312.00	-61.867	-70.167	
313.00	-61.938	-80.938	
314.00	-58.910	-93.316	
315.00	-56.187	-108.608	
316.00	-56.470	-115.590	
317.00	-56.828	-130.103	
318.00	-56.173	-143.949	
319.00	-56.579	-167.367	
320.00	-56.548	-179.330	
321.00	-56.686	157.033	
322.00	-56.977	146.165	
323.00	-56.549	130.100	
324.00	-55.719	107.237	
325.00	-54.692	82.577	
326.00	-55.727	72.974	
327.00	-54.004	60.384	
328.00	-55.305	47.010	
329.00	-55.027	34.028	
330.00	-56.187	19.219	
331.00	-57.724	1.919	
332.00	-58.566	-20.123	
333.00	-60.228	-30.479	
334.00	-61.635	-59.836	
335.00	-61.698	-85.998	
336.00	-61.494	-103.188	
337.00	-62.118	-120.943	
338.00	-64.270	-141.181	
339.00	-62.221	-162.513	
340.00	-61.832	162.556	
341.00	-59.882	156.492	
342.00	-59.624	145.503	
343.00	-58.198	138.711	
344.00	-58.703	125.996	
345.00	-57.761	115.786	
346.00	-57.821	113.493	
347.00	-57.630	104.150	
348.00	-59.147	102.598	
349.00	-58.481	93.098	
350.00	-58.716	84.740	
351.00	-59.974	74.955	
352.00	-60.305	80.061	
353.00	-60.125	67.254	
354.00	-61.000	63.063	
355.00	-62.322	65.103	
356.00	-62.803	59.549	
357.00	-63.336	47.703	
358.00	-71.460	38.631	
359.00	-64.811	62.894	
Frequency	2496.00	MHz	
Channel	test		
Scan Axis name	Azimuth  [deg]		
Scan Axis	Amplitude	Phase	
			
0.00	-71.753	-92.445	
1.00	-70.160	-83.900	
2.00	-69.231	-80.337	
3.00	-69.472	-60.250	
4.00	-69.409	-67.363	
5.00	-67.663	-61.143	
6.00	-67.356	-56.299	
7.00	-67.440	-45.883	
8.00	-68.179	-48.163	
9.00	-69.247	-35.768	
10.00	-69.228	-19.771	
11.00	-68.861	-15.485	
12.00	-70.565	0.006	
13.00	-71.279	15.959	
14.00	-70.339	29.548	
15.00	-71.561	57.793	
16.00	-69.189	65.276	
17.00	-70.924	72.742	
18.00	-73.121	94.448	
19.00	-72.963	125.478	
20.00	-72.195	164.817	
21.00	-71.580	-166.064	
22.00	-67.879	-156.708	
23.00	-67.740	-160.799	
24.00	-65.416	-131.991	
25.00	-64.236	-135.112	
26.00	-63.147	-125.420	
27.00	-62.263	-126.416	
28.00	-62.095	-108.420	
29.00	-61.572	-104.190	
30.00	-62.540	-100.624	
31.00	-63.514	-86.118	
32.00	-64.640	-83.733	
33.00	-66.622	-76.390	
34.00	-66.496	-61.710	
35.00	-70.848	-31.259	
36.00	-73.109	-35.907	
37.00	-72.253	-6.650	
38.00	-75.193	45.908	
39.00	-79.515	-20.086	
40.00	-70.741	102.730	
41.00	-71.195	123.541	
42.00	-69.074	141.322	
43.00	-66.783	158.741	
44.00	-67.633	166.394	
45.00	-68.243	170.696	
46.00	-69.681	-148.367	
47.00	-69.705	-114.931	
48.00	-71.347	-127.441	
49.00	-71.197	-75.686	
50.00	-68.019	-50.809	
51.00	-66.941	-43.249	
52.00	-65.738	-17.588	
53.00	-67.120	2.939	
54.00	-64.611	8.207	
55.00	-67.353	29.263	
56.00	-66.920	64.267	
57.00	-67.003	66.299	
58.00	-67.332	104.607	
59.00	-66.079	126.026	
60.00	-66.185	160.301	
61.00	-65.950	-177.570	
62.00	-64.814	-169.666	
63.00	-63.387	-138.515	
64.00	-63.768	-121.983	
65.00	-63.664	-108.329	
66.00	-63.474	-94.452	
67.00	-61.791	-75.776	
68.00	-62.205	-50.132	
69.00	-64.014	-44.291	
70.00	-63.902	-28.970	
71.00	-66.207	-13.858	
72.00	-66.374	12.757	
73.00	-67.545	33.567	
74.00	-69.787	52.572	
75.00	-67.718	99.523	
76.00	-70.054	106.432	
77.00	-65.158	154.252	
78.00	-71.943	163.672	
79.00	-69.353	-169.919	
80.00	-68.315	-124.465	
81.00	-65.320	-107.623	
82.00	-63.598	-102.422	
83.00	-63.659	-71.809	
84.00	-63.231	-70.572	
85.00	-62.834	-37.315	
86.00	-63.357	-21.485	
87.00	-64.079	-16.197	
88.00	-63.702	-4.781	
89.00	-62.817	23.623	
90.00	-64.340	56.949	
91.00	-64.907	72.849	
92.00	-63.180	104.318	
93.00	-63.201	119.350	
94.00	-61.305	136.054	
95.00	-60.669	162.779	
96.00	-59.852	177.370	
97.00	-59.593	-156.641	
98.00	-59.030	-135.197	
99.00	-58.416	-119.907	
100.00	-54.239	-88.677	
101.00	-57.351	-87.789	
102.00	-58.614	-60.198	
103.00	-59.623	-42.173	
104.00	-58.388	-19.449	
105.00	-59.418	-1.022	
106.00	-58.814	23.494	
107.00	-58.306	40.567	
108.00	-59.370	70.839	
109.00	-58.081	93.713	
110.00	-57.938	119.531	
111.00	-56.991	147.514	
112.00	-57.573	162.018	
113.00	-55.908	-168.448	
114.00	-55.257	-150.539	
115.00	-55.482	-134.299	
116.00	-55.700	-112.359	
117.00	-55.456	-83.061	
118.00	-55.250	-70.874	
119.00	-55.687	-47.782	
120.00	-55.279	-20.521	
121.00	-55.696	1.186	
122.00	-55.295	25.666	
123.00	-54.973	50.260	
124.00	-54.838	76.329	
125.00	-53.814	92.920	
126.00	-53.566	123.272	
127.00	-53.017	141.423	
128.00	-52.972	168.830	
129.00	-52.899	-166.914	
130.00	-52.914	-142.675	
131.00	-52.303	-123.541	
132.00	-51.868	-95.978	
133.00	-51.302	-76.322	
134.00	-50.747	-53.950	
135.00	-49.788	-36.530	
136.00	-49.761	-20.005	
137.00	-48.940	3.405	
138.00	-48.709	18.661	
139.00	-48.528	40.879	
140.00	-47.834	57.842	
141.00	-47.637	77.821	
142.00	-47.363	92.073	
143.00	-46.891	112.069	
144.00	-46.394	127.730	
145.00	-46.301	145.114	
146.00	-45.966	163.540	
147.00	-45.463	178.965	
148.00	-45.109	-161.854	
149.00	-44.881	-149.416	
150.00	-44.481	-129.877	
151.00	-44.054	-119.119	
152.00	-43.986	-102.706	
153.00	-43.621	-91.107	
154.00	-43.422	-74.291	
155.00	-43.327	-61.933	
156.00	-42.900	-46.076	
157.00	-42.780	-31.930	
158.00	-42.487	-17.310	
159.00	-42.148	-4.518	
160.00	-42.114	7.975	
161.00	-41.965	19.531	
162.00	-41.680	30.943	
163.00	-41.652	37.601	
164.00	-41.536	47.514	
165.00	-41.411	61.385	
166.00	-41.428	67.879	
167.00	-41.283	80.182	
168.00	-41.311	84.454	
169.00	-41.276	96.081	
170.00	-41.394	103.362	
171.00	-41.419	113.091	
172.00	-41.427	118.375	
173.00	-41.447	129.373	
174.00	-41.439	133.025	
175.00	-41.467	142.676	
176.00	-41.511	148.571	
177.00	-41.510	149.370	
178.00	-41.642	160.222	
179.00	-41.550	166.324	
180.00	-41.471	173.993	
181.00	-41.568	177.519	
182.00	-41.522	-178.271	
183.00	-41.601	-175.169	
184.00	-41.570	-164.126	
185.00	-41.625	-164.757	
186.00	-41.679	-161.119	
187.00	-41.758	-160.985	
188.00	-41.898	-156.229	
189.00	-42.008	-155.332	
190.00	-42.144	-155.540	
191.00	-42.362	-157.874	
192.00	-42.612	-157.748	
193.00	-42.857	-154.530	
194.00	-43.166	-157.096	
195.00	-43.504	-160.806	
196.00	-43.792	-163.382	
197.00	-44.201	-162.728	
198.00	-44.769	-168.406	
199.00	-45.055	-170.149	
200.00	-45.435	-171.887	
201.00	-46.051	-176.263	
202.00	-46.476	-173.575	
203.00	-47.068	178.434	
204.00	-47.562	174.209	
205.00	-47.798	160.057	
206.00	-48.510	159.181	
207.00	-49.016	158.073	
208.00	-49.641	156.946	
209.00	-49.948	151.253	
210.00	-50.467	153.714	
211.00	-50.626	138.995	
212.00	-51.083	139.676	
213.00	-51.632	129.209	
214.00	-52.010	123.393	
215.00	-52.105	121.507	
216.00	-52.311	108.476	
217.00	-52.434	100.562	
218.00	-53.005	90.052	
219.00	-53.137	86.219	
220.00	-53.352	79.498	
221.00	-53.638	66.126	
222.00	-53.837	55.405	
223.00	-53.863	44.628	
224.00	-54.295	33.562	
225.00	-54.357	21.963	
226.00	-54.825	4.726	
227.00	-55.166	-10.428	
228.00	-55.128	-19.308	
229.00	-55.800	-32.013	
230.00	-56.398	-45.713	
231.00	-56.978	-63.756	
232.00	-57.952	-76.965	
233.00	-59.123	-96.059	
234.00	-59.813	-115.398	
235.00	-60.931	-133.930	
236.00	-62.721	-157.604	
237.00	-64.313	178.328	
238.00	-64.823	149.533	
239.00	-65.212	125.655	
240.00	-65.083	94.973	
241.00	-65.053	73.466	
242.00	-64.374	43.216	
243.00	-66.609	28.700	
244.00	-65.093	-11.279	
245.00	-64.616	-30.450	
246.00	-64.103	-50.691	
247.00	-63.789	-81.533	
248.00	-63.002	-102.895	
249.00	-63.050	-117.285	
250.00	-64.538	-142.517	
251.00	-63.966	-162.929	
252.00	-66.711	156.781	
253.00	-65.745	118.647	
254.00	-63.741	88.145	
255.00	-63.303	66.110	
256.00	-61.273	36.960	
257.00	-60.470	22.033	
258.00	-60.471	8.806	
259.00	-60.491	-13.172	
260.00	-60.510	-32.616	
261.00	-61.322	-59.846	
262.00	-61.131	-81.020	
263.00	-61.378	-114.580	
264.00	-61.852	-148.121	
265.00	-60.332	-173.839	
266.00	-59.340	168.519	
267.00	-58.465	138.371	
268.00	-58.018	123.039	
269.00	-57.110	102.638	
270.00	-57.056	77.560	
271.00	-57.241	59.881	
272.00	-57.611	40.288	
273.00	-57.438	15.549	
274.00	-57.761	-6.676	
275.00	-57.524	-32.865	
276.00	-57.328	-51.827	
277.00	-57.214	-76.514	
278.00	-56.914	-97.288	
279.00	-57.250	-116.495	
280.00	-58.246	-138.817	
281.00	-58.757	-160.491	
282.00	-59.838	164.419	
283.00	-60.007	134.369	
284.00	-59.426	102.784	
285.00	-58.793	72.476	
286.00	-58.635	49.632	
287.00	-59.626	28.868	
288.00	-60.851	9.723	
289.00	-61.397	-9.437	
290.00	-63.649	-51.518	
291.00	-64.042	-80.159	
292.00	-63.934	-119.693	
293.00	-61.688	-144.315	
294.00	-59.999	-170.162	
295.00	-60.201	169.985	
296.00	-60.915	161.597	
297.00	-61.646	143.504	
298.00	-63.577	116.354	
299.00	-65.949	78.066	
300.00	-65.562	21.751	
301.00	-64.330	-4.477	
302.00	-61.457	-34.038	
303.00	-60.228	-53.315	
304.00	-58.828	-67.696	
305.00	-59.490	-83.439	
306.00	-59.685	-100.178	
307.00	-60.943	-123.398	
308.00	-61.933	-154.305	
309.00	-62.381	166.914	
310.00	-59.819	132.367	
311.00	-58.946	109.320	
312.00	-57.984	92.703	
313.00	-57.249	80.678	
314.00	-56.499	63.704	
315.00	-56.317	43.684	
316.00	-56.089	29.850	
317.00	-56.125	8.699	
318.00	-56.067	-4.234	
319.00	-56.578	-26.386	
320.00	-56.571	-36.603	
321.00	-56.854	-63.124	
322.00	-56.933	-77.183	
323.00	-57.121	-105.609	
324.00	-57.239	-121.140	
325.00	-56.771	-140.585	
326.00	-57.682	-153.695	
327.00	-56.121	-168.879	
328.00	-56.447	175.941	
329.00	-56.586	168.310	
330.00	-57.173	152.941	
331.00	-58.758	146.042	
332.00	-61.220	128.578	
333.00	-63.892	114.226	
334.00	-70.666	76.761	
335.00	-69.401	48.213	
336.00	-66.539	-0.091	
337.00	-64.753	-24.538	
338.00	-62.837	-43.539	
339.00	-62.072	-55.421	
340.00	-62.317	-53.865	
341.00	-62.180	-64.968	
342.00	-62.779	-74.133	
343.00	-62.477	-89.514	
344.00	-64.297	-92.877	
345.00	-64.413	-108.086	
346.00	-65.030	-120.964	
347.00	-66.991	-140.924	
348.00	-66.168	-147.518	
349.00	-65.893	-165.287	
350.00	-66.949	-165.158	
351.00	-68.092	-172.138	
352.00	-68.775	-170.170	
353.00	-69.143	-177.196	
354.00	-71.412	179.933	
355.00	-69.003	-165.206	
356.00	-71.312	-163.415	
357.00	-71.129	-145.026	
358.00	-76.081	-146.339	
359.00	-69.828	-123.347	
Frequency	2550.00	MHz	
Channel	test		
Scan Axis name	Azimuth  [deg]		
Scan Axis	Amplitude	Phase	
			
0.00	-69.677	-12.070	
1.00	-68.031	-9.566	
2.00	-67.787	-18.633	
3.00	-69.885	-12.589	
4.00	-70.748	-25.574	
5.00	-67.745	-30.502	
6.00	-68.776	-44.332	
7.00	-69.861	-67.408	
8.00	-69.636	-77.759	
9.00	-67.944	-74.866	
10.00	-66.284	-84.910	
11.00	-66.836	-85.479	
12.00	-66.417	-85.290	
13.00	-65.104	-85.934	
14.00	-65.868	-92.299	
15.00	-65.880	-90.672	
16.00	-65.598	-84.860	
17.00	-66.013	-85.053	
18.00	-65.205	-97.718	
19.00	-65.620	-83.191	
20.00	-67.705	-77.411	
21.00	-69.455	-88.509	
22.00	-72.190	-54.763	
23.00	-73.637	-73.202	
24.00	-83.314	5.168	
25.00	-79.816	95.475	
26.00	-81.783	107.338	
27.00	-76.845	132.955	
28.00	-72.231	120.311	
29.00	-71.631	142.998	
30.00	-68.908	156.181	
31.00	-66.479	171.156	
32.00	-66.882	174.394	
33.00	-64.612	-162.285	
34.00	-64.637	-160.418	
35.00	-65.763	-166.215	
36.00	-64.286	-148.154	
37.00	-64.522	-146.356	
38.00	-64.856	-142.721	
39.00	-64.903	-121.487	
40.00	-63.947	-108.801	
41.00	-65.779	-90.734	
42.00	-64.558	-77.775	
43.00	-65.615	-65.049	
44.00	-65.997	-53.343	
45.00	-66.382	-48.060	
46.00	-65.864	-16.725	
47.00	-65.704	6.875	
48.00	-65.117	10.176	
49.00	-64.617	54.192	
50.00	-64.120	66.696	
51.00	-64.143	76.522	
52.00	-64.390	81.070	
53.00	-63.464	105.046	
54.00	-63.585	110.469	
55.00	-65.272	107.162	
56.00	-62.139	135.474	
57.00	-63.548	166.855	
58.00	-65.184	168.402	
59.00	-65.304	-175.025	
60.00	-67.329	-173.315	
61.00	-67.238	-126.384	
62.00	-66.593	-78.375	
63.00	-70.826	-85.032	
64.00	-74.203	-64.264	
65.00	-80.211	-146.502	
66.00	-67.845	-31.949	
67.00	-73.505	79.887	
68.00	-73.145	97.913	
69.00	-71.734	123.217	
70.00	-66.283	151.339	
71.00	-67.562	160.017	
72.00	-66.849	-167.653	
73.00	-65.018	-166.875	
74.00	-63.880	-179.456	
75.00	-62.247	-169.282	
76.00	-64.542	-137.229	
77.00	-64.848	-142.542	
78.00	-70.657	-141.711	
79.00	-72.499	-121.496	
80.00	-73.267	-75.373	
81.00	-71.290	-53.272	
82.00	-71.188	-23.331	
83.00	-84.774	26.248	
84.00	-72.170	102.533	
85.00	-73.466	55.900	
86.00	-71.911	124.914	
87.00	-68.365	138.654	
88.00	-69.272	111.105	
89.00	-71.887	136.606	
90.00	-68.018	161.716	
91.00	-69.547	131.591	
92.00	-68.033	135.338	
93.00	-69.492	-176.708	
94.00	-69.121	-161.034	
95.00	-66.939	-143.006	
96.00	-66.854	-82.172	
97.00	-73.169	-94.215	
98.00	-69.119	-13.739	
99.00	-65.860	39.682	
100.00	-66.464	-42.997	
101.00	-68.833	35.729	
102.00	-64.637	88.503	
103.00	-62.614	57.724	
104.00	-63.822	119.450	
105.00	-65.508	124.774	
106.00	-63.536	139.169	
107.00	-62.849	-169.266	
108.00	-61.852	-153.255	
109.00	-60.687	-128.036	
110.00	-59.377	-113.294	
111.00	-57.981	-82.712	
112.00	-56.467	-65.170	
113.00	-55.342	-45.848	
114.00	-54.471	-20.881	
115.00	-55.752	-1.273	
116.00	-55.077	16.328	
117.00	-54.289	37.882	
118.00	-53.508	52.021	
119.00	-53.791	71.989	
120.00	-53.635	93.679	
121.00	-53.239	120.460	
122.00	-52.348	135.660	
123.00	-53.025	161.283	
124.00	-52.827	174.480	
125.00	-52.565	-158.498	
126.00	-52.393	-133.551	
127.00	-52.326	-111.331	
128.00	-52.904	-89.430	
129.00	-52.970	-65.684	
130.00	-52.730	-39.733	
131.00	-51.973	-18.640	
132.00	-52.483	-4.203	
133.00	-51.576	26.770	
134.00	-50.952	44.305	
135.00	-52.217	65.983	
136.00	-51.865	85.229	
137.00	-51.281	117.809	
138.00	-51.482	134.388	
139.00	-50.770	157.938	
140.00	-50.394	175.021	
141.00	-49.839	-161.207	
142.00	-49.309	-145.477	
143.00	-48.574	-125.254	
144.00	-48.454	-107.757	
145.00	-48.144	-88.322	
146.00	-47.519	-69.044	
147.00	-46.974	-53.079	
148.00	-46.644	-32.216	
149.00	-45.937	-18.884	
150.00	-45.837	0.540	
151.00	-45.281	10.798	
152.00	-44.936	28.628	
153.00	-44.615	39.442	
154.00	-44.211	56.461	
155.00	-43.879	69.176	
156.00	-43.633	84.862	
157.00	-43.355	97.305	
158.00	-43.050	111.617	
159.00	-42.829	125.023	
160.00	-42.776	137.091	
161.00	-42.655	149.270	
162.00	-42.557	159.749	
163.00	-42.652	167.435	
164.00	-42.541	177.034	
165.00	-42.546	-168.702	
166.00	-42.582	-162.368	
167.00	-42.606	-149.521	
168.00	-42.696	-143.247	
169.00	-42.795	-132.184	
170.00	-42.901	-123.954	
171.00	-42.993	-112.037	
172.00	-43.130	-105.473	
173.00	-43.147	-94.554	
174.00	-43.202	-88.633	
175.00	-43.159	-77.983	
176.00	-43.211	-70.982	
177.00	-43.159	-69.583	
178.00	-43.086	-57.407	
179.00	-42.993	-51.075	
180.00	-42.969	-43.314	
181.00	-42.896	-38.645	
182.00	-42.810	-34.733	
183.00	-42.767	-31.712	
184.00	-42.744	-21.090	
185.00	-42.673	-22.485	
186.00	-42.820	-18.566	
187.00	-42.909	-19.771	
188.00	-43.058	-13.676	
189.00	-43.090	-12.851	
190.00	-43.214	-13.022	
191.00	-43.477	-15.861	
192.00	-43.600	-15.270	
193.00	-43.917	-12.041	
194.00	-43.954	-14.725	
195.00	-44.412	-18.950	
196.00	-44.743	-20.234	
197.00	-45.080	-20.310	
198.00	-45.325	-25.001	
199.00	-45.924	-26.740	
200.00	-46.060	-28.799	
201.00	-46.511	-31.453	
202.00	-46.866	-28.860	
203.00	-47.355	-37.081	
204.00	-47.771	-39.172	
205.00	-48.151	-50.710	
206.00	-48.350	-52.256	
207.00	-49.003	-53.922	
208.00	-49.496	-54.244	
209.00	-49.387	-59.062	
210.00	-49.255	-58.779	
211.00	-50.690	-72.436	
212.00	-51.243	-68.193	
213.00	-50.488	-75.974	
214.00	-51.472	-84.408	
215.00	-51.905	-91.033	
216.00	-52.193	-101.683	
217.00	-52.541	-110.036	
218.00	-53.192	-124.046	
219.00	-53.059	-129.014	
220.00	-53.689	-138.089	
221.00	-54.753	-149.388	
222.00	-54.594	-163.876	
223.00	-55.062	-178.449	
224.00	-55.366	171.265	
225.00	-55.833	158.027	
226.00	-56.632	140.381	
227.00	-56.446	123.587	
228.00	-56.959	114.694	
229.00	-58.373	94.490	
230.00	-57.992	82.987	
231.00	-58.451	58.142	
232.00	-59.932	46.723	
233.00	-60.699	33.283	
234.00	-61.711	29.080	
235.00	-66.626	14.705	
236.00	-68.646	-40.829	
237.00	-69.483	-90.972	
238.00	-65.597	-130.638	
239.00	-66.180	-154.266	
240.00	-63.384	-177.620	
241.00	-62.495	166.503	
242.00	-62.722	147.890	
243.00	-63.203	131.450	
244.00	-62.562	107.878	
245.00	-63.625	83.021	
246.00	-64.625	51.098	
247.00	-63.660	15.998	
248.00	-61.841	-6.706	
249.00	-60.985	-26.211	
250.00	-60.438	-60.612	
251.00	-59.260	-80.831	
252.00	-58.563	-109.542	
253.00	-57.904	-121.963	
254.00	-57.311	-147.726	
255.00	-57.312	-169.439	
256.00	-56.385	167.343	
257.00	-55.832	149.075	
258.00	-56.298	135.401	
259.00	-55.930	110.991	
260.00	-56.381	96.426	
261.00	-56.811	78.134	
262.00	-57.156	59.121	
263.00	-58.923	39.207	
264.00	-59.699	10.315	
265.00	-61.561	-33.147	
266.00	-60.124	-63.624	
267.00	-59.148	-100.496	
268.00	-58.264	-120.291	
269.00	-57.343	-143.161	
270.00	-56.673	-164.675	
271.00	-56.617	177.973	
272.00	-56.947	161.605	
273.00	-57.416	136.916	
274.00	-57.639	113.434	
275.00	-58.076	79.877	
276.00	-58.267	50.704	
277.00	-57.399	22.358	
278.00	-56.367	-2.568	
279.00	-56.262	-19.434	
280.00	-55.402	-45.303	
281.00	-55.314	-64.210	
282.00	-56.006	-87.843	
283.00	-56.365	-108.381	
284.00	-57.125	-135.444	
285.00	-57.733	-176.051	
286.00	-57.461	151.450	
287.00	-57.258	124.290	
288.00	-56.609	101.537	
289.00	-56.157	81.261	
290.00	-55.830	61.189	
291.00	-56.246	41.094	
292.00	-56.587	22.979	
293.00	-57.677	-0.836	
294.00	-59.012	-23.082	
295.00	-59.908	-49.923	
296.00	-60.334	-78.589	
297.00	-60.404	-113.788	
298.00	-59.996	-136.465	
299.00	-59.031	-161.614	
300.00	-57.712	171.360	
301.00	-58.423	151.857	
302.00	-59.022	138.729	
303.00	-59.162	114.433	
304.00	-60.527	91.499	
305.00	-60.754	66.321	
306.00	-60.865	37.141	
307.00	-62.469	8.182	
308.00	-61.812	-24.282	
309.00	-61.352	-54.613	
310.00	-59.976	-74.867	
311.00	-61.042	-99.481	
312.00	-60.469	-114.698	
313.00	-60.269	-126.958	
314.00	-61.338	-143.157	
315.00	-62.306	-171.363	
316.00	-62.289	172.238	
317.00	-64.420	132.233	
318.00	-64.859	112.933	
319.00	-63.146	80.633	
320.00	-62.436	61.267	
321.00	-62.067	40.728	
322.00	-62.547	24.232	
323.00	-60.884	-1.297	
324.00	-62.672	-9.054	
325.00	-68.675	-33.534	
326.00	-70.081	-32.131	
327.00	-67.921	-49.622	
328.00	-66.958	-137.788	
329.00	-63.987	-167.165	
330.00	-62.218	-177.491	
331.00	-60.292	159.844	
332.00	-60.151	148.977	
333.00	-61.379	138.758	
334.00	-59.831	122.961	
335.00	-61.426	114.893	
336.00	-59.943	98.534	
337.00	-60.482	86.818	
338.00	-61.404	74.417	
339.00	-60.369	67.013	
340.00	-60.816	45.175	
341.00	-61.265	41.649	
342.00	-60.283	26.914	
343.00	-61.291	25.612	
344.00	-61.532	25.619	
345.00	-62.188	17.442	
346.00	-62.559	22.563	
347.00	-63.031	10.511	
348.00	-64.941	18.347	
349.00	-67.768	18.002	
350.00	-68.600	22.815	
351.00	-71.686	11.442	
352.00	-70.533	24.051	
353.00	-70.305	11.275	
354.00	-71.594	7.050	
355.00	-70.761	7.287	
356.00	-70.884	2.811	
357.00	-68.104	9.361	
358.00	-70.570	18.460	
359.00	-67.399	-1.181	
Frequency	2600.00	MHz	
Channel	test		
Scan Axis name	Azimuth  [deg]		
Scan Axis	Amplitude	Phase	
			
0.00	-62.789	178.851	
1.00	-61.440	167.861	
2.00	-61.312	161.053	
3.00	-59.619	150.043	
4.00	-59.032	144.639	
5.00	-58.540	141.230	
6.00	-58.134	139.629	
7.00	-58.313	135.626	
8.00	-58.347	135.377	
9.00	-59.084	136.448	
10.00	-59.071	131.263	
11.00	-60.253	142.231	
12.00	-60.136	137.081	
13.00	-61.740	144.066	
14.00	-62.327	154.086	
15.00	-68.517	156.262	
16.00	-69.634	157.910	
17.00	-70.623	-166.134	
18.00	-72.507	-112.347	
19.00	-71.486	-69.573	
20.00	-70.435	-64.176	
21.00	-65.120	-48.440	
22.00	-64.384	-41.365	
23.00	-61.932	-41.972	
24.00	-62.066	-26.546	
25.00	-61.971	-26.989	
26.00	-61.801	-22.787	
27.00	-62.262	-18.132	
28.00	-62.518	0.767	
29.00	-64.034	8.500	
30.00	-65.107	22.206	
31.00	-69.726	48.057	
32.00	-67.609	54.483	
33.00	-69.575	78.791	
34.00	-68.578	97.531	
35.00	-69.633	143.634	
36.00	-69.184	158.928	
37.00	-67.858	-179.637	
38.00	-65.015	-175.189	
39.00	-65.045	-155.890	
40.00	-64.793	-157.368	
41.00	-66.281	-143.894	
42.00	-66.019	-145.574	
43.00	-67.559	-142.938	
44.00	-67.814	-156.861	
45.00	-68.090	-149.062	
46.00	-67.975	167.055	
47.00	-67.961	-176.967	
48.00	-69.183	151.662	
49.00	-68.397	161.051	
50.00	-65.695	163.098	
51.00	-63.935	168.554	
52.00	-65.177	174.054	
53.00	-63.648	-167.744	
54.00	-63.391	-163.511	
55.00	-61.832	-152.728	
56.00	-62.557	-132.412	
57.00	-64.998	-106.601	
58.00	-63.862	-84.269	
59.00	-65.139	-76.985	
60.00	-65.459	-48.726	
61.00	-66.625	-38.452	
62.00	-65.374	-8.293	
63.00	-64.683	-2.305	
64.00	-65.141	13.130	
65.00	-65.174	24.279	
66.00	-65.991	43.739	
67.00	-66.990	48.463	
68.00	-68.878	75.628	
69.00	-71.997	93.767	
70.00	-69.883	118.667	
71.00	-72.655	166.637	
72.00	-70.561	163.085	
73.00	-68.632	-152.752	
74.00	-68.569	-127.637	
75.00	-70.190	-118.329	
76.00	-68.614	-107.816	
77.00	-67.761	-95.966	
78.00	-66.651	-70.705	
79.00	-66.780	-62.286	
80.00	-66.325	-35.171	
81.00	-65.970	-36.816	
82.00	-64.757	-20.998	
83.00	-66.832	-14.767	
84.00	-68.487	3.945	
85.00	-70.246	2.600	
86.00	-68.471	19.569	
87.00	-70.443	57.346	
88.00	-70.572	80.703	
89.00	-69.183	120.356	
90.00	-68.662	130.797	
91.00	-70.624	173.132	
92.00	-68.299	177.917	
93.00	-67.932	175.544	
94.00	-67.991	-162.523	
95.00	-69.063	-154.541	
96.00	-70.435	-178.518	
97.00	-70.399	-176.917	
98.00	-68.030	-179.987	
99.00	-67.382	169.011	
100.00	-64.913	169.690	
101.00	-62.917	176.313	
102.00	-62.687	-160.713	
103.00	-60.755	-155.806	
104.00	-60.714	-141.817	
105.00	-60.131	-122.717	
106.00	-60.060	-109.946	
107.00	-60.180	-82.988	
108.00	-60.490	-63.996	
109.00	-60.336	-35.829	
110.00	-60.030	-13.394	
111.00	-58.464	20.765	
112.00	-58.059	40.214	
113.00	-56.805	65.630	
114.00	-56.439	81.359	
115.00	-55.794	107.567	
116.00	-55.097	126.343	
117.00	-54.848	149.788	
118.00	-54.167	167.713	
119.00	-53.438	-168.601	
120.00	-52.919	-146.601	
121.00	-52.774	-129.622	
122.00	-52.440	-109.679	
123.00	-52.371	-92.243	
124.00	-52.110	-71.099	
125.00	-52.981	-54.463	
126.00	-52.850	-26.674	
127.00	-53.397	-9.739	
128.00	-52.897	17.990	
129.00	-53.996	43.263	
130.00	-54.092	59.399	
131.00	-54.593	84.254	
132.00	-55.052	112.468	
133.00	-55.549	139.704	
134.00	-54.571	168.494	
135.00	-53.980	-161.832	
136.00	-53.412	-143.514	
137.00	-52.837	-122.192	
138.00	-52.193	-102.086	
139.00	-51.760	-81.756	
140.00	-51.916	-65.112	
141.00	-51.690	-40.870	
142.00	-51.757	-22.007	
143.00	-51.125	3.951	
144.00	-50.812	21.092	
145.00	-49.585	43.930	
146.00	-49.404	63.650	
147.00	-48.626	81.077	
148.00	-48.280	100.830	
149.00	-47.690	113.194	
150.00	-46.850	136.239	
151.00	-46.286	143.073	
152.00	-46.138	162.687	
153.00	-45.898	175.421	
154.00	-45.556	-169.404	
155.00	-45.127	-156.026	
156.00	-44.816	-140.511	
157.00	-44.675	-127.125	
158.00	-44.433	-112.754	
159.00	-44.148	-99.205	
160.00	-44.174	-87.035	
161.00	-44.085	-73.717	
162.00	-44.067	-63.503	
163.00	-44.004	-55.451	
164.00	-44.077	-45.524	
165.00	-44.258	-31.066	
166.00	-44.127	-22.957	
167.00	-44.244	-9.642	
168.00	-44.413	-3.298	
169.00	-44.418	7.844	
170.00	-44.736	16.045	
171.00	-44.789	28.378	
172.00	-45.001	33.918	
173.00	-44.931	46.749	
174.00	-45.058	51.574	
175.00	-45.174	61.314	
176.00	-45.064	68.891	
177.00	-44.989	71.749	
178.00	-45.142	80.689	
179.00	-45.057	87.197	
180.00	-45.061	94.918	
181.00	-45.175	98.769	
182.00	-45.030	102.456	
183.00	-45.182	104.876	
184.00	-45.144	113.867	
185.00	-45.114	114.317	
186.00	-45.269	116.620	
187.00	-45.338	117.282	
188.00	-45.285	120.410	
189.00	-45.468	122.351	
190.00	-45.732	121.542	
191.00	-45.841	119.675	
192.00	-46.065	118.356	
193.00	-46.035	120.530	
194.00	-46.431	119.982	
195.00	-46.944	116.436	
196.00	-47.096	114.933	
197.00	-47.418	113.306	
198.00	-48.001	107.811	
199.00	-48.296	107.154	
200.00	-48.560	103.663	
201.00	-49.131	100.018	
202.00	-49.365	102.317	
203.00	-50.000	98.053	
204.00	-50.462	92.995	
205.00	-50.903	80.990	
206.00	-51.188	79.289	
207.00	-50.999	82.031	
208.00	-51.068	75.563	
209.00	-51.281	71.476	
210.00	-51.889	72.108	
211.00	-51.502	58.807	
212.00	-51.471	60.815	
213.00	-51.569	46.817	
214.00	-51.713	46.567	
215.00	-52.273	47.119	
216.00	-51.848	28.657	
217.00	-52.971	14.881	
218.00	-52.379	12.899	
219.00	-53.010	11.034	
220.00	-53.612	10.764	
221.00	-54.037	-8.971	
222.00	-54.062	-20.618	
223.00	-55.233	-31.688	
224.00	-56.866	-37.248	
225.00	-57.765	-55.595	
226.00	-58.368	-74.768	
227.00	-59.269	-108.499	
228.00	-59.741	-115.733	
229.00	-60.050	-107.728	
230.00	-63.206	-147.959	
231.00	-65.230	-162.852	
232.00	-67.216	-158.319	
233.00	-67.402	-161.118	
234.00	-71.080	104.383	
235.00	-70.348	23.742	
236.00	-68.467	0.561	
237.00	-66.525	-26.934	
238.00	-61.327	-40.350	
239.00	-61.152	-66.113	
240.00	-58.163	-79.762	
241.00	-59.051	-79.588	
242.00	-58.119	-112.224	
243.00	-58.561	-127.341	
244.00	-57.497	-150.285	
245.00	-57.490	-170.471	
246.00	-57.862	175.419	
247.00	-58.059	143.912	
248.00	-56.827	113.914	
249.00	-55.932	88.777	
250.00	-55.063	73.622	
251.00	-54.465	53.197	
252.00	-54.689	26.186	
253.00	-52.924	6.355	
254.00	-55.194	-20.937	
255.00	-55.174	-32.555	
256.00	-55.777	-51.094	
257.00	-53.549	-71.872	
258.00	-53.615	-88.146	
259.00	-55.756	-118.241	
260.00	-54.857	-139.611	
261.00	-54.685	-154.361	
262.00	-56.347	-179.856	
263.00	-57.471	143.863	
264.00	-57.926	128.472	
265.00	-56.787	96.150	
266.00	-56.115	67.914	
267.00	-57.118	35.277	
268.00	-55.756	13.526	
269.00	-55.707	-6.695	
270.00	-55.755	-30.850	
271.00	-54.916	-47.715	
272.00	-55.852	-70.457	
273.00	-56.566	-93.885	
274.00	-56.583	-114.310	
275.00	-57.484	-143.911	
276.00	-58.868	-164.897	
277.00	-57.478	159.231	
278.00	-58.065	135.124	
279.00	-57.050	106.034	
280.00	-57.109	85.844	
281.00	-56.779	56.667	
282.00	-57.500	22.364	
283.00	-57.868	1.160	
284.00	-56.948	-33.806	
285.00	-55.989	-68.056	
286.00	-55.364	-90.845	
287.00	-55.181	-112.183	
288.00	-55.311	-131.530	
289.00	-55.862	-153.018	
290.00	-56.871	-177.236	
291.00	-57.481	157.420	
292.00	-57.832	132.052	
293.00	-58.179	103.330	
294.00	-57.175	73.022	
295.00	-57.725	46.065	
296.00	-57.593	22.946	
297.00	-57.964	-6.819	
298.00	-57.485	-19.924	
299.00	-57.112	-53.144	
300.00	-57.375	-79.757	
301.00	-56.768	-100.764	
302.00	-56.254	-121.668	
303.00	-56.176	-133.835	
304.00	-55.466	-161.864	
305.00	-55.806	-177.302	
306.00	-55.874	160.152	
307.00	-57.555	149.443	
308.00	-59.291	133.981	
309.00	-61.127	103.672	
310.00	-59.667	83.776	
311.00	-61.865	51.886	
312.00	-61.167	29.779	
313.00	-61.315	16.349	
314.00	-61.848	3.657	
315.00	-63.269	-11.973	
316.00	-64.913	-9.842	
317.00	-67.161	22.837	
318.00	-69.743	63.354	
319.00	-64.537	73.496	
320.00	-61.775	86.458	
321.00	-59.832	79.630	
322.00	-59.888	76.126	
323.00	-58.170	70.347	
324.00	-57.832	62.463	
325.00	-58.324	56.297	
326.00	-58.538	48.474	
327.00	-59.731	40.613	
328.00	-62.059	27.663	
329.00	-65.484	27.600	
330.00	-70.785	-6.956	
331.00	-67.935	-89.962	
332.00	-66.419	-105.328	
333.00	-65.212	-123.798	
334.00	-64.101	-149.330	
335.00	-65.070	-154.733	
336.00	-66.527	-167.053	
337.00	-68.599	-165.214	
338.00	-71.625	-170.057	
339.00	-72.298	154.569	
340.00	-73.548	11.558	
341.00	-69.171	24.969	
342.00	-65.230	12.020	
343.00	-62.419	7.079	
344.00	-62.034	-6.449	
345.00	-59.826	-7.993	
346.00	-59.442	-11.471	
347.00	-59.075	-15.180	
348.00	-59.882	-16.486	
349.00	-58.719	-27.959	
350.00	-58.537	-30.490	
351.00	-61.171	-46.006	
352.00	-61.802	-53.497	
353.00	-62.135	-63.179	
354.00	-58.544	-66.002	
355.00	-69.179	-75.485	
356.00	-66.403	-94.122	
357.00	-65.069	-129.390	
358.00	-66.587	-142.917	
359.00	-65.282	-171.211	
Frequency	2650.00	MHz	
Channel	test		
Scan Axis name	Azimuth  [deg]		
Scan Axis	Amplitude	Phase	
			
0.00	-64.801	60.651	
1.00	-67.647	71.888	
2.00	-64.808	63.329	
3.00	-65.609	73.885	
4.00	-68.549	103.084	
5.00	-68.597	93.701	
6.00	-71.360	127.758	
7.00	-70.456	126.744	
8.00	-72.593	115.346	
9.00	-70.053	124.071	
10.00	-69.915	144.868	
11.00	-69.876	143.850	
12.00	-71.615	157.990	
13.00	-69.835	170.956	
14.00	-71.130	156.761	
15.00	-72.564	175.803	
16.00	-70.346	-163.087	
17.00	-69.834	-173.385	
18.00	-73.873	127.061	
19.00	-72.662	175.914	
20.00	-72.873	132.504	
21.00	-71.235	147.962	
22.00	-75.011	144.827	
23.00	-75.034	125.516	
24.00	-69.327	178.096	
25.00	-70.552	-173.924	
26.00	-69.411	-121.568	
27.00	-66.442	-163.213	
28.00	-66.757	-126.385	
29.00	-65.862	-127.244	
30.00	-64.890	-106.459	
31.00	-63.725	-87.986	
32.00	-63.097	-80.627	
33.00	-64.477	-67.825	
34.00	-64.612	-57.550	
35.00	-62.841	-33.982	
36.00	-61.730	-21.816	
37.00	-60.679	-23.976	
38.00	-61.029	-10.876	
39.00	-63.634	11.424	
40.00	-61.693	31.950	
41.00	-60.867	40.288	
42.00	-61.810	42.270	
43.00	-63.572	66.576	
44.00	-67.175	71.550	
45.00	-69.229	98.156	
46.00	-72.798	119.244	
47.00	-77.857	-169.542	
48.00	-71.659	-129.369	
49.00	-67.414	-125.689	
50.00	-69.310	-70.106	
51.00	-63.054	-75.903	
52.00	-62.589	-68.218	
53.00	-61.818	-55.857	
54.00	-62.153	-42.665	
55.00	-61.548	-23.133	
56.00	-60.570	-9.045	
57.00	-61.153	8.301	
58.00	-62.117	32.136	
59.00	-63.262	36.568	
60.00	-64.461	67.369	
61.00	-69.097	103.523	
62.00	-64.650	123.378	
63.00	-66.898	135.374	
64.00	-64.453	167.049	
65.00	-67.257	-177.089	
66.00	-66.520	-147.105	
67.00	-65.504	-131.325	
68.00	-64.565	-130.568	
69.00	-65.904	-98.281	
70.00	-64.536	-77.563	
71.00	-64.716	-58.615	
72.00	-65.069	-57.698	
73.00	-65.897	-42.885	
74.00	-68.223	-22.884	
75.00	-68.626	-13.995	
76.00	-70.359	-8.623	
77.00	-69.177	-5.732	
78.00	-71.425	1.887	
79.00	-73.122	63.006	
80.00	-80.906	7.455	
81.00	-79.856	78.185	
82.00	-75.186	89.063	
83.00	-84.358	88.100	
84.00	-81.596	149.203	
85.00	-70.871	-143.125	
86.00	-76.426	175.551	
87.00	-70.642	-141.076	
88.00	-72.012	-101.379	
89.00	-68.165	-97.682	
90.00	-69.610	-76.436	
91.00	-67.297	-39.537	
92.00	-65.704	-24.195	
93.00	-63.032	-1.312	
94.00	-65.426	22.996	
95.00	-62.346	45.731	
96.00	-63.724	61.075	
97.00	-62.129	90.851	
98.00	-61.712	122.956	
99.00	-61.113	148.470	
100.00	-61.206	173.038	
101.00	-60.291	-167.687	
102.00	-60.776	-137.073	
103.00	-60.793	-114.848	
104.00	-60.508	-82.034	
105.00	-59.499	-63.106	
106.00	-59.245	-35.517	
107.00	-58.835	-11.220	
108.00	-58.305	11.369	
109.00	-58.852	26.900	
110.00	-58.261	51.203	
111.00	-58.561	77.568	
112.00	-58.237	108.120	
113.00	-59.374	138.555	
114.00	-59.055	161.614	
115.00	-58.983	-172.031	
116.00	-58.205	-141.906	
117.00	-57.262	-116.120	
118.00	-56.625	-96.246	
119.00	-56.212	-74.043	
120.00	-55.264	-45.595	
121.00	-54.952	-30.177	
122.00	-54.537	-4.736	
123.00	-54.888	18.345	
124.00	-53.760	38.227	
125.00	-53.796	57.876	
126.00	-53.878	84.598	
127.00	-53.707	99.318	
128.00	-53.912	129.028	
129.00	-53.441	146.954	
130.00	-53.774	171.797	
131.00	-54.296	-166.108	
132.00	-54.613	-144.567	
133.00	-55.038	-120.849	
134.00	-54.564	-100.744	
135.00	-54.600	-71.589	
136.00	-55.634	-50.865	
137.00	-55.160	-25.205	
138.00	-55.175	-4.543	
139.00	-54.808	25.782	
140.00	-55.127	41.056	
141.00	-54.747	69.367	
142.00	-54.283	89.024	
143.00	-53.724	111.500	
144.00	-53.043	133.020	
145.00	-52.799	152.799	
146.00	-51.838	174.215	
147.00	-51.867	-166.984	
148.00	-51.103	-147.373	
149.00	-50.790	-131.252	
150.00	-50.331	-106.138	
151.00	-49.786	-94.603	
152.00	-49.229	-75.949	
153.00	-48.998	-63.521	
154.00	-48.333	-46.813	
155.00	-47.596	-31.379	
156.00	-47.571	-16.311	
157.00	-47.272	-1.382	
158.00	-47.007	12.949	
159.00	-46.813	26.968	
160.00	-46.789	39.621	
161.00	-46.429	51.693	
162.00	-46.319	63.902	
163.00	-46.328	73.353	
164.00	-46.295	82.691	
165.00	-46.246	99.046	
166.00	-46.523	105.202	
167.00	-46.351	120.476	
168.00	-46.505	126.248	
169.00	-46.432	139.312	
170.00	-46.572	147.906	
171.00	-46.515	161.236	
172.00	-46.429	165.422	
173.00	-46.399	178.059	
174.00	-46.478	-176.836	
175.00	-46.422	-167.248	
176.00	-46.303	-159.957	
177.00	-46.423	-158.453	
178.00	-46.016	-147.210	
179.00	-46.068	-139.663	
180.00	-45.851	-132.614	
181.00	-45.689	-129.099	
182.00	-45.683	-125.574	
183.00	-45.444	-123.041	
184.00	-45.552	-112.598	
185.00	-45.645	-113.689	
186.00	-45.721	-108.824	
187.00	-45.868	-110.872	
188.00	-45.885	-103.955	
189.00	-46.282	-104.051	
190.00	-46.293	-104.822	
191.00	-46.768	-104.626	
192.00	-46.975	-105.098	
193.00	-47.111	-101.315	
194.00	-47.532	-103.819	
195.00	-47.693	-107.018	
196.00	-48.046	-106.754	
197.00	-48.623	-107.861	
198.00	-49.189	-112.311	
199.00	-49.596	-110.004	
200.00	-49.519	-111.013	
201.00	-50.227	-113.424	
202.00	-50.523	-108.043	
203.00	-50.901	-114.604	
204.00	-51.248	-116.398	
205.00	-51.863	-129.902	
206.00	-51.969	-131.167	
207.00	-52.138	-125.654	
208.00	-52.288	-127.211	
209.00	-53.599	-131.063	
210.00	-52.840	-134.731	
211.00	-53.409	-145.629	
212.00	-53.722	-152.953	
213.00	-54.556	-158.527	
214.00	-54.902	-160.512	
215.00	-55.370	-174.496	
216.00	-55.639	175.597	
217.00	-55.907	163.344	
218.00	-58.583	144.207	
219.00	-58.006	136.588	
220.00	-58.445	122.428	
221.00	-59.165	108.918	
222.00	-59.386	94.437	
223.00	-59.282	73.682	
224.00	-60.067	61.264	
225.00	-60.658	46.415	
226.00	-62.212	28.116	
227.00	-63.651	13.128	
228.00	-67.653	-16.098	
229.00	-68.675	-42.373	
230.00	-69.244	-91.871	
231.00	-66.602	-135.158	
232.00	-64.893	-159.980	
233.00	-63.433	-179.564	
234.00	-61.144	152.470	
235.00	-60.088	131.734	
236.00	-58.657	114.407	
237.00	-57.554	93.006	
238.00	-56.975	73.796	
239.00	-56.319	61.343	
240.00	-55.444	44.954	
241.00	-55.269	27.999	
242.00	-54.619	11.258	
243.00	-54.865	-6.081	
244.00	-54.553	-27.941	
245.00	-54.720	-44.022	
246.00	-54.736	-64.715	
247.00	-54.514	-87.049	
248.00	-54.916	-105.397	
249.00	-55.396	-129.583	
250.00	-55.294	-155.513	
251.00	-55.580	-179.540	
252.00	-55.434	148.483	
253.00	-54.555	131.633	
254.00	-53.988	102.998	
255.00	-53.331	86.315	
256.00	-53.381	62.022	
257.00	-53.150	44.982	
258.00	-53.682	27.973	
259.00	-54.213	2.758	
260.00	-54.405	-17.946	
261.00	-54.689	-40.475	
262.00	-54.682	-64.748	
263.00	-54.853	-88.300	
264.00	-55.006	-110.346	
265.00	-55.785	-137.199	
266.00	-56.009	-160.923	
267.00	-57.167	168.828	
268.00	-57.510	143.964	
269.00	-56.892	112.930	
270.00	-56.230	81.866	
271.00	-56.159	56.527	
272.00	-55.451	35.238	
273.00	-54.686	11.642	
274.00	-54.424	-7.664	
275.00	-54.202	-28.200	
276.00	-54.606	-44.958	
277.00	-55.225	-65.782	
278.00	-56.572	-89.181	
279.00	-58.270	-114.381	
280.00	-59.558	-158.140	
281.00	-59.864	169.622	
282.00	-56.981	125.304	
283.00	-55.504	104.474	
284.00	-54.826	85.617	
285.00	-54.613	58.251	
286.00	-55.114	37.019	
287.00	-55.753	12.288	
288.00	-57.093	-13.879	
289.00	-56.749	-43.482	
290.00	-56.779	-72.050	
291.00	-57.401	-95.177	
292.00	-56.913	-113.397	
293.00	-57.484	-138.371	
294.00	-58.683	-155.911	
295.00	-59.378	172.367	
296.00	-60.823	143.307	
297.00	-60.823	105.682	
298.00	-61.276	81.772	
299.00	-60.294	53.408	
300.00	-59.458	25.285	
301.00	-59.628	9.702	
302.00	-59.836	-13.045	
303.00	-60.372	-28.255	
304.00	-62.734	-54.818	
305.00	-64.530	-92.077	
306.00	-64.255	-117.683	
307.00	-63.639	-158.391	
308.00	-64.727	164.358	
309.00	-63.418	136.312	
310.00	-63.909	107.597	
311.00	-62.335	76.524	
312.00	-60.826	38.006	
313.00	-58.861	22.215	
314.00	-58.464	2.112	
315.00	-56.503	-22.119	
316.00	-55.483	-36.339	
317.00	-54.845	-54.090	
318.00	-54.358	-66.370	
319.00	-54.198	-86.219	
320.00	-53.944	-99.592	
321.00	-54.524	-118.943	
322.00	-55.053	-125.629	
323.00	-56.407	-146.151	
324.00	-56.908	-164.694	
325.00	-58.344	171.296	
326.00	-58.912	144.536	
327.00	-58.507	122.280	
328.00	-57.525	95.123	
329.00	-56.409	79.814	
330.00	-56.893	60.742	
331.00	-56.189	39.990	
332.00	-55.341	22.782	
333.00	-56.366	14.048	
334.00	-56.168	-3.108	
335.00	-56.178	-17.428	
336.00	-56.683	-32.299	
337.00	-57.473	-34.909	
338.00	-59.404	-44.655	
339.00	-61.281	-53.126	
340.00	-62.703	-59.671	
341.00	-65.191	-87.451	
342.00	-72.576	-95.248	
343.00	-80.327	-161.871	
344.00	-72.514	146.722	
345.00	-69.431	136.889	
346.00	-66.477	123.264	
347.00	-64.949	103.091	
348.00	-62.528	96.479	
349.00	-61.779	86.212	
350.00	-61.836	89.346	
351.00	-62.284	88.463	
352.00	-62.199	76.756	
353.00	-60.020	70.246	
354.00	-61.568	64.200	
355.00	-62.488	55.809	
356.00	-63.435	60.409	
357.00	-63.315	57.983	
358.00	-61.760	68.878	
359.00	-63.579	57.337	
Frequency	2700.00	MHz	
Channel	test		
Scan Axis name	Azimuth  [deg]		
Scan Axis	Amplitude	Phase	
			
0.00	-76.501	-179.695	
1.00	-77.335	141.267	
2.00	-74.577	179.291	
3.00	-73.673	-155.957	
4.00	-72.613	-168.010	
5.00	-67.920	-142.174	
6.00	-67.463	-144.183	
7.00	-67.879	-151.291	
8.00	-66.346	-136.121	
9.00	-66.108	-121.351	
10.00	-65.103	-137.282	
11.00	-66.082	-134.691	
12.00	-64.779	-123.032	
13.00	-64.126	-136.530	
14.00	-65.685	-119.445	
15.00	-67.813	-136.484	
16.00	-69.412	-133.451	
17.00	-66.758	-125.929	
18.00	-68.998	-130.895	
19.00	-73.521	-125.913	
20.00	-68.413	-128.354	
21.00	-72.253	-145.704	
22.00	-72.034	-126.202	
23.00	-69.949	-137.846	
24.00	-72.509	-135.336	
25.00	-74.306	-149.720	
26.00	-76.553	-155.313	
27.00	-78.940	-121.926	
28.00	-78.645	-123.748	
29.00	-88.908	93.678	
30.00	-95.439	-142.892	
31.00	-77.163	-121.421	
32.00	-83.408	46.690	
33.00	-92.798	31.231	
34.00	-77.391	30.488	
35.00	-72.176	74.404	
36.00	-90.762	115.481	
37.00	-72.618	118.473	
38.00	-71.615	112.863	
39.00	-75.147	76.461	
40.00	-73.278	-164.064	
41.00	-82.940	22.302	
42.00	-76.648	78.696	
43.00	-74.238	170.582	
44.00	-68.647	-160.175	
45.00	-72.826	154.717	
46.00	-67.280	-172.123	
47.00	-71.543	-156.287	
48.00	-79.949	-117.637	
49.00	-77.672	113.418	
50.00	-79.365	179.579	
51.00	-74.753	121.919	
52.00	-69.261	131.552	
53.00	-81.080	151.695	
54.00	-74.696	157.859	
55.00	-66.535	130.038	
56.00	-66.986	174.929	
57.00	-69.607	166.754	
58.00	-66.167	174.832	
59.00	-65.162	167.929	
60.00	-65.158	-123.853	
61.00	-68.185	-135.319	
62.00	-76.104	-101.880	
63.00	-72.441	-107.598	
64.00	-70.362	-62.014	
65.00	-82.208	-118.152	
66.00	-76.923	-14.054	
67.00	-73.917	90.186	
68.00	-69.531	73.018	
69.00	-68.628	69.446	
70.00	-71.738	129.192	
71.00	-72.654	128.906	
72.00	-68.788	155.046	
73.00	-82.244	91.559	
74.00	-72.557	92.897	
75.00	-73.825	147.594	
76.00	-81.355	69.630	
77.00	-80.709	-112.472	
78.00	-66.730	112.435	
79.00	-68.146	123.735	
80.00	-66.929	108.576	
81.00	-66.577	166.711	
82.00	-65.459	179.555	
83.00	-63.960	168.979	
84.00	-64.955	165.727	
85.00	-68.357	-163.096	
86.00	-64.046	-135.492	
87.00	-69.569	-83.724	
88.00	-67.800	-71.748	
89.00	-66.918	-70.487	
90.00	-68.003	-39.541	
91.00	-77.702	134.201	
92.00	-70.067	56.394	
93.00	-66.609	71.923	
94.00	-66.276	159.850	
95.00	-64.649	126.743	
96.00	-63.176	-162.304	
97.00	-61.822	-140.514	
98.00	-60.750	-113.397	
99.00	-63.767	-73.896	
100.00	-61.558	-54.583	
101.00	-58.096	-41.874	
102.00	-59.433	-15.789	
103.00	-59.087	20.248	
104.00	-57.413	29.753	
105.00	-59.516	52.027	
106.00	-57.082	78.356	
107.00	-55.306	94.988	
108.00	-55.807	126.664	
109.00	-56.513	130.460	
110.00	-55.963	165.199	
111.00	-55.237	-162.260	
112.00	-55.598	-142.546	
113.00	-56.437	-110.690	
114.00	-56.673	-88.840	
115.00	-55.410	-64.971	
116.00	-54.735	-44.431	
117.00	-53.623	-16.266	
118.00	-54.159	-0.746	
119.00	-53.701	22.942	
120.00	-53.217	45.279	
121.00	-53.292	65.731	
122.00	-53.644	87.920	
123.00	-52.652	110.781	
124.00	-52.835	128.217	
125.00	-53.913	151.496	
126.00	-53.500	177.980	
127.00	-54.127	-170.304	
128.00	-55.242	-137.447	
129.00	-56.351	-117.956	
130.00	-57.256	-85.243	
131.00	-56.807	-59.262	
132.00	-57.133	-26.906	
133.00	-59.237	2.763	
134.00	-57.925	19.146	
135.00	-57.245	50.120	
136.00	-55.926	80.231	
137.00	-57.033	102.078	
138.00	-55.885	122.994	
139.00	-56.220	146.421	
140.00	-55.947	167.571	
141.00	-56.366	-163.098	
142.00	-56.003	-140.739	
143.00	-55.272	-111.582	
144.00	-54.792	-93.493	
145.00	-54.289	-70.576	
146.00	-52.950	-45.307	
147.00	-51.840	-29.167	
148.00	-51.368	-7.037	
149.00	-50.442	5.399	
150.00	-49.840	28.238	
151.00	-49.171	38.405	
152.00	-48.975	54.473	
153.00	-48.254	65.520	
154.00	-47.753	84.767	
155.00	-48.054	95.737	
156.00	-47.636	115.002	
157.00	-47.482	128.895	
158.00	-47.510	143.635	
159.00	-47.554	159.471	
160.00	-47.306	173.776	
161.00	-47.233	-173.129	
162.00	-47.397	-162.114	
163.00	-47.301	-152.493	
164.00	-47.157	-140.336	
165.00	-47.260	-124.096	
166.00	-47.405	-115.937	
167.00	-47.552	-99.217	
168.00	-47.617	-93.960	
169.00	-47.667	-81.365	
170.00	-47.602	-71.015	
171.00	-47.521	-55.215	
172.00	-47.295	-50.447	
173.00	-47.467	-35.803	
174.00	-47.229	-31.548	
175.00	-47.083	-21.065	
176.00	-46.937	-11.738	
177.00	-46.740	-11.262	
178.00	-46.428	0.819	
179.00	-46.541	7.041	
180.00	-46.270	15.018	
181.00	-45.966	20.142	
182.00	-45.958	22.771	
183.00	-45.695	25.567	
184.00	-45.670	37.629	
185.00	-45.529	36.454	
186.00	-45.602	40.358	
187.00	-45.646	40.512	
188.00	-45.648	46.244	
189.00	-45.571	45.862	
190.00	-45.993	47.740	
191.00	-46.388	48.018	
192.00	-46.652	47.537	
193.00	-47.031	52.340	
194.00	-47.416	52.297	
195.00	-47.592	49.986	
196.00	-48.201	50.314	
197.00	-48.652	50.262	
198.00	-49.177	49.386	
199.00	-49.561	49.899	
200.00	-50.102	50.604	
201.00	-50.332	47.827	
202.00	-50.920	52.907	
203.00	-50.982	45.440	
204.00	-52.335	44.157	
205.00	-52.426	28.319	
206.00	-53.611	29.320	
207.00	-53.542	26.256	
208.00	-54.120	27.464	
209.00	-53.834	19.665	
210.00	-55.184	14.068	
211.00	-56.248	-2.054	
212.00	-55.825	7.505	
213.00	-55.252	-6.491	
214.00	-57.883	-21.662	
215.00	-58.702	-24.943	
216.00	-59.757	-47.182	
217.00	-61.828	-61.268	
218.00	-60.790	-85.695	
219.00	-64.100	-93.301	
220.00	-61.802	-110.870	
221.00	-62.854	-113.177	
222.00	-62.762	-137.589	
223.00	-63.027	-136.838	
224.00	-63.849	-157.753	
225.00	-67.952	174.151	
226.00	-69.183	138.376	
227.00	-69.634	77.280	
228.00	-73.913	72.433	
229.00	-65.816	8.679	
230.00	-63.124	0.015	
231.00	-62.846	-23.263	
232.00	-58.895	-46.669	
233.00	-58.225	-71.959	
234.00	-57.204	-75.943	
235.00	-56.224	-96.279	
236.00	-54.099	-110.504	
237.00	-55.208	-125.781	
238.00	-54.048	-138.797	
239.00	-53.528	-154.143	
240.00	-53.560	-176.007	
241.00	-53.451	171.609	
242.00	-53.931	150.133	
243.00	-54.110	132.936	
244.00	-53.567	109.961	
245.00	-53.669	92.581	
246.00	-53.874	71.155	
247.00	-53.689	50.504	
248.00	-53.999	28.134	
249.00	-54.432	7.853	
250.00	-54.110	-22.653	
251.00	-54.590	-41.142	
252.00	-53.323	-70.527	
253.00	-53.929	-87.307	
254.00	-54.057	-113.759	
255.00	-54.117	-133.135	
256.00	-54.433	-155.518	
257.00	-55.391	179.871	
258.00	-54.544	158.691	
259.00	-54.869	133.256	
260.00	-54.936	108.301	
261.00	-55.008	88.654	
262.00	-56.062	69.264	
263.00	-55.906	43.661	
264.00	-55.881	17.915	
265.00	-57.214	-9.062	
266.00	-57.401	-40.809	
267.00	-56.873	-67.026	
268.00	-57.121	-96.738	
269.00	-56.675	-122.142	
270.00	-56.583	-156.879	
271.00	-55.608	179.584	
272.00	-55.075	157.218	
273.00	-54.929	136.687	
274.00	-55.191	118.929	
275.00	-54.888	97.319	
276.00	-55.448	75.250	
277.00	-57.072	54.215	
278.00	-57.794	20.075	
279.00	-58.541	-4.633	
280.00	-58.301	-39.425	
281.00	-59.338	-66.326	
282.00	-57.902	-102.022	
283.00	-58.464	-124.342	
284.00	-58.407	-155.685	
285.00	-58.280	162.041	
286.00	-58.044	128.113	
287.00	-56.689	106.903	
288.00	-56.000	71.810	
289.00	-56.173	65.020	
290.00	-57.747	31.973	
291.00	-57.770	11.064	
292.00	-56.999	-11.917	
293.00	-57.405	-39.838	
294.00	-58.804	-65.899	
295.00	-58.072	-95.600	
296.00	-58.331	-125.905	
297.00	-59.143	-163.310	
298.00	-59.669	155.527	
299.00	-57.164	143.240	
300.00	-55.102	118.029	
301.00	-53.841	92.892	
302.00	-54.502	81.008	
303.00	-53.592	61.259	
304.00	-54.940	40.250	
305.00	-55.580	19.248	
306.00	-56.221	-3.614	
307.00	-55.874	-32.124	
308.00	-56.251	-54.728	
309.00	-56.302	-88.393	
310.00	-55.299	-116.906	
311.00	-54.820	-134.032	
312.00	-54.263	-154.631	
313.00	-53.810	-169.635	
314.00	-54.545	175.212	
315.00	-54.943	156.809	
316.00	-55.802	146.576	
317.00	-58.167	124.605	
318.00	-58.296	113.130	
319.00	-59.878	74.248	
320.00	-59.989	46.814	
321.00	-61.468	3.978	
322.00	-59.524	-11.403	
323.00	-59.022	-38.901	
324.00	-57.929	-50.905	
325.00	-58.128	-67.817	
326.00	-56.649	-73.665	
327.00	-58.395	-88.154	
328.00	-57.584	-104.607	
329.00	-58.418	-122.404	
330.00	-58.378	-129.486	
331.00	-60.535	-148.877	
332.00	-62.193	-164.473	
333.00	-62.678	-166.444	
334.00	-65.854	-179.330	
335.00	-65.182	168.712	
336.00	-69.012	136.113	
337.00	-68.721	132.069	
338.00	-69.369	109.091	
339.00	-70.274	120.722	
340.00	-75.514	95.904	
341.00	-76.089	144.391	
342.00	-72.125	-171.434	
343.00	-73.091	-175.795	
344.00	-68.736	165.186	
345.00	-67.717	-177.446	
346.00	-67.329	173.914	
347.00	-66.282	-176.535	
348.00	-66.019	174.597	
349.00	-67.563	166.749	
350.00	-68.378	165.223	
351.00	-66.006	156.950	
352.00	-68.796	151.549	
353.00	-68.533	154.991	
354.00	-67.414	141.150	
355.00	-70.017	136.735	
356.00	-70.677	127.409	
357.00	-69.208	150.009	
358.00	-72.648	123.353	
359.00	-70.054	144.680	
