Test Title:	Alpha Wireless Indoor Range						
Date:	02/11/2017						
Time:	15:57						
Operator Name:	FL						
Comment:	Version 2 Run 2
Cable length changed						
Caib. File Name:	C:\Program Files\Midas 2.01d\Calibration Files\test sigma 180900.cal						
							
[Scan Axis] Name: 	Azimuth  [deg]Start: 	0.000000	Stop	359.000000	Increment	1.000000[Step Axis] Name: 	Start: 	0.000000	Stop	0.000000	Increment	0.000000[Tert] Name: 	None [Forth] Name: 	None  [ Freq.]  (List) 	MHz.	1694.000000	1710.000000	1800.000000	1850.000000	1950.000000	2050.000000	2170.000000	2300.000000	2350.000000	2400.000000	2450.000000	2496.000000	2550.000000	2600.000000	2650.000000	2700.000000
 [Switch]  	None [Channel]  	test			 [ Beam] 	None			
Database:			
First Question			
2nd			
3rd			
4th			
			
Frequency	1694.00	MHz	
Channel	test		
Scan Axis name	Azimuth  [deg]		
Scan Axis	Amplitude	Phase	
			
0.00	-55.932	40.464	
1.00	-54.965	35.724	
2.00	-55.659	43.140	
3.00	-55.170	39.936	
4.00	-54.813	41.100	
5.00	-54.725	48.618	
6.00	-55.175	54.524	
7.00	-56.354	46.905	
8.00	-57.294	56.344	
9.00	-61.061	41.251	
10.00	-61.566	33.199	
11.00	-67.011	5.735	
12.00	-66.982	-31.449	
13.00	-65.094	-79.727	
14.00	-61.991	-85.731	
15.00	-59.240	-86.453	
16.00	-57.936	-92.500	
17.00	-57.086	-97.926	
18.00	-55.637	-100.630	
19.00	-55.312	-99.415	
20.00	-55.241	-101.425	
21.00	-55.200	-99.006	
22.00	-55.119	-98.209	
23.00	-56.545	-95.367	
24.00	-58.317	-76.847	
25.00	-58.317	-71.642	
26.00	-58.890	-68.482	
27.00	-59.153	-61.151	
28.00	-58.788	-49.185	
29.00	-58.671	-36.464	
30.00	-58.710	-21.129	
31.00	-58.763	-11.830	
32.00	-59.083	-0.366	
33.00	-59.771	13.574	
34.00	-60.403	30.710	
35.00	-62.017	46.281	
36.00	-63.819	70.363	
37.00	-66.388	93.851	
38.00	-68.469	131.760	
39.00	-67.132	-168.559	
40.00	-64.816	-142.857	
41.00	-63.409	-125.502	
42.00	-61.756	-111.607	
43.00	-60.562	-96.789	
44.00	-61.055	-82.202	
45.00	-60.076	-69.623	
46.00	-60.179	-62.376	
47.00	-60.527	-50.174	
48.00	-62.244	-35.334	
49.00	-62.784	-19.636	
50.00	-62.447	-6.491	
51.00	-60.689	15.833	
52.00	-60.404	23.357	
53.00	-59.232	43.145	
54.00	-58.868	50.347	
55.00	-58.081	62.970	
56.00	-57.666	67.201	
57.00	-58.032	81.884	
58.00	-58.405	86.733	
59.00	-57.738	100.632	
60.00	-58.418	108.984	
61.00	-60.573	121.198	
62.00	-61.266	137.196	
63.00	-62.036	155.996	
64.00	-63.497	165.355	
65.00	-64.943	-179.828	
66.00	-65.715	-165.316	
67.00	-66.376	-160.440	
68.00	-68.162	-153.740	
69.00	-67.388	-153.685	
70.00	-68.242	-169.587	
71.00	-66.386	-166.932	
72.00	-64.705	-166.374	
73.00	-63.139	-157.766	
74.00	-62.796	-149.490	
75.00	-60.836	-137.316	
76.00	-59.681	-130.223	
77.00	-58.868	-115.628	
78.00	-58.361	-107.290	
79.00	-57.698	-95.610	
80.00	-58.503	-88.629	
81.00	-57.563	-62.740	
82.00	-57.461	-50.073	
83.00	-57.277	-27.693	
84.00	-56.754	-14.908	
85.00	-56.573	-1.303	
86.00	-56.011	11.957	
87.00	-55.906	28.365	
88.00	-56.101	45.444	
89.00	-56.726	61.396	
90.00	-56.386	75.645	
91.00	-55.546	95.933	
92.00	-55.196	112.672	
93.00	-55.313	126.377	
94.00	-54.665	138.415	
95.00	-53.834	150.389	
96.00	-53.885	162.918	
97.00	-53.874	171.586	
98.00	-53.830	-176.167	
99.00	-54.576	-169.458	
100.00	-55.510	-159.767	
101.00	-56.659	-145.642	
102.00	-58.182	-129.584	
103.00	-58.820	-120.367	
104.00	-61.084	-96.970	
105.00	-62.114	-72.605	
106.00	-61.913	-66.762	
107.00	-63.149	-59.705	
108.00	-62.762	-36.274	
109.00	-63.049	-26.790	
110.00	-62.649	-18.431	
111.00	-63.458	-17.595	
112.00	-63.408	-12.528	
113.00	-62.800	-15.691	
114.00	-63.109	-24.205	
115.00	-63.033	-16.209	
116.00	-63.186	-5.949	
117.00	-65.826	-7.808	
118.00	-67.716	-0.482	
119.00	-71.506	27.556	
120.00	-74.696	130.215	
121.00	-66.136	157.608	
122.00	-60.678	176.320	
123.00	-57.271	-174.584	
124.00	-54.415	-164.642	
125.00	-52.244	-159.033	
126.00	-50.507	-148.978	
127.00	-49.357	-142.668	
128.00	-48.559	-133.395	
129.00	-48.283	-122.842	
130.00	-47.787	-113.640	
131.00	-47.749	-103.976	
132.00	-48.080	-90.429	
133.00	-48.580	-76.166	
134.00	-49.230	-61.552	
135.00	-49.748	-45.565	
136.00	-50.315	-28.072	
137.00	-50.156	-7.937	
138.00	-50.458	6.718	
139.00	-50.746	25.807	
140.00	-50.773	43.175	
141.00	-51.055	55.487	
142.00	-51.008	73.528	
143.00	-51.343	88.356	
144.00	-51.473	101.595	
145.00	-51.071	113.594	
146.00	-50.848	125.493	
147.00	-50.706	132.720	
148.00	-50.447	142.584	
149.00	-50.167	152.706	
150.00	-49.646	160.103	
151.00	-49.310	167.369	
152.00	-48.620	173.226	
153.00	-48.394	-179.386	
154.00	-48.142	-170.713	
155.00	-48.120	-164.165	
156.00	-48.491	-155.941	
157.00	-49.357	-145.152	
158.00	-50.480	-134.787	
159.00	-53.247	-114.244	
160.00	-55.495	-80.572	
161.00	-54.001	-32.925	
162.00	-50.642	-2.256	
163.00	-47.690	13.281	
164.00	-45.528	22.894	
165.00	-43.954	30.932	
166.00	-43.176	35.023	
167.00	-43.067	40.071	
168.00	-43.509	42.858	
169.00	-45.071	42.689	
170.00	-48.196	37.937	
171.00	-53.317	6.826	
172.00	-50.209	-69.762	
173.00	-44.042	-89.025	
174.00	-39.748	-94.426	
175.00	-36.756	-95.545	
176.00	-34.496	-95.352	
177.00	-32.896	-94.873	
178.00	-31.689	-94.332	
179.00	-30.869	-93.440	
180.00	-30.380	-92.814	
181.00	-30.224	-92.345	
182.00	-30.377	-91.642	
183.00	-30.845	-91.147	
184.00	-31.685	-90.873	
185.00	-32.933	-90.959	
186.00	-34.645	-90.614	
187.00	-37.057	-90.202	
188.00	-40.472	-90.216	
189.00	-46.004	-89.686	
190.00	-59.833	-66.710	
191.00	-52.038	78.622	
192.00	-45.282	82.749	
193.00	-42.615	84.176	
194.00	-41.052	85.341	
195.00	-40.370	85.734	
196.00	-40.113	86.752	
197.00	-40.260	88.750	
198.00	-40.810	90.258	
199.00	-41.509	92.897	
200.00	-42.268	96.124	
201.00	-43.345	99.171	
202.00	-44.318	101.096	
203.00	-45.397	102.784	
204.00	-46.847	103.963	
205.00	-48.735	103.889	
206.00	-51.548	100.414	
207.00	-55.948	96.888	
208.00	-64.484	81.186	
209.00	-63.210	-69.658	
210.00	-55.399	-84.530	
211.00	-51.664	-90.685	
212.00	-49.414	-97.512	
213.00	-47.915	-104.026	
214.00	-47.181	-110.649	
215.00	-47.245	-117.643	
216.00	-47.939	-124.693	
217.00	-49.105	-132.616	
218.00	-51.142	-142.211	
219.00	-54.459	-159.538	
220.00	-60.185	169.372	
221.00	-61.926	94.040	
222.00	-54.999	52.541	
223.00	-51.612	35.727	
224.00	-49.388	23.010	
225.00	-47.699	14.352	
226.00	-46.953	6.906	
227.00	-46.285	1.479	
228.00	-46.276	-4.114	
229.00	-46.712	-8.582	
230.00	-47.453	-13.664	
231.00	-48.372	-15.983	
232.00	-50.040	-17.076	
233.00	-51.565	-15.070	
234.00	-53.580	-12.556	
235.00	-55.344	-3.771	
236.00	-56.422	8.221	
237.00	-57.245	15.311	
238.00	-56.800	20.478	
239.00	-57.067	21.117	
240.00	-57.707	15.084	
241.00	-58.107	6.562	
242.00	-59.379	-9.332	
243.00	-60.504	-26.366	
244.00	-61.473	-49.749	
245.00	-61.810	-78.134	
246.00	-60.830	-102.452	
247.00	-59.685	-127.294	
248.00	-57.969	-144.518	
249.00	-56.744	-154.306	
250.00	-55.836	-166.742	
251.00	-55.335	-177.308	
252.00	-54.730	175.016	
253.00	-54.788	170.788	
254.00	-54.691	164.877	
255.00	-55.231	160.093	
256.00	-56.151	158.107	
257.00	-57.612	156.211	
258.00	-58.938	160.907	
259.00	-60.965	164.406	
260.00	-62.171	170.294	
261.00	-62.856	-173.424	
262.00	-64.658	-158.958	
263.00	-62.779	-142.587	
264.00	-62.401	-136.745	
265.00	-60.892	-131.412	
266.00	-60.183	-127.762	
267.00	-59.833	-126.371	
268.00	-59.516	-129.533	
269.00	-58.898	-133.866	
270.00	-59.060	-137.170	
271.00	-58.209	-143.051	
272.00	-58.553	-149.913	
273.00	-58.929	-159.091	
274.00	-58.678	-164.734	
275.00	-59.145	-175.800	
276.00	-59.000	174.317	
277.00	-60.709	166.754	
278.00	-60.817	155.289	
279.00	-61.881	150.444	
280.00	-61.976	143.910	
281.00	-63.275	140.207	
282.00	-65.692	144.340	
283.00	-64.396	140.762	
284.00	-65.725	159.728	
285.00	-63.831	170.804	
286.00	-62.031	-178.093	
287.00	-58.590	-170.147	
288.00	-57.015	-169.912	
289.00	-55.543	-174.394	
290.00	-54.171	-173.165	
291.00	-53.428	-178.051	
292.00	-52.842	176.685	
293.00	-52.870	174.962	
294.00	-52.873	167.640	
295.00	-53.730	161.312	
296.00	-54.874	154.894	
297.00	-57.005	149.380	
298.00	-59.557	137.298	
299.00	-62.542	119.747	
300.00	-68.996	80.495	
301.00	-66.669	10.016	
302.00	-64.069	-4.645	
303.00	-60.525	-28.621	
304.00	-59.287	-41.485	
305.00	-57.764	-56.635	
306.00	-57.302	-66.658	
307.00	-58.027	-76.680	
308.00	-57.838	-89.521	
309.00	-58.236	-104.332	
310.00	-58.614	-124.062	
311.00	-58.414	-138.719	
312.00	-57.844	-154.954	
313.00	-57.460	-168.347	
314.00	-56.727	176.375	
315.00	-55.856	164.466	
316.00	-55.273	153.912	
317.00	-54.519	145.870	
318.00	-54.236	134.289	
319.00	-54.018	128.210	
320.00	-53.868	118.762	
321.00	-54.015	110.869	
322.00	-54.564	103.637	
323.00	-54.990	99.317	
324.00	-55.972	95.502	
325.00	-56.903	92.894	
326.00	-58.169	95.338	
327.00	-59.486	98.321	
328.00	-60.768	102.522	
329.00	-61.774	108.708	
330.00	-61.948	110.633	
331.00	-62.007	103.166	
332.00	-62.834	92.959	
333.00	-62.516	74.429	
334.00	-63.040	52.013	
335.00	-61.814	29.378	
336.00	-60.773	14.940	
337.00	-59.076	0.172	
338.00	-58.421	-12.155	
339.00	-57.781	-25.631	
340.00	-57.507	-37.051	
341.00	-57.031	-48.748	
342.00	-57.480	-69.799	
343.00	-57.984	-83.343	
344.00	-58.526	-104.296	
345.00	-58.608	-121.755	
346.00	-58.104	-145.913	
347.00	-57.428	-165.064	
348.00	-57.346	-178.475	
349.00	-57.036	172.325	
350.00	-56.875	158.750	
351.00	-57.195	145.179	
352.00	-58.254	136.290	
353.00	-59.155	119.268	
354.00	-59.288	100.258	
355.00	-59.486	83.202	
356.00	-59.671	68.862	
357.00	-58.248	54.779	
358.00	-57.559	46.561	
359.00	-57.518	40.996	
Frequency	1710.00	MHz	
Channel	test		
Scan Axis name	Azimuth  [deg]		
Scan Axis	Amplitude	Phase	
			
0.00	-56.997	-35.354	
1.00	-57.863	-50.861	
2.00	-56.683	-39.761	
3.00	-56.166	-41.398	
4.00	-58.045	-37.241	
5.00	-57.040	-33.929	
6.00	-58.425	-32.635	
7.00	-58.175	-40.366	
8.00	-59.752	-31.346	
9.00	-62.653	-39.663	
10.00	-64.025	-47.477	
11.00	-64.390	-72.356	
12.00	-78.607	-142.226	
13.00	-64.142	-121.953	
14.00	-62.145	-157.070	
15.00	-60.571	-165.990	
16.00	-61.562	-178.749	
17.00	-61.591	-174.895	
18.00	-59.607	-169.125	
19.00	-58.621	-168.704	
20.00	-61.698	-171.418	
21.00	-62.497	-175.598	
22.00	-65.925	-164.818	
23.00	-72.845	-125.706	
24.00	-66.345	-25.958	
25.00	-63.172	-22.484	
26.00	-60.450	-15.201	
27.00	-59.954	-18.351	
28.00	-58.660	-20.364	
29.00	-57.682	-21.337	
30.00	-57.680	-20.383	
31.00	-58.294	-22.459	
32.00	-58.999	-19.812	
33.00	-60.266	-15.426	
34.00	-62.915	-11.495	
35.00	-67.195	-2.491	
36.00	-73.509	51.856	
37.00	-69.118	129.845	
38.00	-63.054	152.700	
39.00	-60.404	160.652	
40.00	-59.094	166.392	
41.00	-58.469	173.045	
42.00	-58.031	-179.624	
43.00	-59.463	-165.173	
44.00	-60.110	-158.079	
45.00	-61.076	-142.703	
46.00	-61.559	-130.064	
47.00	-61.072	-113.547	
48.00	-60.764	-100.246	
49.00	-59.362	-77.328	
50.00	-59.163	-64.110	
51.00	-58.170	-54.940	
52.00	-56.814	-49.202	
53.00	-56.329	-43.387	
54.00	-56.769	-33.212	
55.00	-57.111	-24.118	
56.00	-58.617	-10.690	
57.00	-58.949	7.403	
58.00	-59.635	17.464	
59.00	-61.291	36.799	
60.00	-64.078	71.905	
61.00	-61.576	90.025	
62.00	-61.035	100.383	
63.00	-61.255	120.668	
64.00	-61.302	123.170	
65.00	-61.422	136.378	
66.00	-60.675	133.068	
67.00	-62.286	135.465	
68.00	-62.416	134.512	
69.00	-63.444	129.234	
70.00	-63.160	129.905	
71.00	-64.216	135.818	
72.00	-63.848	140.239	
73.00	-65.157	151.697	
74.00	-67.186	175.418	
75.00	-65.676	-165.323	
76.00	-66.039	-138.147	
77.00	-64.711	-115.831	
78.00	-63.246	-99.834	
79.00	-59.158	-83.786	
80.00	-57.690	-63.450	
81.00	-57.238	-57.079	
82.00	-56.439	-38.829	
83.00	-56.048	-37.493	
84.00	-55.707	-19.485	
85.00	-55.118	-11.925	
86.00	-56.231	-2.647	
87.00	-56.332	11.865	
88.00	-56.592	26.988	
89.00	-58.065	40.671	
90.00	-57.966	60.263	
91.00	-58.489	79.819	
92.00	-59.603	101.383	
93.00	-57.599	122.325	
94.00	-58.069	122.273	
95.00	-58.171	138.520	
96.00	-57.947	156.481	
97.00	-57.953	152.501	
98.00	-61.639	176.761	
99.00	-65.984	171.752	
100.00	-66.266	-174.646	
101.00	-80.009	-139.104	
102.00	-72.952	-58.664	
103.00	-65.855	-2.125	
104.00	-61.881	15.775	
105.00	-58.580	21.519	
106.00	-57.031	21.682	
107.00	-55.887	32.700	
108.00	-55.598	34.260	
109.00	-54.701	40.290	
110.00	-54.150	38.492	
111.00	-54.833	33.423	
112.00	-54.261	31.701	
113.00	-53.803	26.136	
114.00	-53.268	18.533	
115.00	-52.457	14.633	
116.00	-51.436	13.665	
117.00	-50.389	19.166	
118.00	-50.472	11.716	
119.00	-49.480	17.882	
120.00	-49.323	21.732	
121.00	-49.276	25.639	
122.00	-49.447	29.397	
123.00	-49.625	36.458	
124.00	-50.280	43.841	
125.00	-50.925	47.510	
126.00	-52.388	56.607	
127.00	-54.303	59.396	
128.00	-55.584	59.141	
129.00	-58.673	64.430	
130.00	-62.061	45.993	
131.00	-63.461	18.758	
132.00	-62.032	-21.865	
133.00	-58.544	-28.774	
134.00	-55.920	-32.027	
135.00	-54.532	-32.145	
136.00	-53.351	-30.800	
137.00	-52.757	-31.280	
138.00	-52.345	-31.525	
139.00	-51.762	-31.409	
140.00	-51.707	-31.133	
141.00	-51.388	-31.500	
142.00	-51.963	-33.529	
143.00	-51.796	-33.826	
144.00	-52.085	-30.199	
145.00	-53.170	-25.459	
146.00	-54.096	-18.929	
147.00	-56.027	-7.182	
148.00	-58.443	0.988	
149.00	-61.995	42.117	
150.00	-61.919	89.199	
151.00	-59.503	139.122	
152.00	-53.926	159.701	
153.00	-51.344	171.268	
154.00	-49.028	-179.030	
155.00	-47.791	-171.515	
156.00	-47.323	-162.027	
157.00	-46.737	-158.065	
158.00	-48.119	-147.905	
159.00	-49.451	-135.404	
160.00	-51.916	-115.814	
161.00	-54.731	-70.660	
162.00	-52.274	-22.485	
163.00	-48.260	-0.308	
164.00	-45.629	10.304	
165.00	-43.833	19.622	
166.00	-42.645	23.618	
167.00	-42.357	25.222	
168.00	-43.179	24.613	
169.00	-44.807	15.928	
170.00	-47.528	-5.879	
171.00	-47.394	-55.713	
172.00	-42.304	-86.150	
173.00	-38.038	-96.690	
174.00	-34.691	-101.088	
175.00	-32.221	-103.375	
176.00	-30.287	-103.965	
177.00	-28.790	-104.352	
178.00	-27.694	-104.563	
179.00	-26.896	-104.239	
180.00	-26.413	-104.086	
181.00	-26.203	-103.894	
182.00	-26.331	-103.466	
183.00	-26.623	-103.370	
184.00	-27.296	-102.699	
185.00	-28.300	-102.046	
186.00	-29.665	-100.910	
187.00	-31.496	-98.513	
188.00	-33.845	-94.643	
189.00	-36.998	-86.777	
190.00	-40.718	-70.560	
191.00	-43.775	-36.179	
192.00	-43.230	0.594	
193.00	-41.216	19.945	
194.00	-40.064	29.208	
195.00	-39.652	34.952	
196.00	-39.801	39.344	
197.00	-40.930	42.888	
198.00	-42.422	49.588	
199.00	-44.688	59.252	
200.00	-47.415	77.227	
201.00	-49.116	106.343	
202.00	-48.175	134.629	
203.00	-46.799	150.733	
204.00	-45.824	160.764	
205.00	-45.462	166.739	
206.00	-45.869	175.426	
207.00	-46.570	-175.855	
208.00	-47.512	-161.273	
209.00	-48.193	-141.861	
210.00	-47.380	-122.715	
211.00	-45.760	-109.242	
212.00	-44.406	-102.123	
213.00	-43.658	-98.267	
214.00	-43.294	-97.934	
215.00	-43.384	-99.486	
216.00	-43.984	-97.716	
217.00	-45.345	-97.962	
218.00	-47.639	-99.074	
219.00	-51.377	-95.480	
220.00	-57.974	-71.431	
221.00	-59.355	-5.169	
222.00	-53.772	26.309	
223.00	-49.448	28.685	
224.00	-46.978	25.879	
225.00	-46.393	24.556	
226.00	-45.730	16.047	
227.00	-45.750	9.503	
228.00	-45.881	-0.263	
229.00	-46.627	-8.012	
230.00	-47.681	-17.772	
231.00	-48.521	-26.016	
232.00	-50.187	-39.233	
233.00	-52.076	-46.792	
234.00	-53.768	-57.255	
235.00	-57.147	-66.767	
236.00	-61.478	-77.695	
237.00	-70.309	-73.134	
238.00	-71.763	18.162	
239.00	-63.839	43.352	
240.00	-59.014	39.011	
241.00	-56.814	35.887	
242.00	-55.479	27.598	
243.00	-54.844	18.194	
244.00	-54.196	12.375	
245.00	-54.362	3.203	
246.00	-54.387	-5.387	
247.00	-54.885	-16.294	
248.00	-55.715	-26.241	
249.00	-56.598	-39.250	
250.00	-57.480	-48.021	
251.00	-58.531	-54.919	
252.00	-60.067	-69.810	
253.00	-60.470	-75.084	
254.00	-61.686	-87.291	
255.00	-62.326	-87.218	
256.00	-65.383	-94.498	
257.00	-65.253	-100.110	
258.00	-67.314	-94.297	
259.00	-67.990	-78.112	
260.00	-66.426	-82.691	
261.00	-65.687	-62.169	
262.00	-65.013	-63.499	
263.00	-63.302	-62.583	
264.00	-67.662	-64.887	
265.00	-64.177	-74.149	
266.00	-65.444	-80.396	
267.00	-67.928	-95.500	
268.00	-69.097	-91.772	
269.00	-73.372	-93.713	
270.00	-88.189	-54.497	
271.00	-80.615	-64.714	
272.00	-80.107	46.831	
273.00	-73.406	39.893	
274.00	-68.627	8.086	
275.00	-67.586	11.891	
276.00	-68.294	0.093	
277.00	-63.820	-6.087	
278.00	-64.206	-19.960	
279.00	-64.757	-46.380	
280.00	-64.261	-39.521	
281.00	-65.384	-61.933	
282.00	-64.835	-80.835	
283.00	-65.283	-100.250	
284.00	-63.877	-95.344	
285.00	-64.469	-133.465	
286.00	-65.648	-156.578	
287.00	-67.636	176.856	
288.00	-64.624	138.766	
289.00	-62.999	126.181	
290.00	-61.931	124.515	
291.00	-60.859	114.690	
292.00	-58.209	103.224	
293.00	-60.281	94.729	
294.00	-56.559	89.095	
295.00	-57.883	97.543	
296.00	-56.500	80.304	
297.00	-58.602	89.922	
298.00	-58.091	90.060	
299.00	-61.484	114.826	
300.00	-60.442	110.041	
301.00	-62.725	107.625	
302.00	-63.347	107.649	
303.00	-63.050	107.048	
304.00	-63.460	115.845	
305.00	-64.986	109.899	
306.00	-64.432	102.987	
307.00	-65.502	89.781	
308.00	-65.793	81.257	
309.00	-63.772	86.502	
310.00	-64.139	79.945	
311.00	-60.544	69.484	
312.00	-60.484	66.899	
313.00	-57.718	65.578	
314.00	-57.305	60.731	
315.00	-55.951	58.590	
316.00	-55.256	57.743	
317.00	-54.495	50.106	
318.00	-53.996	43.556	
319.00	-54.132	38.290	
320.00	-53.901	29.453	
321.00	-54.690	25.922	
322.00	-55.827	14.736	
323.00	-56.916	5.588	
324.00	-59.557	-0.435	
325.00	-60.900	-8.229	
326.00	-65.629	-27.516	
327.00	-71.543	-23.235	
328.00	-74.195	-90.731	
329.00	-71.915	176.642	
330.00	-74.724	160.274	
331.00	-71.522	149.536	
332.00	-73.550	151.179	
333.00	-71.331	147.758	
334.00	-78.511	-100.053	
335.00	-71.075	-58.644	
336.00	-67.597	-71.042	
337.00	-65.389	-84.297	
338.00	-63.013	-97.593	
339.00	-61.010	-85.314	
340.00	-58.909	-102.772	
341.00	-58.560	-108.507	
342.00	-59.170	-119.922	
343.00	-58.668	-132.924	
344.00	-60.249	-158.681	
345.00	-62.138	-161.399	
346.00	-65.071	-179.960	
347.00	-65.578	132.502	
348.00	-62.903	79.975	
349.00	-59.717	54.402	
350.00	-60.074	64.339	
351.00	-58.383	47.808	
352.00	-57.637	33.732	
353.00	-57.576	20.175	
354.00	-56.028	18.036	
355.00	-56.832	13.183	
356.00	-56.670	1.834	
357.00	-58.103	-15.885	
358.00	-57.044	-16.285	
359.00	-56.836	-23.926	
Frequency	1800.00	MHz	
Channel	test		
Scan Axis name	Azimuth  [deg]		
Scan Axis	Amplitude	Phase	
			
0.00	-61.995	-132.283	
1.00	-62.025	-129.639	
2.00	-63.311	-134.816	
3.00	-63.480	-139.456	
4.00	-61.782	-135.460	
5.00	-60.691	-140.198	
6.00	-59.058	-141.915	
7.00	-58.809	-149.071	
8.00	-57.734	-141.239	
9.00	-56.791	-146.573	
10.00	-56.685	-142.899	
11.00	-56.620	-143.886	
12.00	-57.446	-139.802	
13.00	-58.334	-135.084	
14.00	-59.575	-127.157	
15.00	-61.741	-119.457	
16.00	-62.808	-98.964	
17.00	-63.596	-78.009	
18.00	-64.783	-68.421	
19.00	-65.462	-66.430	
20.00	-68.719	-47.899	
21.00	-71.313	-50.108	
22.00	-78.124	-73.934	
23.00	-77.896	-131.918	
24.00	-77.536	-151.809	
25.00	-72.064	-143.961	
26.00	-71.377	-113.751	
27.00	-68.902	-88.115	
28.00	-76.176	-166.866	
29.00	-70.918	-54.327	
30.00	-68.515	-63.822	
31.00	-66.750	-18.724	
32.00	-68.030	-31.791	
33.00	-66.338	3.541	
34.00	-64.328	16.010	
35.00	-63.275	36.708	
36.00	-62.137	50.492	
37.00	-60.366	73.441	
38.00	-57.958	68.696	
39.00	-59.377	77.957	
40.00	-58.954	85.293	
41.00	-60.867	87.377	
42.00	-62.247	87.482	
43.00	-65.161	115.991	
44.00	-74.040	88.104	
45.00	-68.746	72.629	
46.00	-69.684	12.785	
47.00	-69.223	28.958	
48.00	-66.310	23.154	
49.00	-69.119	31.875	
50.00	-67.239	37.824	
51.00	-65.645	48.406	
52.00	-66.469	68.285	
53.00	-66.297	103.650	
54.00	-64.935	96.685	
55.00	-63.066	103.506	
56.00	-62.625	98.304	
57.00	-62.579	98.952	
58.00	-61.442	102.170	
59.00	-61.709	111.561	
60.00	-61.399	109.686	
61.00	-60.193	112.163	
62.00	-62.925	120.836	
63.00	-63.970	132.602	
64.00	-67.750	132.376	
65.00	-72.256	137.481	
66.00	-89.103	-136.442	
67.00	-71.008	-28.651	
68.00	-65.888	-25.590	
69.00	-62.397	-17.863	
70.00	-60.376	-7.996	
71.00	-58.740	3.799	
72.00	-57.925	10.103	
73.00	-56.966	20.742	
74.00	-57.235	32.803	
75.00	-57.865	42.659	
76.00	-58.994	55.928	
77.00	-60.234	73.175	
78.00	-61.154	91.435	
79.00	-63.854	117.959	
80.00	-63.357	157.583	
81.00	-63.463	-167.094	
82.00	-62.254	-147.867	
83.00	-60.050	-128.428	
84.00	-58.444	-117.837	
85.00	-57.270	-99.319	
86.00	-56.782	-86.886	
87.00	-56.996	-71.985	
88.00	-56.455	-60.757	
89.00	-56.753	-40.667	
90.00	-56.345	-26.174	
91.00	-56.160	-11.374	
92.00	-55.780	7.517	
93.00	-55.869	29.207	
94.00	-56.435	42.321	
95.00	-57.137	55.054	
96.00	-56.095	73.209	
97.00	-56.020	92.355	
98.00	-55.396	109.844	
99.00	-55.577	123.066	
100.00	-55.277	138.356	
101.00	-54.716	158.928	
102.00	-54.674	175.668	
103.00	-55.151	-171.823	
104.00	-55.521	-158.280	
105.00	-56.242	-146.178	
106.00	-56.585	-134.340	
107.00	-57.663	-116.654	
108.00	-58.140	-102.615	
109.00	-58.127	-88.899	
110.00	-59.452	-73.939	
111.00	-60.635	-67.677	
112.00	-61.081	-54.642	
113.00	-59.681	-58.488	
114.00	-59.783	-52.333	
115.00	-59.277	-50.131	
116.00	-57.792	-55.953	
117.00	-57.323	-53.141	
118.00	-55.864	-48.503	
119.00	-54.553	-42.016	
120.00	-53.946	-28.464	
121.00	-53.770	-16.997	
122.00	-52.697	-0.321	
123.00	-52.669	15.966	
124.00	-52.163	38.337	
125.00	-51.788	58.853	
126.00	-51.130	80.510	
127.00	-49.872	100.964	
128.00	-49.387	119.326	
129.00	-48.317	141.226	
130.00	-47.827	160.305	
131.00	-46.850	179.164	
132.00	-46.113	-162.122	
133.00	-45.449	-143.081	
134.00	-44.797	-125.579	
135.00	-44.116	-107.204	
136.00	-43.656	-91.832	
137.00	-43.272	-75.194	
138.00	-43.111	-60.117	
139.00	-43.106	-45.244	
140.00	-43.275	-30.184	
141.00	-43.925	-14.847	
142.00	-44.423	1.237	
143.00	-45.419	20.354	
144.00	-46.140	40.583	
145.00	-46.600	61.546	
146.00	-46.981	82.284	
147.00	-46.640	102.724	
148.00	-46.495	118.131	
149.00	-46.121	133.002	
150.00	-45.800	144.918	
151.00	-45.371	153.475	
152.00	-45.052	160.992	
153.00	-44.700	165.895	
154.00	-44.340	170.743	
155.00	-43.995	174.934	
156.00	-43.688	179.887	
157.00	-43.557	-172.232	
158.00	-43.499	-163.229	
159.00	-43.313	-151.928	
160.00	-43.188	-138.711	
161.00	-42.866	-124.112	
162.00	-41.997	-108.150	
163.00	-41.200	-94.081	
164.00	-40.371	-82.295	
165.00	-39.501	-72.616	
166.00	-38.987	-65.153	
167.00	-38.943	-60.427	
168.00	-39.338	-59.234	
169.00	-40.234	-63.584	
170.00	-41.313	-77.412	
171.00	-41.362	-101.998	
172.00	-39.201	-126.789	
173.00	-36.128	-141.023	
174.00	-33.268	-147.259	
175.00	-30.947	-149.874	
176.00	-29.091	-150.430	
177.00	-27.645	-150.291	
178.00	-26.620	-149.398	
179.00	-25.897	-148.038	
180.00	-25.468	-146.661	
181.00	-25.286	-145.286	
182.00	-25.447	-143.389	
183.00	-25.865	-141.628	
184.00	-26.597	-139.260	
185.00	-27.613	-136.987	
186.00	-28.974	-134.194	
187.00	-30.699	-130.169	
188.00	-32.816	-125.360	
189.00	-35.350	-118.431	
190.00	-38.416	-107.816	
191.00	-41.752	-91.662	
192.00	-44.982	-69.808	
193.00	-47.124	-38.937	
194.00	-48.439	-5.897	
195.00	-49.558	16.181	
196.00	-49.446	45.923	
197.00	-47.915	71.920	
198.00	-47.786	87.123	
199.00	-46.445	99.424	
200.00	-45.798	105.114	
201.00	-46.064	104.118	
202.00	-46.732	101.339	
203.00	-48.414	89.579	
204.00	-50.602	69.352	
205.00	-51.445	38.146	
206.00	-50.228	3.372	
207.00	-47.992	-18.480	
208.00	-46.754	-31.052	
209.00	-45.847	-42.371	
210.00	-45.602	-52.921	
211.00	-46.055	-60.503	
212.00	-47.709	-69.677	
213.00	-50.056	-77.390	
214.00	-55.088	-91.537	
215.00	-63.223	167.270	
216.00	-54.973	101.667	
217.00	-49.089	88.035	
218.00	-45.854	77.387	
219.00	-43.512	70.964	
220.00	-42.167	61.608	
221.00	-41.029	52.060	
222.00	-40.144	45.171	
223.00	-39.550	36.884	
224.00	-39.096	28.784	
225.00	-38.978	21.030	
226.00	-38.914	14.579	
227.00	-39.007	10.117	
228.00	-39.270	5.712	
229.00	-39.605	1.358	
230.00	-40.038	-1.380	
231.00	-40.572	-3.817	
232.00	-41.198	-5.226	
233.00	-41.693	-7.672	
234.00	-42.360	-9.570	
235.00	-42.822	-13.326	
236.00	-43.115	-15.665	
237.00	-43.743	-18.617	
238.00	-44.311	-21.634	
239.00	-44.692	-29.248	
240.00	-44.283	-35.474	
241.00	-44.581	-42.172	
242.00	-44.531	-48.902	
243.00	-44.483	-58.010	
244.00	-44.133	-65.689	
245.00	-43.965	-73.941	
246.00	-43.877	-80.098	
247.00	-43.782	-87.622	
248.00	-43.700	-95.702	
249.00	-43.806	-102.714	
250.00	-43.866	-110.910	
251.00	-44.100	-119.197	
252.00	-44.344	-128.544	
253.00	-44.816	-138.330	
254.00	-45.113	-147.970	
255.00	-45.392	-158.776	
256.00	-45.859	-170.745	
257.00	-46.425	177.544	
258.00	-46.506	168.408	
259.00	-46.679	154.128	
260.00	-47.485	142.360	
261.00	-47.958	129.680	
262.00	-48.409	118.882	
263.00	-49.057	105.235	
264.00	-49.591	93.877	
265.00	-50.423	81.643	
266.00	-51.558	69.912	
267.00	-52.698	56.476	
268.00	-54.041	42.940	
269.00	-55.878	27.114	
270.00	-58.356	13.303	
271.00	-59.941	-9.160	
272.00	-63.210	-41.097	
273.00	-62.472	-87.625	
274.00	-61.731	-125.206	
275.00	-59.878	-145.795	
276.00	-58.935	-163.445	
277.00	-56.581	179.645	
278.00	-56.297	170.055	
279.00	-55.823	155.995	
280.00	-55.695	142.883	
281.00	-55.332	128.195	
282.00	-57.647	113.624	
283.00	-57.919	103.285	
284.00	-58.651	89.482	
285.00	-59.701	75.076	
286.00	-61.869	56.339	
287.00	-65.047	25.874	
288.00	-71.710	-1.417	
289.00	-75.435	-80.641	
290.00	-69.257	-125.759	
291.00	-64.865	-140.307	
292.00	-62.180	-153.374	
293.00	-61.136	-169.582	
294.00	-60.390	178.360	
295.00	-60.297	171.791	
296.00	-60.990	158.263	
297.00	-64.339	150.661	
298.00	-66.116	144.180	
299.00	-69.697	149.166	
300.00	-76.552	-179.759	
301.00	-71.710	175.291	
302.00	-66.349	-153.692	
303.00	-64.720	-139.710	
304.00	-62.201	-161.985	
305.00	-59.775	168.838	
306.00	-58.735	161.277	
307.00	-58.209	143.687	
308.00	-55.750	136.543	
309.00	-56.577	125.364	
310.00	-57.573	111.954	
311.00	-57.972	101.719	
312.00	-60.808	90.787	
313.00	-63.737	74.407	
314.00	-68.943	43.042	
315.00	-71.242	-12.031	
316.00	-68.956	-67.769	
317.00	-64.888	-100.691	
318.00	-63.821	-111.099	
319.00	-61.028	-113.870	
320.00	-60.128	-120.541	
321.00	-59.701	-127.670	
322.00	-58.822	-129.797	
323.00	-57.856	-130.760	
324.00	-57.426	-131.200	
325.00	-56.621	-135.530	
326.00	-56.565	-136.130	
327.00	-56.688	-143.013	
328.00	-58.171	-142.774	
329.00	-59.961	-148.906	
330.00	-62.272	-143.304	
331.00	-67.092	-121.059	
332.00	-67.214	-77.111	
333.00	-65.603	-48.890	
334.00	-63.939	-35.399	
335.00	-63.008	-33.559	
336.00	-61.360	-27.271	
337.00	-61.576	-35.039	
338.00	-62.449	-28.606	
339.00	-61.881	-29.506	
340.00	-62.403	-37.895	
341.00	-61.977	-48.569	
342.00	-62.286	-76.162	
343.00	-61.289	-90.000	
344.00	-60.183	-112.873	
345.00	-58.318	-131.253	
346.00	-57.012	-142.339	
347.00	-55.790	-153.685	
348.00	-55.612	-159.292	
349.00	-55.164	-164.552	
350.00	-55.821	-168.650	
351.00	-56.447	-171.448	
352.00	-57.239	-162.669	
353.00	-57.731	-163.728	
354.00	-59.108	-157.561	
355.00	-59.535	-154.095	
356.00	-60.381	-138.929	
357.00	-62.251	-137.005	
358.00	-62.342	-128.507	
359.00	-61.054	-133.620	
Frequency	1850.00	MHz	
Channel	test		
Scan Axis name	Azimuth  [deg]		
Scan Axis	Amplitude	Phase	
			
0.00	-69.204	33.901	
1.00	-65.165	40.224	
2.00	-65.483	42.486	
3.00	-67.419	29.855	
4.00	-77.652	18.497	
5.00	-68.296	-98.445	
6.00	-57.409	-125.852	
7.00	-57.886	-120.448	
8.00	-56.999	-128.978	
9.00	-55.428	-137.010	
10.00	-55.858	-139.248	
11.00	-56.207	-140.915	
12.00	-57.906	-143.913	
13.00	-59.441	-145.765	
14.00	-62.289	-134.650	
15.00	-66.304	-112.947	
16.00	-66.529	-67.608	
17.00	-64.874	-42.360	
18.00	-62.704	-29.588	
19.00	-62.152	-24.344	
20.00	-61.800	-29.048	
21.00	-63.704	-24.550	
22.00	-61.872	-34.428	
23.00	-61.926	-33.084	
24.00	-62.171	-28.995	
25.00	-63.088	-20.305	
26.00	-63.689	-12.529	
27.00	-64.880	-0.542	
28.00	-66.434	8.027	
29.00	-69.992	59.819	
30.00	-68.807	86.397	
31.00	-66.280	125.015	
32.00	-63.883	144.411	
33.00	-62.394	153.839	
34.00	-61.689	158.202	
35.00	-62.373	166.233	
36.00	-62.947	169.464	
37.00	-65.534	179.616	
38.00	-71.550	-144.285	
39.00	-75.518	-107.021	
40.00	-69.686	-48.837	
41.00	-66.012	-23.756	
42.00	-62.305	-11.285	
43.00	-61.069	-0.518	
44.00	-59.604	6.409	
45.00	-59.542	15.040	
46.00	-58.722	21.545	
47.00	-58.470	23.781	
48.00	-59.959	34.630	
49.00	-61.084	39.872	
50.00	-62.018	45.736	
51.00	-62.952	64.971	
52.00	-63.200	73.601	
53.00	-63.967	97.321	
54.00	-63.506	108.433	
55.00	-61.736	124.181	
56.00	-60.883	142.679	
57.00	-59.521	154.054	
58.00	-60.070	168.813	
59.00	-60.163	-177.110	
60.00	-59.777	-157.143	
61.00	-60.579	-142.091	
62.00	-61.733	-115.428	
63.00	-64.793	-87.328	
64.00	-63.734	-51.254	
65.00	-61.849	-20.026	
66.00	-59.614	3.324	
67.00	-58.562	22.215	
68.00	-57.368	37.851	
69.00	-56.868	47.198	
70.00	-57.195	58.802	
71.00	-57.336	71.241	
72.00	-58.636	80.813	
73.00	-59.841	90.523	
74.00	-61.752	103.084	
75.00	-64.182	116.937	
76.00	-67.540	134.025	
77.00	-73.159	154.794	
78.00	-81.128	-83.379	
79.00	-70.935	-32.467	
80.00	-65.938	-25.025	
81.00	-63.163	-10.789	
82.00	-59.905	-2.321	
83.00	-57.671	-0.392	
84.00	-56.915	13.838	
85.00	-56.657	21.643	
86.00	-56.026	26.812	
87.00	-56.045	34.499	
88.00	-56.486	45.474	
89.00	-57.370	54.920	
90.00	-58.740	63.526	
91.00	-60.184	80.355	
92.00	-63.049	98.349	
93.00	-63.778	122.437	
94.00	-64.256	162.036	
95.00	-63.942	-167.677	
96.00	-62.376	-142.836	
97.00	-61.274	-115.550	
98.00	-61.200	-96.724	
99.00	-60.518	-82.518	
100.00	-59.134	-61.068	
101.00	-59.754	-33.685	
102.00	-58.467	-9.083	
103.00	-57.463	17.617	
104.00	-55.971	33.569	
105.00	-54.567	57.959	
106.00	-53.246	73.836	
107.00	-52.292	93.227	
108.00	-50.861	108.311	
109.00	-49.856	127.734	
110.00	-48.803	141.269	
111.00	-47.918	159.471	
112.00	-47.067	174.376	
113.00	-46.176	-168.956	
114.00	-45.306	-154.118	
115.00	-44.711	-139.766	
116.00	-44.047	-125.799	
117.00	-43.632	-112.545	
118.00	-43.382	-99.762	
119.00	-43.256	-87.030	
120.00	-43.590	-74.801	
121.00	-43.924	-63.389	
122.00	-44.716	-49.517	
123.00	-45.984	-39.681	
124.00	-47.186	-28.337	
125.00	-49.765	-19.363	
126.00	-53.697	-14.700	
127.00	-60.891	-24.171	
128.00	-59.788	-110.687	
129.00	-53.033	-127.534	
130.00	-48.909	-118.465	
131.00	-46.744	-110.951	
132.00	-44.764	-101.173	
133.00	-43.367	-87.298	
134.00	-42.266	-74.252	
135.00	-41.238	-59.879	
136.00	-40.355	-47.071	
137.00	-39.451	-34.551	
138.00	-38.641	-23.159	
139.00	-38.034	-12.857	
140.00	-37.525	-3.948	
141.00	-37.256	3.924	
142.00	-37.146	11.136	
143.00	-37.341	17.350	
144.00	-37.767	23.582	
145.00	-38.346	28.697	
146.00	-39.197	34.583	
147.00	-40.460	39.373	
148.00	-42.000	44.543	
149.00	-44.266	51.748	
150.00	-47.352	60.716	
151.00	-52.198	78.199	
152.00	-58.494	135.934	
153.00	-53.602	-153.811	
154.00	-48.238	-133.441	
155.00	-45.298	-122.191	
156.00	-43.410	-113.756	
157.00	-42.091	-104.965	
158.00	-41.424	-95.827	
159.00	-40.960	-85.544	
160.00	-41.011	-73.547	
161.00	-41.045	-59.124	
162.00	-40.940	-42.319	
163.00	-40.459	-25.444	
164.00	-39.581	-8.935	
165.00	-38.402	4.738	
166.00	-37.211	14.215	
167.00	-36.140	21.022	
168.00	-35.367	24.228	
169.00	-34.724	24.491	
170.00	-34.339	20.904	
171.00	-33.986	14.213	
172.00	-33.471	3.791	
173.00	-32.524	-7.503	
174.00	-31.199	-19.064	
175.00	-29.675	-28.017	
176.00	-28.166	-34.669	
177.00	-26.828	-39.558	
178.00	-25.739	-42.869	
179.00	-24.923	-45.578	
180.00	-24.397	-47.573	
181.00	-24.162	-49.429	
182.00	-24.246	-50.765	
183.00	-24.646	-52.188	
184.00	-25.428	-53.312	
185.00	-26.580	-54.637	
186.00	-28.196	-55.811	
187.00	-30.465	-56.590	
188.00	-33.521	-57.252	
189.00	-38.149	-56.925	
190.00	-46.503	-50.360	
191.00	-53.454	83.725	
192.00	-43.316	104.123	
193.00	-40.020	106.077	
194.00	-38.814	105.529	
195.00	-38.825	105.717	
196.00	-39.789	106.201	
197.00	-41.815	108.854	
198.00	-44.752	115.703	
199.00	-48.593	133.558	
200.00	-51.122	164.582	
201.00	-50.777	-171.336	
202.00	-51.083	-165.544	
203.00	-53.104	-177.563	
204.00	-55.580	133.240	
205.00	-50.430	78.141	
206.00	-45.094	58.649	
207.00	-41.506	48.096	
208.00	-39.168	40.135	
209.00	-37.608	33.116	
210.00	-36.781	26.471	
211.00	-36.567	19.841	
212.00	-37.004	12.864	
213.00	-38.228	5.395	
214.00	-40.529	-3.062	
215.00	-44.609	-14.713	
216.00	-54.140	-47.510	
217.00	-49.959	-175.097	
218.00	-42.400	164.214	
219.00	-38.484	153.162	
220.00	-36.010	143.602	
221.00	-34.277	134.736	
222.00	-33.059	125.687	
223.00	-32.296	117.497	
224.00	-31.828	109.072	
225.00	-31.649	100.691	
226.00	-31.732	92.849	
227.00	-32.046	85.403	
228.00	-32.592	78.455	
229.00	-33.414	71.274	
230.00	-34.495	65.116	
231.00	-35.771	60.114	
232.00	-37.312	56.342	
233.00	-39.054	54.461	
234.00	-40.817	55.604	
235.00	-42.273	60.567	
236.00	-42.946	68.464	
237.00	-42.779	74.511	
238.00	-41.998	76.845	
239.00	-41.000	75.313	
240.00	-40.057	71.142	
241.00	-39.316	64.816	
242.00	-38.675	56.596	
243.00	-38.234	47.815	
244.00	-37.928	38.655	
245.00	-37.760	28.816	
246.00	-37.711	18.564	
247.00	-37.809	7.271	
248.00	-37.994	-4.254	
249.00	-38.242	-16.015	
250.00	-38.560	-28.302	
251.00	-38.907	-40.977	
252.00	-39.309	-54.162	
253.00	-39.688	-67.078	
254.00	-40.126	-80.763	
255.00	-40.549	-94.002	
256.00	-41.017	-107.495	
257.00	-41.469	-120.877	
258.00	-42.034	-134.138	
259.00	-42.605	-147.671	
260.00	-43.244	-161.289	
261.00	-43.827	-174.797	
262.00	-44.550	171.224	
263.00	-45.356	157.684	
264.00	-46.216	143.034	
265.00	-47.012	128.771	
266.00	-47.925	113.716	
267.00	-48.882	96.796	
268.00	-49.780	81.009	
269.00	-50.519	63.419	
270.00	-51.222	45.812	
271.00	-51.624	28.627	
272.00	-51.804	11.097	
273.00	-51.827	-4.547	
274.00	-51.916	-19.115	
275.00	-51.937	-31.783	
276.00	-52.270	-40.511	
277.00	-52.503	-50.311	
278.00	-53.214	-57.882	
279.00	-54.044	-65.219	
280.00	-55.455	-71.385	
281.00	-56.748	-76.078	
282.00	-58.699	-81.171	
283.00	-61.099	-82.068	
284.00	-64.361	-85.736	
285.00	-68.363	-76.572	
286.00	-73.922	-63.994	
287.00	-73.013	7.731	
288.00	-72.738	16.092	
289.00	-69.922	16.331	
290.00	-69.217	18.181	
291.00	-69.085	26.863	
292.00	-68.798	25.265	
293.00	-69.734	4.267	
294.00	-72.432	16.391	
295.00	-69.963	2.689	
296.00	-70.626	-9.168	
297.00	-69.725	-17.992	
298.00	-68.909	-26.254	
299.00	-66.743	-33.229	
300.00	-66.195	-40.679	
301.00	-64.255	-51.783	
302.00	-63.452	-62.598	
303.00	-62.694	-74.978	
304.00	-62.202	-89.080	
305.00	-61.696	-96.252	
306.00	-60.760	-110.186	
307.00	-60.930	-124.286	
308.00	-60.492	-140.798	
309.00	-60.618	-156.746	
310.00	-60.480	-171.367	
311.00	-60.341	173.947	
312.00	-60.175	159.087	
313.00	-60.909	148.041	
314.00	-61.672	134.549	
315.00	-62.978	123.023	
316.00	-65.211	105.043	
317.00	-68.143	75.202	
318.00	-70.082	39.154	
319.00	-68.422	-10.958	
320.00	-65.206	-41.511	
321.00	-62.914	-56.472	
322.00	-60.945	-72.448	
323.00	-59.511	-85.317	
324.00	-59.328	-95.445	
325.00	-59.417	-107.192	
326.00	-59.377	-117.729	
327.00	-60.544	-126.441	
328.00	-62.180	-135.469	
329.00	-66.067	-126.903	
330.00	-69.380	-112.535	
331.00	-68.985	-73.436	
332.00	-65.972	-58.784	
333.00	-62.931	-61.642	
334.00	-61.301	-66.500	
335.00	-60.304	-78.423	
336.00	-59.877	-88.326	
337.00	-60.139	-101.048	
338.00	-60.450	-111.960	
339.00	-61.679	-124.660	
340.00	-63.800	-131.366	
341.00	-66.132	-134.983	
342.00	-70.119	-136.854	
343.00	-71.330	-144.795	
344.00	-72.817	-128.544	
345.00	-71.568	-106.981	
346.00	-67.726	-97.163	
347.00	-64.755	-89.103	
348.00	-62.401	-87.433	
349.00	-60.451	-82.188	
350.00	-58.065	-81.891	
351.00	-56.778	-80.201	
352.00	-56.299	-82.674	
353.00	-55.431	-83.081	
354.00	-56.210	-86.532	
355.00	-56.836	-90.399	
356.00	-58.521	-94.824	
357.00	-62.162	-92.550	
358.00	-67.454	-78.705	
359.00	-72.787	-47.445	
Frequency	1950.00	MHz	
Channel	test		
Scan Axis name	Azimuth  [deg]		
Scan Axis	Amplitude	Phase	
			
0.00	-64.428	91.402	
1.00	-61.614	101.662	
2.00	-60.692	100.089	
3.00	-59.593	105.252	
4.00	-58.325	108.439	
5.00	-58.512	114.509	
6.00	-59.313	110.958	
7.00	-59.221	103.157	
8.00	-59.613	96.468	
9.00	-60.666	86.850	
10.00	-60.184	80.475	
11.00	-60.810	64.166	
12.00	-60.455	52.343	
13.00	-60.949	44.507	
14.00	-60.704	38.106	
15.00	-60.806	31.303	
16.00	-61.544	29.197	
17.00	-61.957	29.760	
18.00	-65.373	30.086	
19.00	-66.482	33.631	
20.00	-70.513	25.207	
21.00	-73.806	-5.372	
22.00	-72.956	-42.480	
23.00	-73.215	-34.616	
24.00	-68.144	-24.710	
25.00	-66.833	-22.552	
26.00	-64.892	4.004	
27.00	-65.245	0.237	
28.00	-67.013	-19.728	
29.00	-65.879	17.779	
30.00	-66.715	21.202	
31.00	-65.533	21.352	
32.00	-64.431	27.519	
33.00	-64.298	39.052	
34.00	-62.721	38.318	
35.00	-63.204	42.744	
36.00	-62.820	46.716	
37.00	-63.957	53.647	
38.00	-67.085	76.963	
39.00	-63.898	87.978	
40.00	-61.829	103.215	
41.00	-62.265	123.037	
42.00	-60.654	128.566	
43.00	-58.692	150.121	
44.00	-58.699	148.670	
45.00	-57.185	164.232	
46.00	-57.549	177.166	
47.00	-57.492	-172.817	
48.00	-58.641	-166.274	
49.00	-60.309	-145.648	
50.00	-62.376	-129.303	
51.00	-65.278	-107.210	
52.00	-66.946	-79.977	
53.00	-67.416	-44.497	
54.00	-67.607	-41.775	
55.00	-73.318	-14.960	
56.00	-74.838	4.269	
57.00	-88.959	-128.498	
58.00	-80.319	-144.465	
59.00	-70.582	-158.483	
60.00	-67.132	-123.951	
61.00	-67.865	-138.635	
62.00	-67.680	-115.899	
63.00	-74.206	-140.018	
64.00	-78.265	174.169	
65.00	-75.160	136.712	
66.00	-71.820	122.042	
67.00	-71.743	95.904	
68.00	-68.687	80.524	
69.00	-68.292	69.042	
70.00	-66.432	59.054	
71.00	-64.936	46.667	
72.00	-63.641	45.869	
73.00	-61.864	47.942	
74.00	-61.204	61.907	
75.00	-59.292	73.627	
76.00	-58.338	85.607	
77.00	-58.301	99.938	
78.00	-57.245	114.004	
79.00	-57.178	128.783	
80.00	-56.662	147.043	
81.00	-56.638	155.763	
82.00	-56.192	179.066	
83.00	-56.731	-162.932	
84.00	-56.240	-144.658	
85.00	-55.227	-123.156	
86.00	-55.711	-100.908	
87.00	-56.018	-83.073	
88.00	-55.728	-60.937	
89.00	-54.943	-45.216	
90.00	-55.306	-29.622	
91.00	-54.570	-8.659	
92.00	-54.753	6.412	
93.00	-55.260	30.324	
94.00	-53.742	50.219	
95.00	-53.474	73.119	
96.00	-53.510	85.807	
97.00	-52.874	102.703	
98.00	-52.739	110.580	
99.00	-52.080	123.252	
100.00	-52.172	131.906	
101.00	-53.177	147.722	
102.00	-54.474	156.486	
103.00	-54.971	167.039	
104.00	-56.126	176.688	
105.00	-57.907	-178.604	
106.00	-58.161	-170.464	
107.00	-56.799	-163.747	
108.00	-55.240	-160.922	
109.00	-52.678	-154.946	
110.00	-50.508	-147.181	
111.00	-48.873	-138.823	
112.00	-46.958	-128.621	
113.00	-45.771	-119.340	
114.00	-44.741	-108.961	
115.00	-43.685	-96.348	
116.00	-42.764	-82.349	
117.00	-42.156	-68.732	
118.00	-41.418	-53.340	
119.00	-40.952	-38.215	
120.00	-40.473	-20.445	
121.00	-40.018	-6.243	
122.00	-39.628	9.998	
123.00	-39.442	25.468	
124.00	-39.425	41.512	
125.00	-39.391	56.746	
126.00	-39.772	73.257	
127.00	-40.108	90.077	
128.00	-40.959	107.868	
129.00	-41.644	126.997	
130.00	-42.720	147.751	
131.00	-43.870	171.717	
132.00	-45.166	-161.756	
133.00	-45.794	-131.450	
134.00	-45.671	-97.808	
135.00	-44.821	-66.497	
136.00	-43.448	-39.527	
137.00	-42.029	-16.139	
138.00	-40.605	3.033	
139.00	-39.571	20.886	
140.00	-38.673	35.429	
141.00	-38.110	49.536	
142.00	-37.790	62.499	
143.00	-37.666	74.869	
144.00	-37.737	87.346	
145.00	-37.924	98.116	
146.00	-38.285	108.971	
147.00	-38.718	118.767	
148.00	-39.374	127.238	
149.00	-40.262	133.919	
150.00	-41.234	139.333	
151.00	-42.381	143.801	
152.00	-43.681	145.344	
153.00	-45.333	144.608	
154.00	-46.798	139.530	
155.00	-48.863	130.300	
156.00	-50.338	113.318	
157.00	-50.736	92.582	
158.00	-49.687	72.717	
159.00	-47.333	56.955	
160.00	-46.170	54.131	
161.00	-44.099	50.205	
162.00	-43.188	50.079	
163.00	-42.423	51.351	
164.00	-42.032	51.539	
165.00	-42.154	52.920	
166.00	-42.469	57.166	
167.00	-42.800	60.442	
168.00	-43.380	64.331	
169.00	-43.692	70.499	
170.00	-43.641	77.236	
171.00	-43.056	84.312	
172.00	-41.685	88.792	
173.00	-39.818	93.695	
174.00	-37.956	96.353	
175.00	-36.010	97.341	
176.00	-34.377	98.216	
177.00	-32.880	98.115	
178.00	-31.746	98.383	
179.00	-30.899	98.304	
180.00	-30.404	98.371	
181.00	-30.084	98.017	
182.00	-30.108	98.120	
183.00	-30.504	98.202	
184.00	-31.236	98.873	
185.00	-32.283	99.852	
186.00	-33.764	101.462	
187.00	-35.725	104.604	
188.00	-38.130	110.156	
189.00	-40.918	119.457	
190.00	-43.821	133.758	
191.00	-46.488	152.967	
192.00	-48.177	173.638	
193.00	-49.785	-168.705	
194.00	-53.377	-153.861	
195.00	-57.404	-126.445	
196.00	-58.949	-62.497	
197.00	-54.821	-38.831	
198.00	-51.993	-28.088	
199.00	-51.615	-30.332	
200.00	-52.936	-42.043	
201.00	-55.669	-76.109	
202.00	-54.200	-140.119	
203.00	-48.321	-173.560	
204.00	-44.121	170.913	
205.00	-41.255	159.012	
206.00	-39.310	149.353	
207.00	-38.029	140.124	
208.00	-37.460	131.132	
209.00	-37.491	121.020	
210.00	-38.112	109.280	
211.00	-39.379	96.972	
212.00	-41.617	79.385	
213.00	-44.964	50.948	
214.00	-47.360	-1.938	
215.00	-44.247	-53.556	
216.00	-40.300	-80.843	
217.00	-37.551	-98.693	
218.00	-35.669	-112.403	
219.00	-34.373	-125.554	
220.00	-33.599	-137.151	
221.00	-33.184	-149.030	
222.00	-33.102	-161.185	
223.00	-33.330	-172.612	
224.00	-33.907	175.794	
225.00	-34.845	163.286	
226.00	-36.016	151.100	
227.00	-37.779	138.669	
228.00	-40.030	125.370	
229.00	-43.329	110.679	
230.00	-48.308	93.027	
231.00	-57.394	49.014	
232.00	-53.624	-68.115	
233.00	-46.844	-94.122	
234.00	-43.781	-112.691	
235.00	-42.025	-126.098	
236.00	-40.662	-139.424	
237.00	-39.830	-153.924	
238.00	-39.462	-168.033	
239.00	-39.255	-179.925	
240.00	-38.928	166.258	
241.00	-38.976	152.436	
242.00	-39.159	138.372	
243.00	-39.476	124.003	
244.00	-39.997	110.267	
245.00	-40.349	95.323	
246.00	-40.926	83.329	
247.00	-41.739	67.545	
248.00	-42.650	51.245	
249.00	-43.325	34.540	
250.00	-44.098	19.429	
251.00	-44.825	0.181	
252.00	-45.266	-19.734	
253.00	-45.852	-36.787	
254.00	-46.217	-56.217	
255.00	-46.360	-74.455	
256.00	-46.619	-92.708	
257.00	-46.767	-111.698	
258.00	-47.201	-126.197	
259.00	-47.317	-141.272	
260.00	-47.829	-159.956	
261.00	-47.642	-174.840	
262.00	-48.297	168.753	
263.00	-48.726	154.498	
264.00	-49.337	138.086	
265.00	-50.164	122.060	
266.00	-51.220	105.176	
267.00	-52.422	86.587	
268.00	-53.333	66.903	
269.00	-54.331	45.822	
270.00	-55.652	22.336	
271.00	-55.843	0.025	
272.00	-55.793	-23.511	
273.00	-56.244	-45.780	
274.00	-56.194	-69.732	
275.00	-55.956	-90.583	
276.00	-55.204	-111.884	
277.00	-54.537	-128.083	
278.00	-54.356	-142.804	
279.00	-54.014	-152.409	
280.00	-54.021	-164.578	
281.00	-55.847	-172.163	
282.00	-57.435	-176.964	
283.00	-58.130	175.954	
284.00	-60.579	175.948	
285.00	-65.465	165.017	
286.00	-66.814	-178.402	
287.00	-71.233	-137.426	
288.00	-67.779	-118.323	
289.00	-67.614	-125.552	
290.00	-65.024	-132.030	
291.00	-63.308	-143.586	
292.00	-62.877	-160.240	
293.00	-61.710	-169.390	
294.00	-61.900	179.511	
295.00	-61.431	172.753	
296.00	-61.366	166.831	
297.00	-62.931	158.381	
298.00	-62.714	168.558	
299.00	-64.556	169.358	
300.00	-65.998	173.312	
301.00	-65.364	172.337	
302.00	-65.448	175.552	
303.00	-71.362	172.392	
304.00	-66.333	170.433	
305.00	-68.607	155.130	
306.00	-68.811	129.748	
307.00	-67.999	98.653	
308.00	-65.517	66.118	
309.00	-63.823	55.987	
310.00	-62.021	38.388	
311.00	-60.787	32.902	
312.00	-59.012	18.209	
313.00	-58.429	8.551	
314.00	-58.375	-2.522	
315.00	-57.619	-12.462	
316.00	-58.516	-20.183	
317.00	-58.939	-34.262	
318.00	-59.181	-38.111	
319.00	-60.371	-53.576	
320.00	-62.537	-70.499	
321.00	-63.031	-73.652	
322.00	-64.386	-80.713	
323.00	-66.469	-98.485	
324.00	-68.307	-101.611	
325.00	-71.576	-93.180	
326.00	-73.224	-116.780	
327.00	-77.674	-122.847	
328.00	-78.612	94.984	
329.00	-85.577	1.083	
330.00	-73.796	22.149	
331.00	-71.699	-0.946	
332.00	-69.984	14.870	
333.00	-67.678	4.029	
334.00	-69.591	-30.044	
335.00	-69.483	-24.141	
336.00	-72.607	-16.897	
337.00	-74.328	-46.343	
338.00	-76.714	-93.637	
339.00	-72.861	-152.055	
340.00	-71.651	-152.814	
341.00	-68.841	-171.964	
342.00	-66.293	164.661	
343.00	-70.252	149.828	
344.00	-65.049	127.037	
345.00	-64.781	114.540	
346.00	-62.477	95.915	
347.00	-61.904	90.238	
348.00	-62.747	82.552	
349.00	-62.286	77.677	
350.00	-64.529	72.599	
351.00	-63.130	71.365	
352.00	-66.109	64.605	
353.00	-71.271	59.102	
354.00	-67.281	80.027	
355.00	-68.289	93.323	
356.00	-69.791	108.866	
357.00	-67.447	84.809	
358.00	-68.533	107.167	
359.00	-65.804	106.368	
Frequency	2050.00	MHz	
Channel	test		
Scan Axis name	Azimuth  [deg]		
Scan Axis	Amplitude	Phase	
			
0.00	-70.886	32.450	
1.00	-67.705	57.894	
2.00	-66.266	77.529	
3.00	-63.735	89.832	
4.00	-63.130	107.004	
5.00	-63.247	113.169	
6.00	-62.849	118.382	
7.00	-64.139	127.150	
8.00	-66.148	134.775	
9.00	-67.383	135.496	
10.00	-68.487	115.721	
11.00	-68.451	115.266	
12.00	-70.035	70.721	
13.00	-66.899	75.346	
14.00	-65.130	70.990	
15.00	-63.555	76.330	
16.00	-61.991	75.586	
17.00	-62.083	79.957	
18.00	-61.073	94.460	
19.00	-61.888	111.403	
20.00	-62.048	127.745	
21.00	-62.626	142.014	
22.00	-63.683	169.192	
23.00	-63.691	179.483	
24.00	-65.715	-143.551	
25.00	-66.213	-133.467	
26.00	-67.049	-151.471	
27.00	-67.075	-160.627	
28.00	-67.316	-164.268	
29.00	-64.916	-178.325	
30.00	-63.405	-178.367	
31.00	-62.343	-176.899	
32.00	-61.198	-172.282	
33.00	-60.245	-170.340	
34.00	-60.256	-162.229	
35.00	-60.231	-153.121	
36.00	-59.963	-145.299	
37.00	-60.269	-131.099	
38.00	-61.311	-115.716	
39.00	-62.174	-101.271	
40.00	-62.121	-82.339	
41.00	-64.552	-64.469	
42.00	-66.705	-49.498	
43.00	-71.231	-28.829	
44.00	-74.169	14.027	
45.00	-70.367	24.281	
46.00	-70.534	105.136	
47.00	-67.225	119.953	
48.00	-64.917	132.835	
49.00	-64.509	137.659	
50.00	-64.238	135.960	
51.00	-63.062	136.911	
52.00	-63.523	142.972	
53.00	-63.932	149.232	
54.00	-65.647	154.769	
55.00	-69.196	178.828	
56.00	-76.679	-131.456	
57.00	-68.696	-55.635	
58.00	-66.265	-26.204	
59.00	-65.542	-24.243	
60.00	-65.271	-11.052	
61.00	-64.753	9.518	
62.00	-69.722	30.970	
63.00	-71.247	72.255	
64.00	-69.783	128.411	
65.00	-68.078	168.077	
66.00	-64.201	-170.700	
67.00	-62.891	-155.807	
68.00	-62.654	-141.235	
69.00	-62.822	-130.393	
70.00	-63.965	-112.475	
71.00	-65.687	-100.129	
72.00	-66.853	-95.062	
73.00	-69.699	-95.061	
74.00	-72.050	-114.453	
75.00	-73.000	-145.914	
76.00	-70.100	-161.763	
77.00	-67.286	-170.623	
78.00	-64.572	-149.260	
79.00	-64.938	-135.060	
80.00	-64.333	-127.295	
81.00	-65.573	-97.557	
82.00	-62.332	-87.310	
83.00	-63.866	-42.655	
84.00	-63.767	-25.307	
85.00	-61.342	-0.092	
86.00	-60.841	24.775	
87.00	-60.338	36.888	
88.00	-59.107	48.916	
89.00	-59.347	72.948	
90.00	-59.877	88.259	
91.00	-59.645	114.747	
92.00	-59.473	135.389	
93.00	-57.582	149.503	
94.00	-57.472	173.245	
95.00	-56.606	-168.184	
96.00	-56.102	-154.123	
97.00	-55.724	-143.444	
98.00	-55.571	-126.180	
99.00	-55.546	-108.176	
100.00	-55.664	-91.260	
101.00	-56.207	-69.111	
102.00	-55.751	-53.913	
103.00	-55.419	-37.008	
104.00	-56.361	-27.489	
105.00	-56.209	-11.137	
106.00	-55.963	-1.463	
107.00	-56.466	8.360	
108.00	-56.428	11.777	
109.00	-56.353	21.957	
110.00	-56.584	23.628	
111.00	-55.402	29.944	
112.00	-54.485	25.306	
113.00	-53.088	27.671	
114.00	-51.696	38.960	
115.00	-50.390	47.563	
116.00	-49.304	58.013	
117.00	-48.669	70.954	
118.00	-47.451	83.372	
119.00	-46.179	94.805	
120.00	-45.387	109.187	
121.00	-44.318	122.687	
122.00	-43.683	136.507	
123.00	-42.783	148.600	
124.00	-41.979	160.962	
125.00	-41.680	172.390	
126.00	-41.465	-177.176	
127.00	-41.617	-165.521	
128.00	-41.432	-158.910	
129.00	-42.088	-148.803	
130.00	-42.932	-138.262	
131.00	-44.297	-131.795	
132.00	-46.005	-126.615	
133.00	-48.072	-124.666	
134.00	-50.528	-132.061	
135.00	-51.868	-151.201	
136.00	-50.742	-175.634	
137.00	-48.131	173.931	
138.00	-45.656	172.322	
139.00	-43.792	175.464	
140.00	-42.350	-179.699	
141.00	-41.327	-173.547	
142.00	-40.595	-166.640	
143.00	-40.098	-159.756	
144.00	-39.962	-151.897	
145.00	-40.070	-144.977	
146.00	-40.257	-137.891	
147.00	-40.851	-130.423	
148.00	-41.517	-123.525	
149.00	-42.421	-117.543	
150.00	-43.415	-112.216	
151.00	-44.517	-110.714	
152.00	-45.827	-110.576	
153.00	-46.648	-118.914	
154.00	-46.775	-130.258	
155.00	-45.703	-141.972	
156.00	-43.992	-150.762	
157.00	-42.279	-154.695	
158.00	-40.844	-156.488	
159.00	-39.732	-157.134	
160.00	-39.120	-157.161	
161.00	-38.858	-157.533	
162.00	-39.034	-157.970	
163.00	-39.636	-159.947	
164.00	-40.755	-163.041	
165.00	-42.331	-169.475	
166.00	-44.303	-177.906	
167.00	-47.015	170.869	
168.00	-50.806	156.340	
169.00	-60.181	132.936	
170.00	-56.142	-30.518	
171.00	-46.221	-46.056	
172.00	-40.458	-53.569	
173.00	-36.520	-59.249	
174.00	-33.396	-63.365	
175.00	-30.946	-66.630	
176.00	-29.086	-69.133	
177.00	-27.647	-71.695	
178.00	-26.554	-73.567	
179.00	-25.866	-75.552	
180.00	-25.484	-77.217	
181.00	-25.463	-79.087	
182.00	-25.818	-80.606	
183.00	-26.473	-81.788	
184.00	-27.573	-82.573	
185.00	-29.066	-82.853	
186.00	-31.049	-82.094	
187.00	-33.656	-79.507	
188.00	-36.833	-73.454	
189.00	-40.558	-59.803	
190.00	-43.716	-35.591	
191.00	-44.922	-9.798	
192.00	-45.209	6.083	
193.00	-46.116	11.178	
194.00	-48.627	10.406	
195.00	-54.011	1.378	
196.00	-63.546	-45.225	
197.00	-57.196	-143.514	
198.00	-52.861	-155.904	
199.00	-52.149	-159.812	
200.00	-54.240	-159.428	
201.00	-59.644	-121.338	
202.00	-54.585	-52.060	
203.00	-48.174	-40.781	
204.00	-44.269	-42.883	
205.00	-41.879	-48.391	
206.00	-40.435	-55.383	
207.00	-39.815	-64.391	
208.00	-39.924	-74.265	
209.00	-40.746	-85.697	
210.00	-42.487	-99.841	
211.00	-45.468	-120.173	
212.00	-49.568	-161.474	
213.00	-49.025	131.897	
214.00	-44.424	93.175	
215.00	-41.098	72.835	
216.00	-38.925	56.762	
217.00	-37.462	43.166	
218.00	-36.636	30.189	
219.00	-36.133	17.472	
220.00	-36.083	5.291	
221.00	-36.382	-7.588	
222.00	-37.009	-20.517	
223.00	-37.989	-32.863	
224.00	-39.330	-45.562	
225.00	-41.154	-57.798	
226.00	-43.754	-70.038	
227.00	-47.503	-81.040	
228.00	-53.706	-92.032	
229.00	-77.056	-13.389	
230.00	-55.068	54.965	
231.00	-49.699	43.352	
232.00	-47.115	32.916	
233.00	-45.626	20.097	
234.00	-44.759	6.835	
235.00	-44.262	-5.969	
236.00	-44.135	-18.915	
237.00	-44.291	-32.639	
238.00	-44.609	-46.222	
239.00	-45.025	-60.737	
240.00	-45.642	-74.492	
241.00	-46.363	-89.167	
242.00	-47.176	-104.233	
243.00	-47.934	-120.215	
244.00	-48.689	-135.223	
245.00	-49.603	-150.808	
246.00	-50.410	-167.502	
247.00	-51.344	175.659	
248.00	-52.376	159.787	
249.00	-53.407	141.400	
250.00	-54.509	122.509	
251.00	-55.435	104.027	
252.00	-56.451	82.758	
253.00	-56.979	63.236	
254.00	-57.758	43.731	
255.00	-58.127	25.943	
256.00	-58.741	9.638	
257.00	-59.502	-3.391	
258.00	-60.659	-14.167	
259.00	-62.000	-22.952	
260.00	-64.785	-25.452	
261.00	-67.325	-14.422	
262.00	-68.694	-3.486	
263.00	-68.021	23.175	
264.00	-67.433	28.625	
265.00	-65.784	31.052	
266.00	-65.093	27.165	
267.00	-66.170	13.776	
268.00	-67.043	-2.233	
269.00	-67.828	-29.153	
270.00	-67.461	-56.390	
271.00	-67.215	-82.632	
272.00	-64.430	-117.090	
273.00	-62.832	-127.503	
274.00	-61.516	-140.572	
275.00	-60.160	-154.773	
276.00	-59.690	-166.815	
277.00	-58.826	-176.923	
278.00	-58.290	173.344	
279.00	-58.137	163.833	
280.00	-57.940	155.304	
281.00	-57.656	147.270	
282.00	-58.014	139.238	
283.00	-58.370	130.608	
284.00	-58.766	123.527	
285.00	-59.708	116.110	
286.00	-61.128	101.692	
287.00	-63.154	81.221	
288.00	-64.294	65.517	
289.00	-65.185	33.833	
290.00	-66.579	12.041	
291.00	-66.920	-15.895	
292.00	-65.018	-32.180	
293.00	-64.438	-46.927	
294.00	-64.377	-57.843	
295.00	-64.478	-67.959	
296.00	-64.800	-72.036	
297.00	-64.888	-74.429	
298.00	-64.853	-65.663	
299.00	-64.281	-61.536	
300.00	-62.963	-55.958	
301.00	-62.126	-55.073	
302.00	-61.056	-63.607	
303.00	-60.296	-65.283	
304.00	-59.721	-72.787	
305.00	-59.422	-80.962	
306.00	-60.241	-89.505	
307.00	-61.464	-94.779	
308.00	-61.748	-109.959	
309.00	-64.307	-121.667	
310.00	-66.067	-125.966	
311.00	-69.660	-98.558	
312.00	-73.187	-156.237	
313.00	-75.295	-96.496	
314.00	-71.704	-72.928	
315.00	-69.230	-69.660	
316.00	-68.305	-69.128	
317.00	-68.129	-72.096	
318.00	-67.869	-69.848	
319.00	-67.780	-62.176	
320.00	-67.388	-45.909	
321.00	-67.016	-48.430	
322.00	-66.841	-37.930	
323.00	-66.129	-40.719	
324.00	-65.593	-38.344	
325.00	-67.372	-40.566	
326.00	-69.136	-50.098	
327.00	-74.458	-23.659	
328.00	-73.073	-65.775	
329.00	-72.066	-112.830	
330.00	-72.254	-133.550	
331.00	-69.258	-158.456	
332.00	-65.781	-168.203	
333.00	-65.554	-175.318	
334.00	-65.396	177.014	
335.00	-65.650	176.175	
336.00	-67.000	166.731	
337.00	-69.943	169.366	
338.00	-69.010	176.041	
339.00	-70.372	-179.098	
340.00	-67.482	157.238	
341.00	-68.048	169.903	
342.00	-67.751	160.414	
343.00	-65.713	150.404	
344.00	-64.557	133.916	
345.00	-63.587	128.670	
346.00	-63.061	120.936	
347.00	-63.320	121.705	
348.00	-63.164	109.982	
349.00	-63.678	111.152	
350.00	-65.462	99.490	
351.00	-66.593	84.051	
352.00	-70.714	42.728	
353.00	-72.533	38.292	
354.00	-73.677	-4.635	
355.00	-72.895	-8.829	
356.00	-70.759	-37.265	
357.00	-69.869	-38.076	
358.00	-73.001	-27.705	
359.00	-72.101	-7.508	
Frequency	2170.00	MHz	
Channel	test		
Scan Axis name	Azimuth  [deg]		
Scan Axis	Amplitude	Phase	
			
0.00	-62.995	62.711	
1.00	-61.243	73.226	
2.00	-62.995	79.042	
3.00	-62.750	83.664	
4.00	-62.668	109.786	
5.00	-62.685	116.846	
6.00	-64.137	122.507	
7.00	-64.606	142.848	
8.00	-65.541	165.747	
9.00	-67.865	167.615	
10.00	-71.330	-160.758	
11.00	-70.749	174.583	
12.00	-79.834	153.795	
13.00	-74.086	144.538	
14.00	-70.731	126.168	
15.00	-69.950	100.026	
16.00	-63.996	124.750	
17.00	-61.546	145.694	
18.00	-59.794	154.545	
19.00	-59.176	157.943	
20.00	-57.597	163.331	
21.00	-58.280	164.106	
22.00	-58.966	168.347	
23.00	-62.072	171.836	
24.00	-73.675	130.667	
25.00	-74.143	87.494	
26.00	-72.042	72.602	
27.00	-70.059	58.052	
28.00	-66.934	48.952	
29.00	-67.777	52.465	
30.00	-68.080	70.722	
31.00	-70.790	71.308	
32.00	-74.183	71.488	
33.00	-81.305	53.746	
34.00	-98.367	68.553	
35.00	-78.410	-65.461	
36.00	-70.058	-49.018	
37.00	-67.097	-33.670	
38.00	-64.553	-16.831	
39.00	-65.202	-8.585	
40.00	-65.517	15.679	
41.00	-67.008	43.920	
42.00	-69.446	84.317	
43.00	-67.380	126.557	
44.00	-68.298	162.545	
45.00	-65.216	175.716	
46.00	-64.115	-170.006	
47.00	-64.443	-170.623	
48.00	-69.808	-158.040	
49.00	-73.629	171.627	
50.00	-70.878	127.084	
51.00	-66.548	121.024	
52.00	-64.255	108.907	
53.00	-61.945	106.883	
54.00	-62.605	115.105	
55.00	-60.117	118.271	
56.00	-59.594	127.182	
57.00	-58.480	130.830	
58.00	-57.415	134.550	
59.00	-57.534	137.550	
60.00	-56.774	153.555	
61.00	-57.561	161.078	
62.00	-57.343	175.811	
63.00	-58.372	-171.050	
64.00	-60.136	-145.089	
65.00	-61.056	-126.182	
66.00	-62.772	-99.884	
67.00	-62.857	-69.609	
68.00	-63.919	-34.626	
69.00	-64.015	9.733	
70.00	-63.046	40.228	
71.00	-62.915	75.402	
72.00	-60.775	108.350	
73.00	-59.930	122.244	
74.00	-58.430	143.510	
75.00	-57.746	161.052	
76.00	-57.976	179.600	
77.00	-58.459	-171.448	
78.00	-59.147	-163.348	
79.00	-61.022	-146.444	
80.00	-62.179	-116.310	
81.00	-63.753	-112.926	
82.00	-72.286	-137.162	
83.00	-81.915	99.247	
84.00	-70.200	76.409	
85.00	-65.849	92.160	
86.00	-61.158	123.359	
87.00	-59.137	128.946	
88.00	-57.672	153.102	
89.00	-56.367	165.036	
90.00	-56.124	173.895	
91.00	-55.340	-175.538	
92.00	-55.397	-164.651	
93.00	-55.418	-146.324	
94.00	-55.632	-132.777	
95.00	-55.751	-119.886	
96.00	-56.832	-98.439	
97.00	-56.424	-80.769	
98.00	-57.622	-57.903	
99.00	-58.832	-33.751	
100.00	-60.043	-11.677	
101.00	-60.307	31.900	
102.00	-58.848	71.715	
103.00	-57.085	96.189	
104.00	-55.997	124.176	
105.00	-54.210	140.551	
106.00	-52.980	153.082	
107.00	-52.157	169.546	
108.00	-51.540	-177.446	
109.00	-51.909	-162.667	
110.00	-52.250	-145.042	
111.00	-53.331	-124.172	
112.00	-53.102	-102.711	
113.00	-53.355	-76.946	
114.00	-52.905	-54.384	
115.00	-52.478	-34.249	
116.00	-52.424	-18.221	
117.00	-52.737	-3.854	
118.00	-54.044	6.835	
119.00	-56.716	16.289	
120.00	-63.691	29.346	
121.00	-74.624	-141.939	
122.00	-59.890	-139.191	
123.00	-55.115	-121.768	
124.00	-50.695	-108.308	
125.00	-49.934	-95.264	
126.00	-48.694	-80.916	
127.00	-48.317	-67.165	
128.00	-48.387	-49.004	
129.00	-49.270	-31.941	
130.00	-49.224	-15.661	
131.00	-49.797	3.331	
132.00	-50.628	22.955	
133.00	-51.101	43.374	
134.00	-52.288	63.204	
135.00	-54.057	86.545	
136.00	-55.804	110.738	
137.00	-57.672	142.451	
138.00	-58.776	-168.470	
139.00	-56.807	-131.287	
140.00	-53.493	-102.181	
141.00	-51.659	-86.505	
142.00	-50.062	-71.095	
143.00	-48.718	-60.238	
144.00	-47.936	-48.183	
145.00	-47.332	-39.956	
146.00	-47.017	-30.820	
147.00	-47.126	-19.611	
148.00	-47.420	-8.248	
149.00	-47.813	5.216	
150.00	-48.516	19.364	
151.00	-49.163	36.567	
152.00	-49.951	55.309	
153.00	-50.681	73.256	
154.00	-52.010	91.124	
155.00	-54.818	112.734	
156.00	-57.993	148.729	
157.00	-58.701	-154.984	
158.00	-53.047	-109.316	
159.00	-49.238	-89.351	
160.00	-46.722	-81.699	
161.00	-45.290	-71.915	
162.00	-44.158	-67.793	
163.00	-43.761	-65.306	
164.00	-43.982	-65.683	
165.00	-44.995	-68.963	
166.00	-46.237	-80.066	
167.00	-47.583	-98.561	
168.00	-48.078	-121.835	
169.00	-47.857	-145.510	
170.00	-47.914	-162.772	
171.00	-49.095	178.260	
172.00	-51.260	135.187	
173.00	-48.012	79.146	
174.00	-41.901	54.079	
175.00	-37.538	44.379	
176.00	-34.249	39.197	
177.00	-31.816	36.265	
178.00	-30.010	34.592	
179.00	-28.760	33.500	
180.00	-27.991	33.016	
181.00	-27.664	32.443	
182.00	-27.759	32.468	
183.00	-28.274	32.665	
184.00	-29.226	33.503	
185.00	-30.653	34.791	
186.00	-32.522	37.084	
187.00	-34.892	41.550	
188.00	-37.764	48.051	
189.00	-40.944	59.202	
190.00	-43.991	73.829	
191.00	-46.590	88.258	
192.00	-49.480	94.979	
193.00	-53.584	89.197	
194.00	-57.167	49.047	
195.00	-54.111	-2.834	
196.00	-50.675	-13.924	
197.00	-49.482	-22.293	
198.00	-49.597	-19.614	
199.00	-51.737	-10.323	
200.00	-53.615	17.799	
201.00	-51.726	56.623	
202.00	-47.842	74.795	
203.00	-45.118	79.110	
204.00	-43.445	77.916	
205.00	-42.776	73.296	
206.00	-43.007	66.561	
207.00	-44.151	57.553	
208.00	-46.108	45.978	
209.00	-49.613	28.339	
210.00	-54.574	-7.257	
211.00	-55.661	-75.771	
212.00	-51.901	-118.140	
213.00	-49.083	-140.080	
214.00	-47.597	-160.095	
215.00	-46.967	-173.644	
216.00	-47.396	172.104	
217.00	-48.699	157.556	
218.00	-50.613	139.856	
219.00	-53.785	129.428	
220.00	-59.990	112.475	
221.00	-71.700	-66.526	
222.00	-56.190	-87.625	
223.00	-52.041	-101.299	
224.00	-48.844	-114.990	
225.00	-47.104	-125.849	
226.00	-46.190	-136.679	
227.00	-46.047	-147.011	
228.00	-46.317	-156.821	
229.00	-47.015	-167.923	
230.00	-47.967	-179.388	
231.00	-49.895	166.548	
232.00	-51.745	154.462	
233.00	-54.076	134.817	
234.00	-56.251	117.769	
235.00	-58.043	97.310	
236.00	-58.468	70.747	
237.00	-59.070	56.025	
238.00	-58.678	38.739	
239.00	-58.417	27.956	
240.00	-58.128	17.818	
241.00	-57.760	9.522	
242.00	-58.704	-6.053	
243.00	-59.712	-19.236	
244.00	-61.256	-39.489	
245.00	-63.204	-57.884	
246.00	-64.485	-100.426	
247.00	-62.811	-134.474	
248.00	-61.198	-163.389	
249.00	-59.401	177.468	
250.00	-58.188	161.358	
251.00	-57.832	147.528	
252.00	-58.049	138.664	
253.00	-58.448	124.068	
254.00	-59.208	112.603	
255.00	-61.213	101.733	
256.00	-62.570	89.403	
257.00	-65.153	82.571	
258.00	-75.279	94.556	
259.00	-81.381	26.717	
260.00	-80.534	-49.795	
261.00	-75.474	-142.705	
262.00	-74.741	-144.092	
263.00	-74.771	-168.938	
264.00	-79.647	139.544	
265.00	-81.078	141.958	
266.00	-83.896	72.624	
267.00	-93.545	153.043	
268.00	-75.433	-43.007	
269.00	-79.370	-68.833	
270.00	-69.720	-110.070	
271.00	-67.533	-126.025	
272.00	-64.605	-134.787	
273.00	-62.619	-148.089	
274.00	-61.070	-171.549	
275.00	-60.131	173.143	
276.00	-58.434	155.153	
277.00	-57.330	142.628	
278.00	-56.715	132.862	
279.00	-55.829	119.518	
280.00	-55.886	108.311	
281.00	-55.615	96.030	
282.00	-56.201	87.609	
283.00	-56.782	76.070	
284.00	-58.269	65.763	
285.00	-60.035	52.896	
286.00	-63.047	43.688	
287.00	-65.713	4.005	
288.00	-67.151	-15.660	
289.00	-73.918	-72.253	
290.00	-69.928	-74.031	
291.00	-76.774	-174.693	
292.00	-72.509	-153.885	
293.00	-71.876	171.972	
294.00	-73.149	90.726	
295.00	-69.815	85.035	
296.00	-64.831	87.173	
297.00	-64.553	55.843	
298.00	-66.296	50.377	
299.00	-66.866	70.388	
300.00	-65.348	69.636	
301.00	-67.938	91.376	
302.00	-64.789	99.017	
303.00	-62.867	96.126	
304.00	-62.391	98.668	
305.00	-61.956	104.501	
306.00	-61.451	105.962	
307.00	-61.831	110.685	
308.00	-61.443	117.658	
309.00	-60.051	119.834	
310.00	-58.604	125.619	
311.00	-57.326	125.816	
312.00	-56.960	125.772	
313.00	-56.267	119.339	
314.00	-56.335	120.027	
315.00	-56.328	114.805	
316.00	-57.328	116.832	
317.00	-58.333	111.292	
318.00	-59.246	114.007	
319.00	-59.795	122.103	
320.00	-61.249	124.019	
321.00	-61.778	127.239	
322.00	-63.536	121.409	
323.00	-65.757	121.035	
324.00	-71.777	134.984	
325.00	-75.067	-178.955	
326.00	-67.114	-117.168	
327.00	-62.414	-111.355	
328.00	-60.358	-123.581	
329.00	-58.456	-126.157	
330.00	-57.979	-137.843	
331.00	-58.196	-146.994	
332.00	-58.770	-152.138	
333.00	-58.914	-163.829	
334.00	-59.414	-168.647	
335.00	-60.529	-175.465	
336.00	-61.619	-177.539	
337.00	-65.289	154.582	
338.00	-70.177	148.684	
339.00	-70.111	122.030	
340.00	-71.349	97.467	
341.00	-75.930	81.045	
342.00	-75.264	77.670	
343.00	-78.605	109.034	
344.00	-73.944	165.421	
345.00	-67.627	-177.990	
346.00	-64.351	-178.921	
347.00	-62.347	-179.870	
348.00	-58.861	175.343	
349.00	-58.199	-178.770	
350.00	-57.754	167.362	
351.00	-56.616	172.629	
352.00	-58.426	172.850	
353.00	-59.124	174.949	
354.00	-61.993	162.975	
355.00	-63.482	143.553	
356.00	-67.295	129.628	
357.00	-66.101	84.161	
358.00	-66.591	66.602	
359.00	-64.464	64.633	
Frequency	2300.00	MHz	
Channel	test		
Scan Axis name	Azimuth  [deg]		
Scan Axis	Amplitude	Phase	
			
0.00	-71.050	-34.767	
1.00	-74.535	-28.982	
2.00	-71.349	-23.942	
3.00	-72.907	-18.231	
4.00	-75.408	-6.926	
5.00	-73.836	10.300	
6.00	-68.073	21.380	
7.00	-69.503	47.435	
8.00	-68.566	47.667	
9.00	-67.670	61.767	
10.00	-68.811	71.736	
11.00	-67.097	83.589	
12.00	-68.111	97.568	
13.00	-68.140	98.060	
14.00	-73.196	120.857	
15.00	-85.235	-176.762	
16.00	-83.085	176.411	
17.00	-77.553	-178.309	
18.00	-70.541	-152.445	
19.00	-69.953	-171.426	
20.00	-66.638	178.816	
21.00	-64.675	178.496	
22.00	-63.357	179.593	
23.00	-62.812	169.134	
24.00	-60.737	168.859	
25.00	-61.786	171.305	
26.00	-61.680	170.227	
27.00	-62.456	174.126	
28.00	-65.403	164.272	
29.00	-69.768	158.076	
30.00	-70.656	117.859	
31.00	-69.366	85.417	
32.00	-66.748	78.371	
33.00	-66.081	82.006	
34.00	-65.705	84.058	
35.00	-67.002	96.660	
36.00	-69.629	104.043	
37.00	-71.666	125.082	
38.00	-74.234	136.733	
39.00	-80.581	147.192	
40.00	-78.200	-159.200	
41.00	-82.986	-159.150	
42.00	-76.453	-161.825	
43.00	-71.117	-151.499	
44.00	-77.599	-148.757	
45.00	-71.401	-176.311	
46.00	-70.539	179.492	
47.00	-69.826	-161.050	
48.00	-68.657	-154.012	
49.00	-74.636	-145.710	
50.00	-74.283	176.102	
51.00	-73.609	-171.364	
52.00	-75.188	114.834	
53.00	-75.843	106.247	
54.00	-71.708	98.415	
55.00	-69.188	94.988	
56.00	-70.057	118.267	
57.00	-70.871	119.575	
58.00	-70.709	113.172	
59.00	-73.111	132.773	
60.00	-71.210	125.638	
61.00	-69.381	139.397	
62.00	-70.862	128.537	
63.00	-70.223	131.790	
64.00	-67.686	145.089	
65.00	-69.163	140.602	
66.00	-67.852	137.413	
67.00	-68.095	137.352	
68.00	-69.636	129.911	
69.00	-68.600	131.125	
70.00	-68.511	118.502	
71.00	-66.835	118.891	
72.00	-66.193	125.558	
73.00	-65.612	125.471	
74.00	-66.234	135.423	
75.00	-66.034	135.938	
76.00	-66.775	150.677	
77.00	-69.008	160.230	
78.00	-74.976	-163.623	
79.00	-77.258	168.418	
80.00	-76.180	-7.271	
81.00	-75.794	-20.845	
82.00	-69.056	-10.378	
83.00	-74.683	112.228	
84.00	-64.951	57.848	
85.00	-64.706	48.683	
86.00	-68.951	76.363	
87.00	-72.165	117.021	
88.00	-72.570	77.109	
89.00	-63.633	122.460	
90.00	-67.437	121.943	
91.00	-70.151	100.563	
92.00	-65.993	137.847	
93.00	-69.127	140.686	
94.00	-71.560	154.224	
95.00	-67.152	164.674	
96.00	-71.515	-178.962	
97.00	-67.488	-171.272	
98.00	-68.069	-158.282	
99.00	-67.934	-140.455	
100.00	-66.334	-120.446	
101.00	-63.269	-91.587	
102.00	-62.330	-89.477	
103.00	-60.629	-65.011	
104.00	-58.851	-46.346	
105.00	-58.463	-24.644	
106.00	-56.602	-15.691	
107.00	-55.663	6.861	
108.00	-55.365	27.172	
109.00	-54.616	45.457	
110.00	-54.543	66.312	
111.00	-53.908	93.030	
112.00	-52.494	116.601	
113.00	-51.365	138.475	
114.00	-50.540	160.185	
115.00	-49.037	-179.822	
116.00	-48.127	-161.292	
117.00	-47.528	-146.477	
118.00	-47.545	-131.454	
119.00	-47.656	-114.820	
120.00	-48.349	-95.632	
121.00	-49.623	-81.765	
122.00	-51.449	-60.183	
123.00	-54.334	-36.309	
124.00	-56.593	-6.107	
125.00	-61.085	41.929	
126.00	-59.698	114.604	
127.00	-55.844	158.714	
128.00	-52.767	-171.203	
129.00	-50.459	-147.348	
130.00	-48.256	-129.062	
131.00	-47.131	-107.801	
132.00	-46.328	-92.375	
133.00	-45.995	-76.399	
134.00	-46.335	-59.575	
135.00	-46.730	-41.430	
136.00	-47.711	-24.701	
137.00	-49.241	-6.745	
138.00	-51.495	11.919	
139.00	-54.876	35.809	
140.00	-59.537	70.390	
141.00	-61.830	140.942	
142.00	-57.269	-167.926	
143.00	-54.303	-143.346	
144.00	-52.173	-125.608	
145.00	-51.953	-110.269	
146.00	-51.781	-95.417	
147.00	-52.162	-77.570	
148.00	-52.526	-61.740	
149.00	-52.856	-46.617	
150.00	-52.884	-29.517	
151.00	-52.815	-15.040	
152.00	-52.633	-9.635	
153.00	-52.546	-3.544	
154.00	-52.986	-1.304	
155.00	-53.962	3.270	
156.00	-55.912	0.277	
157.00	-59.509	-4.054	
158.00	-65.218	-45.145	
159.00	-60.787	-126.094	
160.00	-54.479	-139.407	
161.00	-50.687	-137.565	
162.00	-48.289	-135.396	
163.00	-47.181	-131.600	
164.00	-46.872	-127.759	
165.00	-47.557	-123.441	
166.00	-49.632	-119.759	
167.00	-54.011	-113.016	
168.00	-65.942	-75.803	
169.00	-57.503	41.324	
170.00	-51.545	46.469	
171.00	-48.734	41.166	
172.00	-47.717	26.977	
173.00	-46.685	4.322	
174.00	-44.010	-21.868	
175.00	-40.558	-39.048	
176.00	-37.236	-49.578	
177.00	-34.594	-55.619	
178.00	-32.614	-59.042	
179.00	-31.158	-61.273	
180.00	-30.234	-62.695	
181.00	-29.778	-63.976	
182.00	-29.797	-64.240	
183.00	-30.307	-64.245	
184.00	-31.317	-63.491	
185.00	-32.880	-62.459	
186.00	-35.016	-59.602	
187.00	-37.920	-54.541	
188.00	-41.536	-45.194	
189.00	-45.903	-26.976	
190.00	-49.458	2.241	
191.00	-51.060	33.736	
192.00	-52.865	53.809	
193.00	-56.020	75.165	
194.00	-61.492	121.351	
195.00	-58.807	-173.395	
196.00	-55.530	-154.324	
197.00	-55.152	-140.495	
198.00	-57.957	-121.721	
199.00	-59.430	-64.496	
200.00	-53.737	-24.719	
201.00	-48.985	-13.204	
202.00	-45.990	-12.054	
203.00	-44.423	-14.987	
204.00	-43.868	-19.661	
205.00	-44.346	-25.854	
206.00	-45.994	-32.791	
207.00	-49.764	-44.058	
208.00	-57.926	-79.404	
209.00	-55.112	167.369	
210.00	-48.102	144.311	
211.00	-44.631	133.273	
212.00	-42.801	124.611	
213.00	-41.995	116.588	
214.00	-41.812	108.441	
215.00	-42.453	101.814	
216.00	-43.746	96.888	
217.00	-45.774	93.832	
218.00	-48.303	97.039	
219.00	-51.313	110.606	
220.00	-52.156	135.875	
221.00	-50.679	153.489	
222.00	-48.543	159.127	
223.00	-47.313	157.840	
224.00	-46.633	151.468	
225.00	-46.330	143.572	
226.00	-46.518	136.119	
227.00	-46.823	128.211	
228.00	-47.312	121.607	
229.00	-48.225	114.128	
230.00	-49.200	107.512	
231.00	-50.732	101.497	
232.00	-52.578	94.952	
233.00	-54.910	86.896	
234.00	-58.182	74.245	
235.00	-61.796	52.274	
236.00	-65.120	20.472	
237.00	-65.895	-31.413	
238.00	-64.809	-60.704	
239.00	-64.995	-82.449	
240.00	-66.055	-97.292	
241.00	-69.086	-123.814	
242.00	-72.543	-165.840	
243.00	-71.832	114.503	
244.00	-66.625	77.393	
245.00	-63.433	48.798	
246.00	-60.724	33.256	
247.00	-59.523	14.942	
248.00	-58.716	-2.045	
249.00	-58.490	-17.476	
250.00	-58.719	-33.845	
251.00	-59.412	-53.793	
252.00	-60.723	-76.881	
253.00	-61.967	-102.631	
254.00	-62.367	-131.852	
255.00	-62.480	-162.433	
256.00	-62.053	169.653	
257.00	-61.708	143.616	
258.00	-61.368	123.278	
259.00	-60.941	99.470	
260.00	-60.778	77.860	
261.00	-60.801	59.702	
262.00	-61.699	43.955	
263.00	-62.500	27.484	
264.00	-63.829	5.848	
265.00	-67.346	-26.837	
266.00	-68.094	-62.500	
267.00	-67.185	-106.385	
268.00	-65.918	-129.020	
269.00	-64.441	-150.692	
270.00	-63.596	-170.978	
271.00	-63.712	166.039	
272.00	-62.948	141.071	
273.00	-62.540	118.626	
274.00	-60.777	99.791	
275.00	-59.765	79.613	
276.00	-59.261	63.241	
277.00	-58.358	49.336	
278.00	-58.266	35.777	
279.00	-58.246	21.599	
280.00	-58.754	8.547	
281.00	-59.379	-3.653	
282.00	-60.745	-17.651	
283.00	-62.898	-32.309	
284.00	-64.388	-57.778	
285.00	-68.193	-93.264	
286.00	-67.025	-146.453	
287.00	-63.772	177.109	
288.00	-61.184	159.218	
289.00	-60.072	143.682	
290.00	-59.239	132.061	
291.00	-58.618	122.599	
292.00	-58.382	117.085	
293.00	-58.866	105.815	
294.00	-59.057	99.440	
295.00	-60.032	89.811	
296.00	-60.452	89.255	
297.00	-61.083	82.036	
298.00	-61.740	79.913	
299.00	-62.977	82.021	
300.00	-63.749	79.439	
301.00	-63.541	90.508	
302.00	-63.761	89.795	
303.00	-64.618	89.111	
304.00	-63.431	94.298	
305.00	-63.637	93.002	
306.00	-63.130	88.041	
307.00	-63.448	77.897	
308.00	-63.252	67.883	
309.00	-64.265	44.901	
310.00	-64.873	35.096	
311.00	-65.779	22.264	
312.00	-66.314	9.690	
313.00	-68.834	-0.713	
314.00	-74.690	-0.802	
315.00	-77.866	81.352	
316.00	-70.281	124.313	
317.00	-66.770	123.364	
318.00	-64.168	122.208	
319.00	-63.241	118.697	
320.00	-62.579	118.878	
321.00	-62.715	120.937	
322.00	-64.031	126.200	
323.00	-63.699	124.736	
324.00	-65.044	131.435	
325.00	-67.216	129.279	
326.00	-68.888	131.253	
327.00	-71.638	117.191	
328.00	-75.590	122.171	
329.00	-77.509	109.880	
330.00	-76.758	83.680	
331.00	-77.763	99.581	
332.00	-73.353	111.880	
333.00	-69.453	100.730	
334.00	-66.917	98.463	
335.00	-66.100	106.998	
336.00	-64.539	100.503	
337.00	-63.385	102.302	
338.00	-63.981	88.768	
339.00	-64.676	92.379	
340.00	-65.876	87.420	
341.00	-69.638	76.758	
342.00	-72.987	67.701	
343.00	-86.534	-121.074	
344.00	-73.160	-124.718	
345.00	-69.566	-144.160	
346.00	-66.085	-144.120	
347.00	-65.753	-151.059	
348.00	-66.644	-150.848	
349.00	-67.017	-156.434	
350.00	-67.686	-161.838	
351.00	-69.447	-178.951	
352.00	-70.569	172.542	
353.00	-76.537	169.686	
354.00	-79.633	113.291	
355.00	-83.127	9.637	
356.00	-79.063	7.537	
357.00	-75.383	-22.478	
358.00	-71.817	-26.311	
359.00	-72.256	-32.037	
Frequency	2350.00	MHz	
Channel	test		
Scan Axis name	Azimuth  [deg]		
Scan Axis	Amplitude	Phase	
			
0.00	-67.262	8.594	
1.00	-66.575	4.902	
2.00	-65.968	7.349	
3.00	-65.759	15.020	
4.00	-67.418	20.797	
5.00	-67.797	34.419	
6.00	-69.242	54.400	
7.00	-69.637	77.937	
8.00	-69.784	99.855	
9.00	-69.102	125.027	
10.00	-67.962	151.353	
11.00	-65.903	173.049	
12.00	-64.665	-173.282	
13.00	-63.849	-157.422	
14.00	-63.292	-143.788	
15.00	-62.639	-132.982	
16.00	-61.928	-123.003	
17.00	-61.747	-115.299	
18.00	-61.562	-116.848	
19.00	-61.422	-117.436	
20.00	-61.752	-121.743	
21.00	-61.237	-131.026	
22.00	-61.073	-137.895	
23.00	-60.724	-142.290	
24.00	-62.579	-149.370	
25.00	-64.466	-156.258	
26.00	-66.777	-159.483	
27.00	-67.497	-159.846	
28.00	-72.926	-179.958	
29.00	-72.890	130.496	
30.00	-69.857	89.703	
31.00	-67.923	91.641	
32.00	-66.399	92.826	
33.00	-66.447	96.777	
34.00	-66.399	110.158	
35.00	-67.710	116.790	
36.00	-69.671	141.035	
37.00	-73.065	176.663	
38.00	-72.214	-146.783	
39.00	-70.203	-123.708	
40.00	-69.616	-106.835	
41.00	-66.909	-99.697	
42.00	-65.263	-90.222	
43.00	-64.039	-83.084	
44.00	-62.957	-77.929	
45.00	-61.828	-70.297	
46.00	-61.343	-60.207	
47.00	-60.906	-52.897	
48.00	-61.391	-43.931	
49.00	-61.985	-34.985	
50.00	-63.038	-32.215	
51.00	-64.260	-25.787	
52.00	-67.415	-24.980	
53.00	-69.266	-25.160	
54.00	-71.622	-46.788	
55.00	-76.294	-62.832	
56.00	-76.052	-44.509	
57.00	-75.688	-43.083	
58.00	-91.696	-10.479	
59.00	-95.686	-0.399	
60.00	-82.124	65.807	
61.00	-76.699	21.023	
62.00	-77.467	61.458	
63.00	-77.328	65.205	
64.00	-75.486	30.363	
65.00	-76.094	45.167	
66.00	-75.001	30.309	
67.00	-73.798	47.645	
68.00	-74.720	63.890	
69.00	-74.885	77.905	
70.00	-81.512	88.847	
71.00	-78.111	135.090	
72.00	-82.280	147.284	
73.00	-80.540	-178.178	
74.00	-81.038	-177.204	
75.00	-84.802	163.640	
76.00	-87.654	-142.546	
77.00	-82.629	83.617	
78.00	-76.389	66.293	
79.00	-72.291	88.292	
80.00	-68.748	94.356	
81.00	-68.307	88.809	
82.00	-70.744	100.554	
83.00	-70.037	107.728	
84.00	-70.433	109.136	
85.00	-70.781	153.782	
86.00	-69.443	151.362	
87.00	-73.314	-164.564	
88.00	-73.526	-174.982	
89.00	-77.218	-150.597	
90.00	-74.684	-153.226	
91.00	-74.607	-139.740	
92.00	-74.756	-131.415	
93.00	-76.071	-127.912	
94.00	-84.998	-102.418	
95.00	-81.125	-112.751	
96.00	-83.090	-99.651	
97.00	-76.172	-91.673	
98.00	-77.438	-90.973	
99.00	-78.585	-76.159	
100.00	-79.544	-67.131	
101.00	-87.637	-21.557	
102.00	-83.839	33.785	
103.00	-73.768	63.258	
104.00	-67.816	73.981	
105.00	-63.921	83.923	
106.00	-60.728	91.590	
107.00	-58.023	99.291	
108.00	-55.976	111.283	
109.00	-54.313	123.582	
110.00	-52.868	135.117	
111.00	-51.831	148.664	
112.00	-51.058	163.348	
113.00	-50.467	179.708	
114.00	-50.044	-163.853	
115.00	-49.728	-146.943	
116.00	-49.667	-127.049	
117.00	-49.620	-108.134	
118.00	-49.713	-87.278	
119.00	-49.846	-68.025	
120.00	-50.100	-48.263	
121.00	-50.987	-30.495	
122.00	-52.099	-13.644	
123.00	-54.623	1.151	
124.00	-59.001	10.608	
125.00	-68.404	-17.066	
126.00	-61.107	-96.543	
127.00	-54.368	-91.593	
128.00	-50.607	-78.244	
129.00	-48.087	-62.245	
130.00	-46.270	-45.877	
131.00	-44.929	-28.151	
132.00	-44.052	-11.855	
133.00	-43.589	5.331	
134.00	-43.518	21.596	
135.00	-43.905	38.255	
136.00	-44.847	55.144	
137.00	-46.517	73.154	
138.00	-49.062	93.414	
139.00	-53.318	122.630	
140.00	-58.211	-175.262	
141.00	-54.673	-104.446	
142.00	-50.117	-72.115	
143.00	-47.325	-52.492	
144.00	-45.643	-34.947	
145.00	-44.909	-20.750	
146.00	-44.681	-7.657	
147.00	-45.055	5.258	
148.00	-45.877	16.910	
149.00	-47.360	27.915	
150.00	-49.297	36.919	
151.00	-51.939	44.479	
152.00	-55.646	48.627	
153.00	-60.800	42.757	
154.00	-66.230	4.139	
155.00	-64.137	-53.739	
156.00	-58.984	-74.991	
157.00	-54.826	-79.732	
158.00	-51.729	-79.220	
159.00	-48.952	-76.770	
160.00	-46.739	-72.941	
161.00	-45.036	-68.203	
162.00	-43.752	-62.404	
163.00	-43.053	-56.252	
164.00	-42.905	-49.025	
165.00	-43.446	-39.932	
166.00	-44.660	-29.033	
167.00	-46.375	-12.618	
168.00	-47.856	10.233	
169.00	-48.146	34.973	
170.00	-47.191	48.358	
171.00	-45.901	48.126	
172.00	-44.046	36.193	
173.00	-41.233	21.273	
174.00	-37.835	10.324	
175.00	-34.705	4.171	
176.00	-32.067	1.237	
177.00	-29.965	-0.200	
178.00	-28.413	-0.521	
179.00	-27.329	-0.366	
180.00	-26.698	0.260	
181.00	-26.544	0.915	
182.00	-26.840	2.148	
183.00	-27.607	3.697	
184.00	-28.897	6.225	
185.00	-30.708	9.841	
186.00	-33.153	15.625	
187.00	-36.241	26.343	
188.00	-39.613	44.701	
189.00	-42.241	72.471	
190.00	-43.140	99.265	
191.00	-43.703	117.941	
192.00	-45.058	131.922	
193.00	-47.538	147.255	
194.00	-50.606	174.787	
195.00	-51.510	-147.833	
196.00	-50.197	-124.899	
197.00	-49.988	-117.740	
198.00	-51.891	-119.277	
199.00	-57.953	-139.134	
200.00	-59.540	110.024	
201.00	-50.817	77.825	
202.00	-46.727	65.076	
203.00	-44.749	54.257	
204.00	-44.094	42.044	
205.00	-44.503	27.335	
206.00	-45.840	6.888	
207.00	-47.527	-25.132	
208.00	-47.612	-67.264	
209.00	-45.339	-104.486	
210.00	-42.897	-128.864	
211.00	-41.100	-146.228	
212.00	-40.035	-161.040	
213.00	-39.659	-173.323	
214.00	-39.940	174.897	
215.00	-40.934	164.585	
216.00	-42.655	154.891	
217.00	-45.601	146.553	
218.00	-50.423	142.238	
219.00	-60.429	168.451	
220.00	-55.496	-101.981	
221.00	-49.477	-99.224	
222.00	-46.600	-106.126	
223.00	-45.158	-115.845	
224.00	-44.505	-127.399	
225.00	-44.379	-139.649	
226.00	-44.603	-151.824	
227.00	-45.168	-164.604	
228.00	-45.917	-177.251	
229.00	-46.952	169.671	
230.00	-48.234	157.240	
231.00	-49.819	145.180	
232.00	-51.896	132.246	
233.00	-54.595	117.180	
234.00	-58.087	98.251	
235.00	-62.839	69.831	
236.00	-66.420	12.734	
237.00	-64.112	-47.164	
238.00	-61.160	-79.529	
239.00	-58.968	-104.564	
240.00	-57.775	-127.117	
241.00	-56.765	-148.644	
242.00	-55.947	-171.397	
243.00	-55.126	165.255	
244.00	-54.521	143.051	
245.00	-53.840	122.058	
246.00	-53.191	102.075	
247.00	-52.799	81.165	
248.00	-52.559	61.456	
249.00	-52.517	42.062	
250.00	-52.608	22.520	
251.00	-52.917	2.433	
252.00	-53.120	-18.372	
253.00	-53.566	-39.037	
254.00	-53.912	-59.794	
255.00	-54.166	-80.617	
256.00	-54.611	-101.042	
257.00	-54.892	-120.334	
258.00	-55.473	-139.450	
259.00	-56.322	-159.483	
260.00	-56.873	179.128	
261.00	-57.640	157.861	
262.00	-58.112	134.485	
263.00	-58.087	114.564	
264.00	-58.378	94.419	
265.00	-58.584	79.812	
266.00	-59.065	64.554	
267.00	-59.804	50.989	
268.00	-61.206	35.146	
269.00	-63.139	19.818	
270.00	-65.769	-0.620	
271.00	-69.227	-30.349	
272.00	-71.479	-79.155	
273.00	-68.947	-123.431	
274.00	-66.394	-149.207	
275.00	-64.979	-171.567	
276.00	-64.179	172.609	
277.00	-63.030	162.263	
278.00	-63.950	149.362	
279.00	-64.282	137.864	
280.00	-65.876	128.459	
281.00	-67.944	115.256	
282.00	-71.220	104.018	
283.00	-75.066	89.845	
284.00	-80.128	76.319	
285.00	-83.014	65.649	
286.00	-89.998	81.718	
287.00	-79.325	110.495	
288.00	-75.842	104.140	
289.00	-71.979	93.994	
290.00	-69.474	81.856	
291.00	-67.721	73.487	
292.00	-67.822	64.108	
293.00	-67.509	56.619	
294.00	-69.117	55.941	
295.00	-71.540	48.401	
296.00	-74.502	72.673	
297.00	-76.830	99.569	
298.00	-73.032	126.322	
299.00	-70.812	130.783	
300.00	-68.676	124.719	
301.00	-66.499	111.553	
302.00	-65.211	104.317	
303.00	-64.274	93.219	
304.00	-63.828	85.671	
305.00	-63.171	78.062	
306.00	-62.799	69.564	
307.00	-62.694	60.453	
308.00	-62.893	51.532	
309.00	-62.628	37.431	
310.00	-62.786	28.211	
311.00	-63.379	12.897	
312.00	-64.064	-1.148	
313.00	-64.824	-11.221	
314.00	-67.106	-20.975	
315.00	-71.506	-31.236	
316.00	-77.190	-32.528	
317.00	-84.653	90.733	
318.00	-75.097	127.955	
319.00	-73.826	123.714	
320.00	-71.832	129.598	
321.00	-70.535	132.032	
322.00	-69.159	146.173	
323.00	-67.886	155.272	
324.00	-66.604	157.229	
325.00	-65.368	149.103	
326.00	-65.419	139.464	
327.00	-66.669	131.344	
328.00	-67.819	114.684	
329.00	-69.617	98.243	
330.00	-71.042	77.927	
331.00	-72.518	69.687	
332.00	-73.371	61.345	
333.00	-74.193	55.802	
334.00	-74.250	64.904	
335.00	-76.294	84.693	
336.00	-73.008	97.091	
337.00	-70.357	106.421	
338.00	-69.069	98.634	
339.00	-67.332	91.947	
340.00	-66.593	87.909	
341.00	-67.061	73.930	
342.00	-68.975	59.398	
343.00	-70.648	40.022	
344.00	-72.859	20.972	
345.00	-74.572	-2.437	
346.00	-75.216	-15.807	
347.00	-77.227	-23.227	
348.00	-79.073	-29.633	
349.00	-83.053	-22.054	
350.00	-85.261	41.289	
351.00	-78.279	66.252	
352.00	-75.308	57.993	
353.00	-72.515	48.276	
354.00	-72.009	41.097	
355.00	-71.371	31.548	
356.00	-70.632	20.701	
357.00	-70.981	10.754	
358.00	-69.701	2.040	
359.00	-68.021	2.296	
Frequency	2400.00	MHz	
Channel	test		
Scan Axis name	Azimuth  [deg]		
Scan Axis	Amplitude	Phase	
			
0.00	-78.845	-50.460	
1.00	-74.189	5.730	
2.00	-72.030	2.733	
3.00	-73.300	-0.012	
4.00	-75.384	-34.233	
5.00	-70.974	-72.568	
6.00	-70.587	-96.072	
7.00	-69.280	-110.801	
8.00	-64.700	-116.284	
9.00	-64.215	-136.671	
10.00	-62.655	-143.005	
11.00	-61.932	-137.749	
12.00	-63.116	-137.000	
13.00	-64.990	-123.995	
14.00	-66.376	-109.221	
15.00	-68.006	-79.245	
16.00	-67.965	-35.394	
17.00	-66.089	-22.262	
18.00	-65.505	-15.010	
19.00	-65.083	-5.293	
20.00	-66.411	1.915	
21.00	-68.399	6.842	
22.00	-71.444	12.579	
23.00	-81.331	75.582	
24.00	-71.722	-167.828	
25.00	-70.438	-143.135	
26.00	-70.807	-141.380	
27.00	-70.391	-131.429	
28.00	-69.260	-126.892	
29.00	-67.078	-122.935	
30.00	-68.707	-111.659	
31.00	-68.390	-121.964	
32.00	-67.598	-111.647	
33.00	-67.326	-106.890	
34.00	-67.601	-103.188	
35.00	-70.747	-95.744	
36.00	-71.519	-77.389	
37.00	-71.150	-43.217	
38.00	-72.225	-27.493	
39.00	-72.445	-12.147	
40.00	-70.739	0.414	
41.00	-69.210	19.592	
42.00	-67.152	12.848	
43.00	-68.618	8.575	
44.00	-68.146	1.767	
45.00	-69.169	-6.822	
46.00	-68.755	-5.835	
47.00	-67.758	-17.508	
48.00	-68.424	-26.819	
49.00	-68.747	-32.890	
50.00	-70.891	-33.151	
51.00	-74.230	-51.009	
52.00	-77.934	-77.293	
53.00	-77.170	-120.865	
54.00	-75.104	-148.667	
55.00	-72.075	-154.263	
56.00	-70.786	175.141	
57.00	-68.272	-175.850	
58.00	-67.520	179.225	
59.00	-66.389	-171.500	
60.00	-65.126	-148.241	
61.00	-65.070	-135.353	
62.00	-65.031	-126.777	
63.00	-65.257	-109.288	
64.00	-65.134	-94.550	
65.00	-67.847	-85.474	
66.00	-68.361	-62.141	
67.00	-70.522	-41.856	
68.00	-71.777	-11.760	
69.00	-74.543	10.073	
70.00	-72.454	28.369	
71.00	-72.441	41.990	
72.00	-69.934	47.849	
73.00	-70.227	60.251	
74.00	-68.886	68.192	
75.00	-67.796	82.154	
76.00	-69.201	94.556	
77.00	-68.007	117.677	
78.00	-67.812	125.729	
79.00	-68.681	153.375	
80.00	-64.495	176.017	
81.00	-64.940	-170.817	
82.00	-65.129	-155.013	
83.00	-63.815	-145.741	
84.00	-65.636	-132.002	
85.00	-68.267	-108.835	
86.00	-67.959	-91.571	
87.00	-67.498	-69.282	
88.00	-68.316	-33.631	
89.00	-67.718	-27.133	
90.00	-68.859	-19.088	
91.00	-70.365	-2.301	
92.00	-71.778	-4.491	
93.00	-70.588	11.467	
94.00	-73.738	3.685	
95.00	-75.681	27.431	
96.00	-78.417	91.566	
97.00	-75.838	85.209	
98.00	-74.494	106.657	
99.00	-70.566	111.085	
100.00	-67.359	130.951	
101.00	-64.517	144.592	
102.00	-63.587	160.072	
103.00	-62.009	165.790	
104.00	-61.649	177.204	
105.00	-61.180	-173.520	
106.00	-59.732	-164.548	
107.00	-59.542	-152.550	
108.00	-58.374	-147.894	
109.00	-58.170	-138.174	
110.00	-56.832	-131.396	
111.00	-56.072	-122.606	
112.00	-55.123	-111.453	
113.00	-54.367	-99.260	
114.00	-53.582	-87.510	
115.00	-52.867	-73.469	
116.00	-52.387	-56.841	
117.00	-51.761	-38.994	
118.00	-51.576	-18.976	
119.00	-50.859	-0.019	
120.00	-50.129	20.339	
121.00	-49.562	36.359	
122.00	-49.255	52.776	
123.00	-49.316	65.903	
124.00	-49.828	76.823	
125.00	-51.097	86.415	
126.00	-52.780	92.068	
127.00	-55.085	87.761	
128.00	-55.926	68.891	
129.00	-54.051	56.151	
130.00	-51.174	54.190	
131.00	-48.680	60.227	
132.00	-46.719	70.834	
133.00	-45.242	83.119	
134.00	-44.481	95.523	
135.00	-44.033	108.570	
136.00	-44.203	121.573	
137.00	-44.910	134.184	
138.00	-46.314	146.548	
139.00	-48.664	159.454	
140.00	-53.255	168.791	
141.00	-64.023	157.444	
142.00	-57.814	39.483	
143.00	-50.916	43.129	
144.00	-47.310	54.899	
145.00	-45.258	65.357	
146.00	-44.025	76.594	
147.00	-43.380	87.044	
148.00	-43.423	96.942	
149.00	-43.913	106.210	
150.00	-44.818	114.045	
151.00	-46.226	120.662	
152.00	-47.879	125.396	
153.00	-49.983	126.321	
154.00	-52.289	122.861	
155.00	-54.611	114.709	
156.00	-55.984	97.836	
157.00	-56.307	76.210	
158.00	-54.998	53.294	
159.00	-52.332	39.901	
160.00	-49.748	34.004	
161.00	-47.820	34.220	
162.00	-46.333	35.962	
163.00	-45.542	40.600	
164.00	-45.460	47.687	
165.00	-46.173	57.965	
166.00	-47.729	71.914	
167.00	-49.457	99.881	
168.00	-49.281	135.315	
169.00	-46.869	160.877	
170.00	-44.609	169.354	
171.00	-42.912	167.766	
172.00	-41.647	157.100	
173.00	-39.928	140.807	
174.00	-37.363	124.317	
175.00	-34.505	112.885	
176.00	-31.948	105.781	
177.00	-29.776	101.570	
178.00	-28.184	99.186	
179.00	-27.033	97.933	
180.00	-26.367	97.445	
181.00	-26.186	97.223	
182.00	-26.457	97.843	
183.00	-27.192	99.072	
184.00	-28.443	101.529	
185.00	-30.189	105.411	
186.00	-32.454	111.565	
187.00	-35.184	122.581	
188.00	-37.925	139.315	
189.00	-40.101	161.269	
190.00	-41.444	-178.796	
191.00	-42.788	-163.978	
192.00	-44.979	-150.527	
193.00	-48.793	-132.439	
194.00	-52.749	-90.397	
195.00	-51.078	-45.195	
196.00	-48.687	-30.361	
197.00	-48.208	-28.393	
198.00	-50.092	-36.014	
199.00	-55.430	-64.299	
200.00	-55.205	-153.544	
201.00	-48.486	174.038	
202.00	-44.680	160.582	
203.00	-42.968	149.417	
204.00	-42.506	139.123	
205.00	-43.400	127.463	
206.00	-45.932	110.253	
207.00	-50.240	74.662	
208.00	-50.258	5.719	
209.00	-45.280	-33.719	
210.00	-41.905	-52.329	
211.00	-39.948	-64.980	
212.00	-39.038	-76.116	
213.00	-38.914	-85.806	
214.00	-39.559	-95.201	
215.00	-40.882	-103.602	
216.00	-43.190	-110.804	
217.00	-46.673	-115.265	
218.00	-52.075	-105.765	
219.00	-55.749	-53.046	
220.00	-50.851	-21.363	
221.00	-47.262	-18.911	
222.00	-45.169	-25.812	
223.00	-44.072	-34.110	
224.00	-43.732	-43.692	
225.00	-43.732	-54.166	
226.00	-44.112	-64.635	
227.00	-44.900	-75.555	
228.00	-45.856	-85.970	
229.00	-47.047	-97.543	
230.00	-48.453	-109.188	
231.00	-50.103	-119.867	
232.00	-52.079	-131.830	
233.00	-54.234	-144.457	
234.00	-57.017	-160.211	
235.00	-60.343	-173.062	
236.00	-66.032	168.689	
237.00	-76.826	116.884	
238.00	-71.510	-22.042	
239.00	-64.744	-48.991	
240.00	-61.470	-67.309	
241.00	-59.555	-85.108	
242.00	-58.069	-105.955	
243.00	-57.074	-126.837	
244.00	-56.120	-146.235	
245.00	-55.328	-165.502	
246.00	-54.630	176.693	
247.00	-54.417	158.826	
248.00	-54.603	141.359	
249.00	-55.142	124.144	
250.00	-55.686	104.778	
251.00	-56.664	83.721	
252.00	-57.360	59.740	
253.00	-57.793	36.440	
254.00	-58.140	13.028	
255.00	-58.297	-6.690	
256.00	-58.428	-24.888	
257.00	-58.716	-41.110	
258.00	-59.407	-56.846	
259.00	-60.472	-72.936	
260.00	-61.439	-88.936	
261.00	-62.623	-100.268	
262.00	-64.582	-114.380	
263.00	-66.874	-122.963	
264.00	-69.693	-135.133	
265.00	-75.634	-159.773	
266.00	-84.475	-152.102	
267.00	-92.493	21.588	
268.00	-77.386	0.983	
269.00	-74.756	-8.924	
270.00	-73.607	-20.250	
271.00	-73.864	-45.919	
272.00	-73.795	-72.962	
273.00	-72.155	-84.490	
274.00	-73.041	-104.516	
275.00	-73.262	-127.208	
276.00	-76.468	-168.238	
277.00	-76.756	151.314	
278.00	-74.903	109.402	
279.00	-70.850	78.863	
280.00	-69.038	59.320	
281.00	-67.394	42.831	
282.00	-66.552	20.285	
283.00	-65.696	3.746	
284.00	-65.130	-20.325	
285.00	-64.850	-45.238	
286.00	-64.005	-65.139	
287.00	-63.839	-88.959	
288.00	-64.581	-107.735	
289.00	-65.056	-127.117	
290.00	-65.619	-152.346	
291.00	-66.474	-177.185	
292.00	-67.043	153.067	
293.00	-67.561	126.911	
294.00	-66.200	108.648	
295.00	-66.998	91.705	
296.00	-67.279	85.503	
297.00	-68.622	80.473	
298.00	-70.358	92.663	
299.00	-70.747	114.967	
300.00	-67.988	132.613	
301.00	-65.936	139.532	
302.00	-63.769	133.289	
303.00	-62.571	127.128	
304.00	-61.915	114.880	
305.00	-61.595	102.966	
306.00	-60.922	89.480	
307.00	-61.015	74.273	
308.00	-61.095	63.289	
309.00	-60.683	49.244	
310.00	-61.365	36.703	
311.00	-62.093	28.964	
312.00	-64.000	21.133	
313.00	-66.779	17.705	
314.00	-71.777	25.171	
315.00	-76.396	71.936	
316.00	-71.805	120.270	
317.00	-66.957	120.648	
318.00	-65.969	118.630	
319.00	-65.050	105.337	
320.00	-66.073	91.209	
321.00	-65.916	75.070	
322.00	-66.688	60.101	
323.00	-66.512	55.898	
324.00	-66.202	49.698	
325.00	-65.388	48.599	
326.00	-65.102	49.042	
327.00	-63.804	45.745	
328.00	-64.823	38.242	
329.00	-65.776	28.205	
330.00	-67.478	15.386	
331.00	-70.188	-4.032	
332.00	-72.095	-43.202	
333.00	-71.356	-75.531	
334.00	-69.756	-109.451	
335.00	-67.316	-131.126	
336.00	-66.324	-148.768	
337.00	-65.652	-159.585	
338.00	-65.853	-170.592	
339.00	-67.128	177.178	
340.00	-69.350	170.456	
341.00	-72.089	158.660	
342.00	-76.728	171.797	
343.00	-78.617	167.539	
344.00	-85.562	160.488	
345.00	-80.870	158.203	
346.00	-78.321	122.554	
347.00	-72.303	103.673	
348.00	-70.372	102.845	
349.00	-68.145	91.186	
350.00	-68.447	82.241	
351.00	-69.699	67.580	
352.00	-70.306	48.140	
353.00	-74.690	8.561	
354.00	-72.624	-34.427	
355.00	-72.809	-49.204	
356.00	-71.854	-78.144	
357.00	-72.796	-93.746	
358.00	-76.035	-94.315	
359.00	-80.999	-116.526	
Frequency	2450.00	MHz	
Channel	test		
Scan Axis name	Azimuth  [deg]		
Scan Axis	Amplitude	Phase	
			
0.00	-82.456	-85.921	
1.00	-75.624	4.690	
2.00	-73.090	12.522	
3.00	-69.357	7.938	
4.00	-67.044	2.637	
5.00	-65.213	-11.555	
6.00	-63.768	-19.537	
7.00	-63.151	-26.252	
8.00	-62.374	-36.390	
9.00	-62.152	-46.717	
10.00	-61.826	-52.017	
11.00	-61.777	-54.027	
12.00	-62.642	-57.795	
13.00	-63.215	-52.174	
14.00	-65.574	-47.152	
15.00	-67.321	-27.684	
16.00	-70.347	-12.215	
17.00	-72.905	15.518	
18.00	-78.851	46.412	
19.00	-77.866	84.995	
20.00	-76.098	137.312	
21.00	-75.256	-174.771	
22.00	-70.737	-139.310	
23.00	-67.811	-116.922	
24.00	-62.519	-84.583	
25.00	-62.171	-77.644	
26.00	-62.103	-71.250	
27.00	-62.173	-68.189	
28.00	-62.507	-62.469	
29.00	-63.332	-57.667	
30.00	-65.542	-55.889	
31.00	-65.949	-63.529	
32.00	-68.871	-70.845	
33.00	-68.754	-80.612	
34.00	-68.003	-92.833	
35.00	-69.529	-93.921	
36.00	-71.173	-85.880	
37.00	-70.952	-61.318	
38.00	-71.470	-26.867	
39.00	-68.096	-0.364	
40.00	-66.798	23.744	
41.00	-65.355	35.210	
42.00	-65.371	41.269	
43.00	-66.490	43.705	
44.00	-68.141	37.583	
45.00	-68.754	37.249	
46.00	-69.533	24.605	
47.00	-67.408	23.381	
48.00	-67.120	27.118	
49.00	-66.563	34.754	
50.00	-70.092	49.752	
51.00	-71.856	52.627	
52.00	-76.371	80.001	
53.00	-79.175	131.622	
54.00	-83.733	-163.899	
55.00	-73.444	-155.061	
56.00	-73.768	-152.209	
57.00	-74.186	-140.154	
58.00	-86.284	-131.643	
59.00	-80.043	-2.223	
60.00	-73.958	19.295	
61.00	-68.978	50.765	
62.00	-65.675	53.020	
63.00	-64.246	58.919	
64.00	-63.652	64.106	
65.00	-62.185	76.755	
66.00	-63.403	90.551	
67.00	-64.326	101.711	
68.00	-65.479	117.317	
69.00	-66.440	138.715	
70.00	-67.433	151.066	
71.00	-68.336	164.016	
72.00	-70.450	170.816	
73.00	-71.926	156.718	
74.00	-69.404	142.112	
75.00	-67.633	140.197	
76.00	-66.489	144.993	
77.00	-65.001	160.604	
78.00	-65.969	174.601	
79.00	-65.224	-171.270	
80.00	-67.613	-136.826	
81.00	-69.389	-93.909	
82.00	-67.572	-83.379	
83.00	-66.961	-50.066	
84.00	-66.003	-26.173	
85.00	-64.518	2.701	
86.00	-65.399	31.451	
87.00	-63.331	55.507	
88.00	-62.649	66.223	
89.00	-62.106	93.549	
90.00	-62.171	110.463	
91.00	-62.651	128.769	
92.00	-63.838	149.476	
93.00	-64.525	167.514	
94.00	-64.708	-167.910	
95.00	-65.521	-138.872	
96.00	-66.173	-123.051	
97.00	-67.028	-103.127	
98.00	-69.199	-93.750	
99.00	-71.615	-80.923	
100.00	-73.888	-75.060	
101.00	-77.832	-74.030	
102.00	-76.320	-109.673	
103.00	-78.506	-126.063	
104.00	-75.224	-124.132	
105.00	-74.755	-113.156	
106.00	-76.624	-106.088	
107.00	-77.653	-85.336	
108.00	-82.072	-67.992	
109.00	-82.577	95.124	
110.00	-76.627	74.048	
111.00	-71.322	91.704	
112.00	-68.634	95.768	
113.00	-66.549	97.575	
114.00	-63.013	89.217	
115.00	-59.818	84.258	
116.00	-57.269	88.095	
117.00	-54.763	90.871	
118.00	-52.499	97.678	
119.00	-50.667	105.203	
120.00	-49.462	118.427	
121.00	-48.549	129.751	
122.00	-47.944	145.136	
123.00	-47.401	161.063	
124.00	-47.162	176.898	
125.00	-47.108	-166.409	
126.00	-47.508	-150.529	
127.00	-48.407	-136.147	
128.00	-49.812	-125.293	
129.00	-52.711	-119.266	
130.00	-57.456	-129.603	
131.00	-57.689	179.723	
132.00	-52.389	161.116	
133.00	-48.296	165.923	
134.00	-45.707	175.040	
135.00	-43.861	-173.346	
136.00	-42.721	-160.895	
137.00	-42.094	-148.022	
138.00	-42.087	-135.604	
139.00	-42.675	-122.758	
140.00	-44.003	-110.036	
141.00	-46.278	-97.504	
142.00	-50.203	-84.028	
143.00	-58.483	-69.068	
144.00	-63.624	113.672	
145.00	-52.640	129.594	
146.00	-48.661	143.387	
147.00	-46.549	156.497	
148.00	-45.329	169.054	
149.00	-44.904	-178.818	
150.00	-44.855	-167.600	
151.00	-45.290	-157.809	
152.00	-46.112	-148.359	
153.00	-47.175	-140.975	
154.00	-48.599	-135.689	
155.00	-49.966	-132.559	
156.00	-51.373	-133.971	
157.00	-52.914	-140.378	
158.00	-53.855	-151.244	
159.00	-53.858	-169.721	
160.00	-52.686	171.196	
161.00	-50.791	160.033	
162.00	-49.094	152.894	
163.00	-47.935	149.826	
164.00	-47.533	151.046	
165.00	-48.274	155.358	
166.00	-50.313	163.517	
167.00	-53.978	-169.493	
168.00	-53.977	-112.185	
169.00	-48.871	-79.945	
170.00	-45.226	-73.524	
171.00	-42.897	-74.520	
172.00	-41.494	-83.033	
173.00	-40.265	-96.702	
174.00	-38.580	-113.734	
175.00	-36.310	-129.872	
176.00	-33.859	-141.381	
177.00	-31.611	-149.370	
178.00	-29.867	-154.280	
179.00	-28.589	-157.524	
180.00	-27.798	-159.427	
181.00	-27.508	-160.561	
182.00	-27.731	-160.838	
183.00	-28.453	-160.130	
184.00	-29.746	-158.253	
185.00	-31.583	-154.668	
186.00	-34.039	-148.307	
187.00	-37.033	-136.288	
188.00	-39.963	-117.007	
189.00	-41.953	-92.275	
190.00	-42.963	-71.739	
191.00	-44.190	-57.498	
192.00	-46.629	-45.327	
193.00	-50.222	-28.202	
194.00	-54.277	12.076	
195.00	-53.387	53.494	
196.00	-52.000	68.175	
197.00	-53.107	67.369	
198.00	-57.974	48.218	
199.00	-59.413	-50.813	
200.00	-50.918	-87.281	
201.00	-46.701	-100.029	
202.00	-44.582	-110.537	
203.00	-43.859	-120.957	
204.00	-44.334	-133.748	
205.00	-46.206	-150.729	
206.00	-49.183	-179.862	
207.00	-50.937	124.981	
208.00	-47.507	78.375	
209.00	-44.040	53.368	
210.00	-41.873	37.943	
211.00	-40.686	26.149	
212.00	-40.318	16.037	
213.00	-40.724	7.894	
214.00	-41.851	1.975	
215.00	-43.782	0.215	
216.00	-46.445	6.769	
217.00	-48.737	27.748	
218.00	-47.870	55.494	
219.00	-45.601	68.300	
220.00	-43.790	70.064	
221.00	-42.656	67.200	
222.00	-42.226	61.685	
223.00	-42.371	56.111	
224.00	-43.014	49.106	
225.00	-44.008	41.334	
226.00	-45.311	32.819	
227.00	-47.010	23.501	
228.00	-48.848	14.324	
229.00	-50.937	3.047	
230.00	-53.301	-8.976	
231.00	-55.643	-21.943	
232.00	-58.426	-35.271	
233.00	-61.586	-45.861	
234.00	-66.842	-51.568	
235.00	-73.051	-27.854	
236.00	-70.786	21.952	
237.00	-65.339	28.767	
238.00	-62.509	19.102	
239.00	-60.064	1.868	
240.00	-58.642	-14.635	
241.00	-57.762	-35.143	
242.00	-56.919	-53.803	
243.00	-56.381	-78.380	
244.00	-55.977	-99.683	
245.00	-55.686	-119.416	
246.00	-55.158	-140.682	
247.00	-55.171	-161.805	
248.00	-55.375	176.943	
249.00	-55.487	157.524	
250.00	-55.729	136.752	
251.00	-56.199	116.117	
252.00	-56.825	97.074	
253.00	-57.993	77.258	
254.00	-58.653	58.380	
255.00	-59.721	35.618	
256.00	-60.853	15.675	
257.00	-62.099	-11.967	
258.00	-62.463	-36.433	
259.00	-61.949	-53.310	
260.00	-62.622	-65.908	
261.00	-63.136	-83.913	
262.00	-63.985	-94.885	
263.00	-65.213	-110.092	
264.00	-67.015	-131.318	
265.00	-68.272	-157.234	
266.00	-68.920	172.271	
267.00	-67.444	148.726	
268.00	-66.528	127.330	
269.00	-66.226	106.823	
270.00	-66.446	98.176	
271.00	-66.763	84.520	
272.00	-68.151	67.148	
273.00	-69.960	50.607	
274.00	-72.363	22.294	
275.00	-74.544	-30.966	
276.00	-73.115	-70.987	
277.00	-69.815	-96.218	
278.00	-68.069	-113.691	
279.00	-68.141	-134.057	
280.00	-67.751	-156.428	
281.00	-67.942	-175.312	
282.00	-68.448	163.492	
283.00	-69.175	138.474	
284.00	-68.565	121.595	
285.00	-69.906	103.971	
286.00	-71.917	94.303	
287.00	-77.322	96.039	
288.00	-79.915	123.928	
289.00	-77.144	145.134	
290.00	-72.833	165.066	
291.00	-69.113	152.993	
292.00	-66.616	141.279	
293.00	-64.317	125.133	
294.00	-62.811	113.854	
295.00	-61.737	101.834	
296.00	-60.907	91.372	
297.00	-60.764	80.178	
298.00	-61.465	71.837	
299.00	-62.271	60.823	
300.00	-63.489	50.155	
301.00	-65.691	37.335	
302.00	-68.372	33.802	
303.00	-73.826	25.359	
304.00	-77.750	79.608	
305.00	-72.366	134.930	
306.00	-68.383	132.855	
307.00	-64.976	126.569	
308.00	-63.912	118.015	
309.00	-62.702	110.595	
310.00	-62.702	102.220	
311.00	-64.139	94.953	
312.00	-66.722	90.985	
313.00	-68.890	94.519	
314.00	-73.029	102.386	
315.00	-74.610	137.148	
316.00	-72.570	155.567	
317.00	-68.830	156.727	
318.00	-66.912	142.242	
319.00	-65.501	133.706	
320.00	-64.874	122.181	
321.00	-64.486	115.207	
322.00	-64.297	99.087	
323.00	-64.700	97.768	
324.00	-65.584	100.605	
325.00	-66.619	107.648	
326.00	-67.017	125.098	
327.00	-65.994	134.032	
328.00	-64.382	143.421	
329.00	-64.165	144.659	
330.00	-63.415	144.566	
331.00	-64.146	142.924	
332.00	-65.300	143.079	
333.00	-67.498	134.206	
334.00	-69.054	141.579	
335.00	-75.679	141.140	
336.00	-72.262	-179.828	
337.00	-69.210	-167.563	
338.00	-67.943	-173.488	
339.00	-66.164	-179.837	
340.00	-65.514	178.824	
341.00	-64.550	174.783	
342.00	-64.261	172.780	
343.00	-63.643	179.465	
344.00	-62.586	-178.362	
345.00	-62.051	-172.275	
346.00	-61.701	-166.872	
347.00	-62.102	-166.091	
348.00	-62.679	-162.085	
349.00	-64.096	-161.157	
350.00	-66.241	-153.725	
351.00	-67.542	-140.833	
352.00	-69.043	-122.065	
353.00	-69.429	-106.297	
354.00	-69.304	-92.568	
355.00	-69.424	-93.296	
356.00	-68.880	-94.371	
357.00	-70.941	-98.340	
358.00	-72.992	-98.671	
359.00	-76.387	-87.253	
Frequency	2496.00	MHz	
Channel	test		
Scan Axis name	Azimuth  [deg]		
Scan Axis	Amplitude	Phase	
			
0.00	-64.038	128.356	
1.00	-64.487	118.187	
2.00	-64.373	126.946	
3.00	-67.052	124.076	
4.00	-65.083	140.484	
5.00	-69.842	151.332	
6.00	-69.530	-177.682	
7.00	-69.634	-162.744	
8.00	-68.710	-135.843	
9.00	-66.958	-119.695	
10.00	-65.957	-115.974	
11.00	-64.804	-113.110	
12.00	-65.455	-102.662	
13.00	-65.330	-100.582	
14.00	-66.593	-96.805	
15.00	-66.934	-100.499	
16.00	-67.381	-100.386	
17.00	-70.370	-101.030	
18.00	-69.366	-135.327	
19.00	-69.579	-135.658	
20.00	-69.650	-138.933	
21.00	-73.623	-146.832	
22.00	-73.928	-92.101	
23.00	-82.500	-85.481	
24.00	-67.275	-16.799	
25.00	-64.783	-15.561	
26.00	-62.996	-13.015	
27.00	-63.177	-6.423	
28.00	-64.581	-4.626	
29.00	-62.939	-0.656	
30.00	-64.998	-16.139	
31.00	-65.300	-30.012	
32.00	-66.613	-43.674	
33.00	-68.244	-73.362	
34.00	-67.396	-81.591	
35.00	-66.748	-90.483	
36.00	-65.610	-95.952	
37.00	-66.208	-99.490	
38.00	-63.962	-89.440	
39.00	-64.859	-78.566	
40.00	-64.989	-77.349	
41.00	-64.769	-63.381	
42.00	-67.194	-49.200	
43.00	-69.131	-53.982	
44.00	-66.091	-36.716	
45.00	-66.138	-30.379	
46.00	-66.644	-14.422	
47.00	-67.937	-6.281	
48.00	-70.862	5.204	
49.00	-72.938	25.259	
50.00	-75.857	-4.594	
51.00	-74.338	-12.411	
52.00	-72.092	-16.947	
53.00	-69.749	13.717	
54.00	-66.092	42.111	
55.00	-65.077	48.518	
56.00	-62.479	65.935	
57.00	-60.512	87.228	
58.00	-63.279	104.527	
59.00	-63.557	113.005	
60.00	-65.237	121.574	
61.00	-66.539	139.503	
62.00	-69.619	141.964	
63.00	-71.920	-161.629	
64.00	-74.215	-153.963	
65.00	-74.375	-117.069	
66.00	-80.744	-125.869	
67.00	-72.491	-78.870	
68.00	-78.267	-49.937	
69.00	-78.576	3.887	
70.00	-70.408	44.013	
71.00	-68.180	48.545	
72.00	-67.480	69.377	
73.00	-64.841	81.933	
74.00	-64.857	106.275	
75.00	-65.735	133.930	
76.00	-65.988	170.222	
77.00	-64.038	-169.579	
78.00	-65.699	-152.122	
79.00	-65.167	-118.652	
80.00	-65.179	-101.705	
81.00	-65.721	-65.379	
82.00	-68.046	-34.656	
83.00	-66.178	10.527	
84.00	-66.637	42.446	
85.00	-62.912	68.395	
86.00	-62.137	98.015	
87.00	-61.868	119.449	
88.00	-60.201	139.260	
89.00	-58.998	123.576	
90.00	-59.896	170.621	
91.00	-59.191	-166.586	
92.00	-60.069	-154.995	
93.00	-61.216	-128.796	
94.00	-61.284	-111.582	
95.00	-62.352	-91.218	
96.00	-63.279	-61.589	
97.00	-63.438	-30.343	
98.00	-63.106	-11.405	
99.00	-62.957	8.601	
100.00	-64.749	10.580	
101.00	-66.229	32.205	
102.00	-66.951	40.614	
103.00	-71.075	78.645	
104.00	-76.518	70.995	
105.00	-73.131	137.333	
106.00	-69.626	162.690	
107.00	-67.396	166.273	
108.00	-66.364	177.775	
109.00	-63.524	-168.370	
110.00	-63.789	-178.716	
111.00	-62.605	-175.104	
112.00	-63.560	168.202	
113.00	-63.468	162.581	
114.00	-62.363	153.988	
115.00	-59.540	133.392	
116.00	-57.631	135.110	
117.00	-55.776	140.367	
118.00	-53.714	152.788	
119.00	-52.364	166.599	
120.00	-51.440	-178.276	
121.00	-50.513	-159.742	
122.00	-49.643	-142.162	
123.00	-49.273	-123.787	
124.00	-49.271	-106.803	
125.00	-49.436	-87.060	
126.00	-50.339	-69.713	
127.00	-50.681	-56.501	
128.00	-54.269	-30.283	
129.00	-57.756	10.444	
130.00	-65.054	79.311	
131.00	-57.101	166.365	
132.00	-51.388	-163.461	
133.00	-47.776	-145.018	
134.00	-45.365	-128.600	
135.00	-43.882	-111.791	
136.00	-42.781	-95.544	
137.00	-42.138	-79.890	
138.00	-42.232	-65.891	
139.00	-42.727	-48.427	
140.00	-43.869	-31.772	
141.00	-45.463	-13.737	
142.00	-48.217	8.720	
143.00	-51.732	40.583	
144.00	-54.928	95.440	
145.00	-52.227	152.365	
146.00	-48.404	-177.181	
147.00	-46.317	-157.730	
148.00	-45.110	-142.865	
149.00	-44.467	-129.809	
150.00	-44.329	-116.724	
151.00	-44.811	-104.202	
152.00	-45.205	-89.488	
153.00	-46.209	-75.463	
154.00	-47.168	-61.741	
155.00	-48.439	-46.026	
156.00	-50.034	-31.180	
157.00	-52.669	-16.810	
158.00	-56.553	4.349	
159.00	-64.097	69.789	
160.00	-57.157	152.064	
161.00	-51.108	173.473	
162.00	-47.301	-176.188	
163.00	-45.065	-168.164	
164.00	-43.712	-161.411	
165.00	-43.123	-155.406	
166.00	-43.378	-149.892	
167.00	-44.291	-142.974	
168.00	-46.138	-134.301	
169.00	-48.909	-118.796	
170.00	-51.653	-93.582	
171.00	-51.210	-60.757	
172.00	-48.903	-48.826	
173.00	-46.299	-54.699	
174.00	-43.341	-66.186	
175.00	-40.311	-77.211	
176.00	-37.449	-86.274	
177.00	-35.054	-92.595	
178.00	-33.244	-96.758	
179.00	-31.862	-99.698	
180.00	-31.107	-102.134	
181.00	-30.856	-103.986	
182.00	-31.159	-105.331	
183.00	-32.035	-106.458	
184.00	-33.566	-106.627	
185.00	-35.793	-105.688	
186.00	-38.833	-103.186	
187.00	-42.929	-94.836	
188.00	-48.065	-77.433	
189.00	-52.352	-42.270	
190.00	-54.071	-12.083	
191.00	-57.638	6.682	
192.00	-69.334	74.487	
193.00	-56.068	160.907	
194.00	-50.957	161.690	
195.00	-48.963	157.065	
196.00	-48.536	146.052	
197.00	-49.513	127.464	
198.00	-51.367	97.775	
199.00	-51.563	51.985	
200.00	-49.154	15.422	
201.00	-47.197	-7.884	
202.00	-46.687	-25.503	
203.00	-47.590	-44.528	
204.00	-50.130	-72.045	
205.00	-52.771	-124.825	
206.00	-50.172	179.207	
207.00	-45.785	147.070	
208.00	-43.230	128.646	
209.00	-41.711	113.527	
210.00	-41.248	100.544	
211.00	-41.654	87.682	
212.00	-42.854	74.357	
213.00	-45.310	61.159	
214.00	-49.827	45.232	
215.00	-59.584	16.039	
216.00	-57.747	-130.972	
217.00	-50.117	-160.431	
218.00	-46.685	-177.501	
219.00	-44.838	167.464	
220.00	-43.961	152.128	
221.00	-43.544	137.358	
222.00	-43.638	121.957	
223.00	-44.070	107.455	
224.00	-44.945	92.951	
225.00	-46.110	78.521	
226.00	-47.717	63.953	
227.00	-49.546	50.054	
228.00	-52.092	34.288	
229.00	-55.032	15.182	
230.00	-58.662	-11.431	
231.00	-61.858	-52.405	
232.00	-61.568	-101.118	
233.00	-60.180	-136.381	
234.00	-58.411	-162.042	
235.00	-57.471	173.708	
236.00	-56.401	146.456	
237.00	-55.393	121.521	
238.00	-54.411	95.352	
239.00	-52.861	72.318	
240.00	-51.784	49.984	
241.00	-51.064	29.978	
242.00	-50.529	11.256	
243.00	-50.190	-8.299	
244.00	-50.382	-27.944	
245.00	-50.692	-48.911	
246.00	-50.969	-69.818	
247.00	-51.526	-92.978	
248.00	-51.790	-116.564	
249.00	-52.425	-140.787	
250.00	-52.732	-165.193	
251.00	-52.715	173.315	
252.00	-52.745	151.008	
253.00	-53.244	132.154	
254.00	-53.606	115.381	
255.00	-54.649	96.584	
256.00	-55.672	79.125	
257.00	-56.825	61.782	
258.00	-58.387	40.457	
259.00	-59.151	20.084	
260.00	-59.827	-1.075	
261.00	-61.634	-25.594	
262.00	-62.246	-44.149	
263.00	-62.817	-62.613	
264.00	-63.711	-84.657	
265.00	-64.647	-114.798	
266.00	-63.548	-129.646	
267.00	-63.247	-156.088	
268.00	-63.416	178.887	
269.00	-63.322	161.836	
270.00	-62.788	139.973	
271.00	-61.596	112.316	
272.00	-61.302	92.516	
273.00	-60.037	75.446	
274.00	-59.685	57.877	
275.00	-60.020	46.288	
276.00	-60.691	34.003	
277.00	-62.197	12.726	
278.00	-63.845	-2.494	
279.00	-65.542	-19.683	
280.00	-66.998	-52.516	
281.00	-68.902	-72.802	
282.00	-70.991	-94.988	
283.00	-74.470	-106.998	
284.00	-78.547	-156.793	
285.00	-86.381	110.080	
286.00	-78.264	47.092	
287.00	-69.843	15.213	
288.00	-68.735	3.185	
289.00	-67.667	-27.135	
290.00	-69.867	-35.566	
291.00	-71.717	-62.346	
292.00	-69.780	-112.783	
293.00	-67.720	-125.536	
294.00	-66.783	-164.279	
295.00	-66.315	-173.699	
296.00	-65.088	167.826	
297.00	-66.034	148.296	
298.00	-63.184	135.153	
299.00	-63.594	118.116	
300.00	-65.004	110.795	
301.00	-65.668	104.867	
302.00	-65.598	76.893	
303.00	-67.306	72.172	
304.00	-69.258	61.896	
305.00	-69.543	50.234	
306.00	-72.571	47.164	
307.00	-76.264	52.725	
308.00	-76.389	100.764	
309.00	-75.797	133.629	
310.00	-74.097	138.371	
311.00	-72.656	131.756	
312.00	-72.317	108.915	
313.00	-73.565	78.361	
314.00	-70.041	41.955	
315.00	-68.856	19.784	
316.00	-67.148	5.464	
317.00	-66.299	-6.336	
318.00	-66.102	-20.291	
319.00	-67.885	-29.749	
320.00	-70.389	-31.802	
321.00	-74.161	-58.819	
322.00	-81.005	-116.235	
323.00	-82.806	-141.028	
324.00	-77.092	168.253	
325.00	-77.996	131.220	
326.00	-85.090	133.215	
327.00	-91.529	125.968	
328.00	-87.089	77.702	
329.00	-78.955	116.917	
330.00	-84.321	92.525	
331.00	-79.054	90.429	
332.00	-78.044	77.722	
333.00	-74.304	57.459	
334.00	-70.269	43.310	
335.00	-69.835	24.029	
336.00	-71.731	8.690	
337.00	-72.677	-25.911	
338.00	-73.164	-56.134	
339.00	-70.907	-86.044	
340.00	-68.889	-103.211	
341.00	-69.621	-112.984	
342.00	-71.309	-119.245	
343.00	-77.590	-126.062	
344.00	-82.913	-94.524	
345.00	-78.086	-10.090	
346.00	-71.146	1.214	
347.00	-67.637	-13.914	
348.00	-64.979	-18.303	
349.00	-64.726	-20.439	
350.00	-64.691	-28.113	
351.00	-65.993	-23.051	
352.00	-68.631	-30.253	
353.00	-78.990	-28.253	
354.00	-86.657	159.064	
355.00	-72.598	152.401	
356.00	-66.534	137.899	
357.00	-63.614	132.402	
358.00	-62.357	119.433	
359.00	-62.456	124.751	
Frequency	2550.00	MHz	
Channel	test		
Scan Axis name	Azimuth  [deg]		
Scan Axis	Amplitude	Phase	
			
0.00	-75.772	139.375	
1.00	-84.211	157.469	
2.00	-78.073	6.776	
3.00	-70.957	-15.773	
4.00	-71.014	5.162	
5.00	-68.671	1.877	
6.00	-66.753	0.784	
7.00	-63.033	5.723	
8.00	-64.485	-1.322	
9.00	-64.043	17.866	
10.00	-65.034	25.341	
11.00	-66.308	24.337	
12.00	-68.805	39.576	
13.00	-70.889	41.722	
14.00	-70.923	42.726	
15.00	-74.097	39.842	
16.00	-75.377	8.434	
17.00	-75.787	-6.162	
18.00	-71.239	-20.464	
19.00	-71.698	16.148	
20.00	-70.023	4.936	
21.00	-68.902	34.504	
22.00	-67.531	62.126	
23.00	-67.163	55.055	
24.00	-67.983	65.526	
25.00	-70.096	85.866	
26.00	-72.142	72.201	
27.00	-73.976	77.147	
28.00	-72.161	101.051	
29.00	-72.751	88.406	
30.00	-71.921	94.035	
31.00	-70.815	80.392	
32.00	-68.285	83.069	
33.00	-66.230	80.759	
34.00	-67.273	84.810	
35.00	-69.742	86.150	
36.00	-70.541	80.314	
37.00	-69.728	61.260	
38.00	-73.751	53.677	
39.00	-69.560	30.256	
40.00	-68.075	28.247	
41.00	-68.581	23.545	
42.00	-67.349	25.462	
43.00	-66.223	28.068	
44.00	-66.494	44.699	
45.00	-65.590	30.296	
46.00	-68.333	41.699	
47.00	-68.316	69.210	
48.00	-73.317	63.403	
49.00	-76.507	69.866	
50.00	-80.878	79.114	
51.00	-81.735	50.491	
52.00	-73.519	54.519	
53.00	-70.585	72.804	
54.00	-67.510	89.911	
55.00	-65.280	100.846	
56.00	-64.959	118.318	
57.00	-65.374	127.944	
58.00	-68.938	135.492	
59.00	-71.775	163.279	
60.00	-80.840	-145.834	
61.00	-79.823	-26.140	
62.00	-70.937	13.604	
63.00	-70.762	20.099	
64.00	-68.289	30.980	
65.00	-69.986	41.166	
66.00	-67.981	56.106	
67.00	-68.639	53.135	
68.00	-68.909	65.075	
69.00	-68.377	76.634	
70.00	-68.487	84.097	
71.00	-68.339	109.924	
72.00	-68.470	130.088	
73.00	-68.279	148.991	
74.00	-68.414	174.047	
75.00	-68.429	-155.894	
76.00	-70.405	-135.954	
77.00	-69.622	-105.990	
78.00	-69.837	-73.811	
79.00	-66.380	-22.793	
80.00	-65.021	-5.698	
81.00	-62.032	31.833	
82.00	-63.778	42.279	
83.00	-59.978	70.719	
84.00	-68.385	77.766	
85.00	-63.372	102.758	
86.00	-64.233	120.754	
87.00	-61.893	-178.959	
88.00	-66.458	-178.998	
89.00	-62.523	-141.959	
90.00	-66.075	-91.478	
91.00	-66.938	-104.614	
92.00	-69.231	-84.342	
93.00	-69.532	-56.611	
94.00	-72.204	-30.485	
95.00	-70.832	36.281	
96.00	-70.673	79.805	
97.00	-66.350	93.510	
98.00	-65.431	113.996	
99.00	-63.399	130.470	
100.00	-63.260	149.171	
101.00	-63.327	169.823	
102.00	-64.757	178.674	
103.00	-65.675	-168.368	
104.00	-68.189	-164.768	
105.00	-68.406	-173.627	
106.00	-68.579	174.808	
107.00	-68.406	165.704	
108.00	-64.654	165.164	
109.00	-62.861	174.160	
110.00	-60.727	-179.510	
111.00	-59.869	-170.063	
112.00	-59.491	-162.782	
113.00	-59.364	-156.086	
114.00	-59.202	-151.063	
115.00	-60.706	-151.798	
116.00	-60.573	-147.398	
117.00	-59.530	-153.150	
118.00	-58.077	-140.651	
119.00	-56.549	-131.729	
120.00	-54.431	-113.747	
121.00	-52.780	-99.989	
122.00	-51.193	-83.264	
123.00	-50.227	-67.796	
124.00	-50.013	-51.051	
125.00	-49.409	-34.343	
126.00	-49.815	-17.065	
127.00	-50.839	0.728	
128.00	-53.211	19.901	
129.00	-57.036	55.400	
130.00	-65.273	111.353	
131.00	-60.748	-137.791	
132.00	-52.859	-108.968	
133.00	-48.804	-87.594	
134.00	-46.083	-68.790	
135.00	-44.084	-52.411	
136.00	-42.980	-35.427	
137.00	-42.330	-20.385	
138.00	-42.107	-4.490	
139.00	-42.437	10.799	
140.00	-43.322	27.342	
141.00	-45.085	42.361	
142.00	-48.041	59.244	
143.00	-53.122	85.127	
144.00	-59.102	161.750	
145.00	-53.355	-130.701	
146.00	-48.677	-107.078	
147.00	-46.577	-91.483	
148.00	-45.139	-80.192	
149.00	-44.521	-67.718	
150.00	-44.738	-56.152	
151.00	-45.262	-45.721	
152.00	-46.094	-32.308	
153.00	-47.144	-19.517	
154.00	-48.591	-5.171	
155.00	-50.313	9.392	
156.00	-52.548	25.862	
157.00	-56.095	47.879	
158.00	-63.381	91.462	
159.00	-60.623	-166.520	
160.00	-53.548	-137.929	
161.00	-49.226	-120.571	
162.00	-46.312	-110.117	
163.00	-44.430	-101.125	
164.00	-43.285	-92.769	
165.00	-42.895	-84.876	
166.00	-43.070	-76.545	
167.00	-43.716	-66.850	
168.00	-44.924	-53.015	
169.00	-45.921	-35.818	
170.00	-45.917	-17.610	
171.00	-44.604	-4.680	
172.00	-42.560	-0.227	
173.00	-40.675	-3.705	
174.00	-38.326	-10.380	
175.00	-36.043	-17.312	
176.00	-33.879	-23.403	
177.00	-32.014	-27.980	
178.00	-30.613	-31.655	
179.00	-29.615	-34.575	
180.00	-29.085	-36.964	
181.00	-29.054	-39.048	
182.00	-29.560	-40.587	
183.00	-30.573	-41.607	
184.00	-32.238	-41.813	
185.00	-34.580	-40.719	
186.00	-37.776	-37.535	
187.00	-42.118	-28.575	
188.00	-46.793	-6.789	
189.00	-49.943	26.304	
190.00	-51.344	48.020	
191.00	-54.546	53.837	
192.00	-64.344	31.219	
193.00	-59.681	-97.620	
194.00	-53.144	-110.979	
195.00	-50.677	-120.923	
196.00	-51.970	-130.975	
197.00	-57.056	-157.116	
198.00	-59.261	99.656	
199.00	-50.493	59.576	
200.00	-46.374	45.489	
201.00	-44.385	33.334	
202.00	-43.852	20.492	
203.00	-44.797	5.747	
204.00	-47.313	-16.160	
205.00	-50.666	-62.269	
206.00	-49.076	-121.357	
207.00	-44.615	-155.882	
208.00	-41.943	-174.833	
209.00	-40.465	170.348	
210.00	-40.014	157.434	
211.00	-40.352	145.182	
212.00	-41.596	132.845	
213.00	-43.909	120.312	
214.00	-47.753	106.723	
215.00	-55.351	89.704	
216.00	-63.301	-65.648	
217.00	-51.755	-100.387	
218.00	-48.293	-116.808	
219.00	-46.443	-131.593	
220.00	-45.535	-147.833	
221.00	-45.083	-162.575	
222.00	-45.121	-177.314	
223.00	-45.496	169.542	
224.00	-46.232	157.995	
225.00	-47.335	147.195	
226.00	-48.808	137.485	
227.00	-50.451	128.047	
228.00	-52.582	117.465	
229.00	-55.108	107.878	
230.00	-57.472	96.750	
231.00	-60.541	84.624	
232.00	-65.480	81.798	
233.00	-72.735	122.597	
234.00	-66.404	177.479	
235.00	-60.899	172.865	
236.00	-57.459	163.713	
237.00	-54.945	152.645	
238.00	-53.436	134.698	
239.00	-52.058	116.902	
240.00	-51.551	99.923	
241.00	-50.872	82.519	
242.00	-50.654	62.389	
243.00	-50.501	47.324	
244.00	-50.808	27.502	
245.00	-51.350	8.672	
246.00	-51.725	-12.022	
247.00	-52.461	-31.952	
248.00	-53.263	-53.057	
249.00	-53.745	-73.712	
250.00	-54.035	-94.597	
251.00	-54.497	-113.596	
252.00	-54.694	-132.320	
253.00	-54.906	-148.245	
254.00	-55.193	-162.492	
255.00	-55.552	-175.103	
256.00	-55.592	172.852	
257.00	-56.436	159.723	
258.00	-56.420	146.359	
259.00	-56.876	130.340	
260.00	-57.818	118.113	
261.00	-58.388	98.667	
262.00	-59.965	78.799	
263.00	-61.515	57.716	
264.00	-62.063	29.272	
265.00	-64.021	-4.282	
266.00	-63.743	-37.844	
267.00	-62.633	-72.061	
268.00	-61.223	-103.112	
269.00	-59.585	-123.995	
270.00	-59.057	-143.932	
271.00	-58.496	-161.191	
272.00	-58.264	179.936	
273.00	-58.519	162.047	
274.00	-58.887	140.978	
275.00	-59.509	122.860	
276.00	-60.273	106.767	
277.00	-61.774	90.318	
278.00	-63.634	67.027	
279.00	-69.200	52.661	
280.00	-74.769	-0.164	
281.00	-74.274	-109.721	
282.00	-69.944	-139.059	
283.00	-66.036	-153.955	
284.00	-65.931	-174.937	
285.00	-65.201	173.097	
286.00	-65.938	148.826	
287.00	-66.379	112.706	
288.00	-67.402	90.096	
289.00	-69.411	73.231	
290.00	-73.013	51.322	
291.00	-80.140	-1.801	
292.00	-76.959	-87.749	
293.00	-70.518	-125.467	
294.00	-69.653	-125.930	
295.00	-66.526	-147.617	
296.00	-70.741	-144.991	
297.00	-74.112	-157.187	
298.00	-73.061	-137.861	
299.00	-74.027	-118.644	
300.00	-73.640	-101.251	
301.00	-71.960	-99.826	
302.00	-72.153	-107.654	
303.00	-71.872	-129.076	
304.00	-71.781	-127.119	
305.00	-73.212	-91.157	
306.00	-80.576	-105.885	
307.00	-79.255	-96.648	
308.00	-71.057	-93.414	
309.00	-67.720	-94.115	
310.00	-64.894	-101.745	
311.00	-63.278	-108.709	
312.00	-61.852	-116.454	
313.00	-61.751	-121.444	
314.00	-61.783	-124.950	
315.00	-62.199	-129.767	
316.00	-62.622	-130.602	
317.00	-63.422	-125.981	
318.00	-64.112	-124.607	
319.00	-64.182	-124.721	
320.00	-63.159	-116.735	
321.00	-64.011	-116.783	
322.00	-63.631	-118.737	
323.00	-63.861	-115.868	
324.00	-64.149	-118.093	
325.00	-65.744	-119.449	
326.00	-68.260	-118.249	
327.00	-71.948	-93.912	
328.00	-69.377	-76.481	
329.00	-69.457	-66.808	
330.00	-69.581	-60.882	
331.00	-70.540	-67.993	
332.00	-71.853	-76.095	
333.00	-76.214	-80.177	
334.00	-83.459	-29.673	
335.00	-80.227	31.887	
336.00	-76.633	36.790	
337.00	-76.209	25.733	
338.00	-77.013	-5.903	
339.00	-80.360	-32.247	
340.00	-78.247	-99.643	
341.00	-74.669	-129.470	
342.00	-71.232	-143.150	
343.00	-71.163	-172.250	
344.00	-71.057	161.856	
345.00	-71.313	135.509	
346.00	-70.058	116.595	
347.00	-68.817	75.584	
348.00	-69.035	45.629	
349.00	-67.161	21.700	
350.00	-66.755	-4.927	
351.00	-65.793	-25.388	
352.00	-66.954	-47.442	
353.00	-68.262	-81.504	
354.00	-68.092	-96.385	
355.00	-68.274	-109.849	
356.00	-67.985	-136.661	
357.00	-71.323	-152.202	
358.00	-71.985	-162.681	
359.00	-75.625	176.365	
Frequency	2600.00	MHz	
Channel	test		
Scan Axis name	Azimuth  [deg]		
Scan Axis	Amplitude	Phase	
			
0.00	-68.817	153.564	
1.00	-69.365	140.519	
2.00	-71.238	121.247	
3.00	-72.944	99.336	
4.00	-72.589	50.774	
5.00	-69.364	14.377	
6.00	-69.155	15.330	
7.00	-69.156	-8.998	
8.00	-71.151	-15.758	
9.00	-74.880	-11.702	
10.00	-77.766	-76.722	
11.00	-78.818	-106.268	
12.00	-71.924	-120.116	
13.00	-70.902	-103.178	
14.00	-68.656	-86.668	
15.00	-67.319	-73.025	
16.00	-66.238	-54.108	
17.00	-65.411	-35.800	
18.00	-65.147	-19.494	
19.00	-65.250	-3.916	
20.00	-66.546	18.451	
21.00	-67.525	57.045	
22.00	-66.462	72.510	
23.00	-65.606	87.851	
24.00	-67.724	88.437	
25.00	-69.956	79.142	
26.00	-70.080	62.999	
27.00	-68.980	56.656	
28.00	-68.019	51.066	
29.00	-67.441	44.939	
30.00	-67.032	52.370	
31.00	-68.872	57.738	
32.00	-75.211	70.604	
33.00	-76.604	91.213	
34.00	-76.256	174.008	
35.00	-72.842	-134.338	
36.00	-67.824	-113.599	
37.00	-67.138	-97.619	
38.00	-67.220	-92.820	
39.00	-65.896	-101.266	
40.00	-67.802	-104.458	
41.00	-66.542	-131.017	
42.00	-64.843	-147.969	
43.00	-62.870	-155.446	
44.00	-61.466	-155.690	
45.00	-60.269	-160.431	
46.00	-60.130	-157.934	
47.00	-60.539	-157.327	
48.00	-61.219	-159.068	
49.00	-61.851	-159.576	
50.00	-62.820	-155.773	
51.00	-64.669	-154.205	
52.00	-64.821	-159.155	
53.00	-65.203	-159.875	
54.00	-65.777	-159.322	
55.00	-64.563	-140.630	
56.00	-64.121	-123.352	
57.00	-64.458	-118.300	
58.00	-64.025	-105.388	
59.00	-63.948	-93.726	
60.00	-65.623	-80.470	
61.00	-64.638	-68.608	
62.00	-65.677	-63.174	
63.00	-65.399	-52.358	
64.00	-65.483	-40.342	
65.00	-66.211	-24.879	
66.00	-65.626	-11.475	
67.00	-65.811	11.781	
68.00	-66.236	32.879	
69.00	-65.644	51.221	
70.00	-65.799	69.720	
71.00	-66.278	87.885	
72.00	-66.547	107.907	
73.00	-68.654	134.820	
74.00	-72.052	147.431	
75.00	-74.949	171.767	
76.00	-86.471	-118.373	
77.00	-80.351	-4.623	
78.00	-72.935	25.893	
79.00	-69.947	27.586	
80.00	-67.734	51.346	
81.00	-65.977	68.067	
82.00	-66.675	81.474	
83.00	-67.736	104.523	
84.00	-69.290	126.094	
85.00	-69.540	161.110	
86.00	-70.087	-165.622	
87.00	-67.665	-140.530	
88.00	-67.813	-109.210	
89.00	-67.874	-71.074	
90.00	-67.229	-46.399	
91.00	-67.242	-12.439	
92.00	-64.034	9.760	
93.00	-62.847	26.889	
94.00	-62.319	46.148	
95.00	-62.948	61.899	
96.00	-62.874	75.727	
97.00	-65.433	101.630	
98.00	-68.050	136.724	
99.00	-68.947	-169.183	
100.00	-67.117	-140.226	
101.00	-64.282	-88.300	
102.00	-62.742	-70.238	
103.00	-62.351	-48.492	
104.00	-62.020	-29.056	
105.00	-61.841	-4.268	
106.00	-62.511	15.700	
107.00	-62.360	31.952	
108.00	-62.951	40.186	
109.00	-64.791	44.734	
110.00	-65.886	31.754	
111.00	-65.322	2.178	
112.00	-61.631	-6.753	
113.00	-58.423	-6.341	
114.00	-55.520	-2.958	
115.00	-54.098	3.103	
116.00	-53.466	10.613	
117.00	-53.107	16.006	
118.00	-52.965	21.907	
119.00	-52.628	23.794	
120.00	-52.371	26.769	
121.00	-51.519	26.941	
122.00	-50.373	32.125	
123.00	-49.254	37.630	
124.00	-47.970	45.740	
125.00	-46.969	57.085	
126.00	-46.266	69.058	
127.00	-46.179	81.851	
128.00	-46.694	94.234	
129.00	-47.824	109.443	
130.00	-49.960	122.907	
131.00	-53.659	137.016	
132.00	-63.044	141.345	
133.00	-60.752	14.161	
134.00	-51.835	19.065	
135.00	-47.606	34.118	
136.00	-44.818	49.445	
137.00	-43.024	64.771	
138.00	-42.040	79.436	
139.00	-41.525	95.087	
140.00	-41.801	111.015	
141.00	-42.731	126.904	
142.00	-44.537	145.546	
143.00	-47.184	168.742	
144.00	-50.933	-153.523	
145.00	-52.258	-94.689	
146.00	-49.327	-49.094	
147.00	-46.454	-22.116	
148.00	-44.685	-4.094	
149.00	-43.782	11.271	
150.00	-43.443	25.110	
151.00	-43.612	38.294	
152.00	-44.055	52.186	
153.00	-44.735	65.853	
154.00	-45.547	80.504	
155.00	-46.381	95.259	
156.00	-47.409	108.474	
157.00	-48.865	120.780	
158.00	-51.337	130.878	
159.00	-56.678	134.873	
160.00	-73.758	40.319	
161.00	-53.892	-10.854	
162.00	-47.870	-7.724	
163.00	-44.746	-2.823	
164.00	-42.784	3.186	
165.00	-41.759	9.735	
166.00	-41.809	15.713	
167.00	-42.579	25.036	
168.00	-44.222	36.531	
169.00	-46.198	55.802	
170.00	-46.777	79.988	
171.00	-45.235	97.751	
172.00	-42.879	100.154	
173.00	-40.294	93.713	
174.00	-37.387	84.958	
175.00	-34.521	77.395	
176.00	-32.025	72.517	
177.00	-29.997	69.044	
178.00	-28.548	66.922	
179.00	-27.590	65.530	
180.00	-27.163	64.772	
181.00	-27.277	64.328	
182.00	-27.944	64.613	
183.00	-29.156	65.844	
184.00	-31.062	68.650	
185.00	-33.628	74.087	
186.00	-36.940	84.382	
187.00	-40.534	104.366	
188.00	-42.967	131.744	
189.00	-43.901	155.727	
190.00	-45.026	169.410	
191.00	-47.565	178.394	
192.00	-52.554	-168.489	
193.00	-59.576	-120.838	
194.00	-57.010	-61.178	
195.00	-55.527	-56.429	
196.00	-58.412	-82.506	
197.00	-57.022	-163.903	
198.00	-49.664	163.741	
199.00	-45.374	150.183	
200.00	-43.173	140.579	
201.00	-42.275	131.617	
202.00	-42.703	121.912	
203.00	-44.715	111.286	
204.00	-49.420	94.137	
205.00	-59.030	16.235	
206.00	-48.943	-63.461	
207.00	-43.590	-80.171	
208.00	-40.923	-90.927	
209.00	-39.662	-100.453	
210.00	-39.404	-109.096	
211.00	-39.937	-116.774	
212.00	-41.275	-123.332	
213.00	-43.443	-127.217	
214.00	-46.538	-124.803	
215.00	-50.135	-106.793	
216.00	-50.593	-75.536	
217.00	-48.422	-58.871	
218.00	-46.528	-56.332	
219.00	-45.485	-60.624	
220.00	-45.032	-67.440	
221.00	-45.087	-75.978	
222.00	-45.504	-84.907	
223.00	-46.002	-93.689	
224.00	-46.702	-103.147	
225.00	-47.459	-114.025	
226.00	-48.246	-125.216	
227.00	-48.977	-137.385	
228.00	-49.531	-150.500	
229.00	-50.399	-163.542	
230.00	-51.197	-176.840	
231.00	-52.429	171.798	
232.00	-53.949	164.169	
233.00	-56.027	159.530	
234.00	-58.050	160.709	
235.00	-58.900	171.198	
236.00	-57.801	178.738	
237.00	-55.942	178.253	
238.00	-54.330	168.987	
239.00	-52.865	156.781	
240.00	-51.875	142.942	
241.00	-51.180	129.484	
242.00	-50.819	114.701	
243.00	-50.859	99.065	
244.00	-51.190	83.376	
245.00	-51.764	67.664	
246.00	-52.583	51.203	
247.00	-53.225	34.797	
248.00	-53.874	19.323	
249.00	-54.389	4.357	
250.00	-54.681	-8.240	
251.00	-55.076	-20.180	
252.00	-55.149	-29.843	
253.00	-55.344	-37.875	
254.00	-55.613	-49.534	
255.00	-55.890	-60.829	
256.00	-56.511	-75.763	
257.00	-57.093	-92.762	
258.00	-57.958	-110.980	
259.00	-59.003	-132.700	
260.00	-60.145	-160.455	
261.00	-60.500	168.370	
262.00	-60.490	139.412	
263.00	-59.977	110.096	
264.00	-59.517	84.678	
265.00	-59.065	60.242	
266.00	-59.070	36.716	
267.00	-59.359	13.035	
268.00	-59.587	-10.664	
269.00	-60.157	-36.256	
270.00	-60.502	-61.545	
271.00	-61.053	-87.949	
272.00	-62.494	-114.220	
273.00	-63.199	-146.768	
274.00	-63.103	179.268	
275.00	-62.758	142.925	
276.00	-61.849	117.680	
277.00	-61.749	92.908	
278.00	-61.124	69.378	
279.00	-61.110	44.018	
280.00	-61.504	20.989	
281.00	-61.824	1.188	
282.00	-62.491	-23.125	
283.00	-63.914	-48.963	
284.00	-65.009	-79.543	
285.00	-65.303	-119.065	
286.00	-65.501	-149.447	
287.00	-64.783	169.974	
288.00	-65.333	148.771	
289.00	-65.948	123.951	
290.00	-67.220	99.234	
291.00	-67.815	70.250	
292.00	-70.701	62.119	
293.00	-74.022	68.058	
294.00	-74.968	118.073	
295.00	-68.985	145.882	
296.00	-65.492	145.486	
297.00	-63.454	133.557	
298.00	-62.834	121.980	
299.00	-62.770	104.628	
300.00	-64.011	78.128	
301.00	-63.738	48.084	
302.00	-63.949	17.498	
303.00	-63.243	-3.256	
304.00	-63.529	-19.085	
305.00	-64.952	-29.385	
306.00	-68.176	-30.928	
307.00	-72.568	-10.761	
308.00	-70.908	33.830	
309.00	-67.604	48.163	
310.00	-64.561	45.555	
311.00	-63.026	37.165	
312.00	-62.005	29.976	
313.00	-61.829	25.911	
314.00	-61.588	14.589	
315.00	-62.073	7.995	
316.00	-62.710	0.709	
317.00	-63.399	-9.488	
318.00	-65.054	-17.458	
319.00	-66.765	-15.492	
320.00	-68.831	-14.844	
321.00	-70.626	7.347	
322.00	-70.199	13.449	
323.00	-69.092	17.514	
324.00	-70.278	18.766	
325.00	-69.354	6.945	
326.00	-70.715	15.047	
327.00	-72.093	23.735	
328.00	-73.075	19.064	
329.00	-72.372	46.784	
330.00	-71.243	33.006	
331.00	-72.103	41.544	
332.00	-70.654	42.371	
333.00	-69.499	54.336	
334.00	-68.839	45.688	
335.00	-68.631	44.286	
336.00	-67.764	41.960	
337.00	-70.272	41.640	
338.00	-71.604	44.047	
339.00	-72.014	55.259	
340.00	-71.576	64.182	
341.00	-68.656	55.339	
342.00	-69.432	55.689	
343.00	-68.686	39.817	
344.00	-68.417	20.079	
345.00	-69.536	0.189	
346.00	-69.910	-13.501	
347.00	-71.136	-21.376	
348.00	-71.848	-34.959	
349.00	-73.216	-26.268	
350.00	-73.751	-16.624	
351.00	-71.263	7.887	
352.00	-69.128	9.296	
353.00	-67.466	3.895	
354.00	-68.199	3.034	
355.00	-69.346	-1.743	
356.00	-75.899	4.376	
357.00	-103.141	152.803	
358.00	-81.510	156.024	
359.00	-72.150	149.846	
Frequency	2650.00	MHz	
Channel	test		
Scan Axis name	Azimuth  [deg]		
Scan Axis	Amplitude	Phase	
			
0.00	-64.741	113.995	
1.00	-65.264	133.831	
2.00	-62.343	125.787	
3.00	-64.177	138.326	
4.00	-67.406	160.966	
5.00	-73.400	115.938	
6.00	-77.352	107.831	
7.00	-71.464	10.723	
8.00	-71.256	19.198	
9.00	-71.467	69.153	
10.00	-70.533	114.999	
11.00	-68.133	117.907	
12.00	-67.124	109.318	
13.00	-65.635	150.930	
14.00	-71.480	144.941	
15.00	-68.477	-149.129	
16.00	-72.545	-152.011	
17.00	-67.193	-132.954	
18.00	-69.776	-91.505	
19.00	-64.194	-61.752	
20.00	-70.219	-39.277	
21.00	-75.088	7.872	
22.00	-72.788	37.799	
23.00	-67.260	58.794	
24.00	-67.150	85.449	
25.00	-66.557	79.571	
26.00	-67.344	86.374	
27.00	-67.875	53.422	
28.00	-66.898	61.738	
29.00	-67.350	48.949	
30.00	-70.213	28.143	
31.00	-76.338	29.991	
32.00	-79.469	-70.068	
33.00	-74.559	-85.358	
34.00	-68.826	-101.223	
35.00	-66.557	-88.470	
36.00	-64.921	-81.231	
37.00	-65.913	-79.776	
38.00	-67.337	-53.887	
39.00	-66.178	-37.949	
40.00	-66.818	-7.161	
41.00	-65.511	30.149	
42.00	-63.824	57.896	
43.00	-64.493	76.685	
44.00	-63.433	93.592	
45.00	-65.939	117.694	
46.00	-67.814	138.770	
47.00	-69.784	153.228	
48.00	-85.585	-143.587	
49.00	-76.516	-72.069	
50.00	-78.739	-95.024	
51.00	-72.294	-5.225	
52.00	-78.757	33.443	
53.00	-74.142	91.932	
54.00	-71.013	137.702	
55.00	-69.044	160.603	
56.00	-67.045	148.995	
57.00	-64.434	174.784	
58.00	-62.732	-166.421	
59.00	-62.409	-164.596	
60.00	-62.823	-144.217	
61.00	-62.287	-125.345	
62.00	-61.610	-119.671	
63.00	-64.595	-104.961	
64.00	-64.081	-71.267	
65.00	-67.032	-70.426	
66.00	-72.885	-10.640	
67.00	-77.111	94.741	
68.00	-69.730	67.725	
69.00	-69.379	111.548	
70.00	-68.838	142.472	
71.00	-68.303	-171.099	
72.00	-67.713	-124.193	
73.00	-66.149	-134.890	
74.00	-66.139	-105.713	
75.00	-68.732	-50.983	
76.00	-65.991	-35.767	
77.00	-68.366	-2.197	
78.00	-70.960	30.468	
79.00	-69.644	38.897	
80.00	-69.678	59.428	
81.00	-72.372	43.151	
82.00	-71.619	125.952	
83.00	-68.069	126.303	
84.00	-70.216	134.487	
85.00	-73.303	-168.417	
86.00	-73.829	-163.319	
87.00	-71.895	-37.736	
88.00	-82.944	-43.078	
89.00	-78.830	-12.565	
90.00	-66.990	59.203	
91.00	-68.600	43.326	
92.00	-69.620	68.711	
93.00	-62.895	106.723	
94.00	-63.315	126.627	
95.00	-64.823	150.439	
96.00	-62.197	179.125	
97.00	-62.995	-150.705	
98.00	-60.899	-128.065	
99.00	-60.301	-110.551	
100.00	-60.155	-94.730	
101.00	-59.978	-54.393	
102.00	-58.026	-30.550	
103.00	-58.052	-8.571	
104.00	-58.388	5.586	
105.00	-57.749	29.768	
106.00	-59.718	49.582	
107.00	-59.254	71.177	
108.00	-60.424	90.778	
109.00	-62.188	104.372	
110.00	-66.927	122.235	
111.00	-65.706	119.664	
112.00	-70.058	111.187	
113.00	-75.787	31.577	
114.00	-72.812	73.967	
115.00	-67.035	79.958	
116.00	-63.703	78.409	
117.00	-62.627	96.349	
118.00	-60.950	97.688	
119.00	-59.827	104.061	
120.00	-59.667	109.036	
121.00	-57.164	103.721	
122.00	-56.191	108.538	
123.00	-53.156	110.209	
124.00	-51.301	119.412	
125.00	-50.992	128.792	
126.00	-48.677	145.362	
127.00	-47.985	160.306	
128.00	-47.292	168.728	
129.00	-47.250	-171.651	
130.00	-47.813	-160.109	
131.00	-48.784	-142.138	
132.00	-50.929	-126.764	
133.00	-54.497	-111.216	
134.00	-61.310	-95.209	
135.00	-67.147	99.949	
136.00	-54.933	118.365	
137.00	-50.093	131.687	
138.00	-47.678	147.033	
139.00	-45.598	162.831	
140.00	-44.918	176.132	
141.00	-44.910	-171.205	
142.00	-45.682	-157.134	
143.00	-47.242	-142.818	
144.00	-50.241	-125.372	
145.00	-55.359	-106.362	
146.00	-64.929	-12.970	
147.00	-55.340	60.644	
148.00	-50.398	79.522	
149.00	-47.886	95.216	
150.00	-46.323	108.227	
151.00	-45.550	121.880	
152.00	-45.276	133.718	
153.00	-45.244	145.718	
154.00	-45.606	156.738	
155.00	-45.978	167.676	
156.00	-46.814	178.761	
157.00	-47.739	-173.359	
158.00	-48.533	-166.035	
159.00	-50.534	-166.414	
160.00	-52.730	-175.562	
161.00	-54.794	156.467	
162.00	-52.997	121.505	
163.00	-49.457	105.339	
164.00	-46.951	99.587	
165.00	-45.604	99.898	
166.00	-45.461	100.177	
167.00	-46.202	106.491	
168.00	-47.961	115.509	
169.00	-50.991	133.697	
170.00	-51.950	170.774	
171.00	-49.077	-162.681	
172.00	-45.848	-159.341	
173.00	-43.057	-164.499	
174.00	-40.444	-175.357	
175.00	-37.833	175.346	
176.00	-35.523	168.600	
177.00	-33.552	162.529	
178.00	-32.160	158.945	
179.00	-31.321	155.969	
180.00	-30.976	154.168	
181.00	-31.292	153.105	
182.00	-32.179	152.891	
183.00	-33.750	153.105	
184.00	-36.089	155.860	
185.00	-39.537	161.568	
186.00	-44.269	174.099	
187.00	-49.612	-151.266	
188.00	-50.669	-106.642	
189.00	-50.444	-81.168	
190.00	-51.816	-62.378	
191.00	-54.656	-38.964	
192.00	-55.196	-5.998	
193.00	-53.635	21.432	
194.00	-54.278	27.890	
195.00	-55.443	16.141	
196.00	-58.087	-26.862	
197.00	-54.308	-91.568	
198.00	-49.700	-117.545	
199.00	-46.835	-127.912	
200.00	-45.433	-141.605	
201.00	-45.548	-152.503	
202.00	-46.550	-165.471	
203.00	-48.882	178.997	
204.00	-54.046	140.227	
205.00	-53.749	65.717	
206.00	-49.073	30.851	
207.00	-46.305	12.992	
208.00	-44.668	0.804	
209.00	-44.832	-8.220	
210.00	-45.573	-15.762	
211.00	-47.256	-18.117	
212.00	-50.108	-13.905	
213.00	-52.294	-0.250	
214.00	-53.603	24.728	
215.00	-51.766	46.992	
216.00	-50.284	42.495	
217.00	-49.719	38.122	
218.00	-48.692	32.081	
219.00	-48.638	20.984	
220.00	-48.825	11.029	
221.00	-48.677	-0.430	
222.00	-49.076	-6.473	
223.00	-49.020	-17.421	
224.00	-50.304	-25.791	
225.00	-50.249	-35.930	
226.00	-51.188	-51.146	
227.00	-52.024	-65.336	
228.00	-52.539	-75.050	
229.00	-54.889	-93.662	
230.00	-55.643	-103.824	
231.00	-59.771	-110.175	
232.00	-61.157	-100.654	
233.00	-62.123	-91.470	
234.00	-60.529	-66.519	
235.00	-58.333	-81.610	
236.00	-56.825	-83.613	
237.00	-54.705	-102.199	
238.00	-54.422	-116.088	
239.00	-53.686	-139.291	
240.00	-53.477	-157.935	
241.00	-53.188	-173.893	
242.00	-53.332	167.383	
243.00	-53.559	150.678	
244.00	-54.466	136.034	
245.00	-56.118	123.323	
246.00	-57.085	112.614	
247.00	-57.703	104.402	
248.00	-59.472	100.509	
249.00	-60.187	98.447	
250.00	-59.451	93.776	
251.00	-58.692	81.200	
252.00	-57.743	66.410	
253.00	-58.086	48.543	
254.00	-56.752	32.046	
255.00	-57.511	11.629	
256.00	-57.526	-7.729	
257.00	-57.669	-33.474	
258.00	-57.561	-56.826	
259.00	-59.204	-84.276	
260.00	-59.677	-130.864	
261.00	-59.521	-154.694	
262.00	-58.088	178.824	
263.00	-58.163	157.313	
264.00	-57.664	139.683	
265.00	-57.708	117.528	
266.00	-60.157	92.720	
267.00	-60.276	59.835	
268.00	-61.558	35.077	
269.00	-60.707	3.629	
270.00	-63.067	-41.450	
271.00	-62.078	-66.702	
272.00	-61.934	-90.000	
273.00	-62.133	-123.289	
274.00	-63.675	-143.302	
275.00	-63.024	-168.279	
276.00	-63.745	151.123	
277.00	-65.359	119.504	
278.00	-63.424	101.200	
279.00	-63.257	69.352	
280.00	-62.406	36.269	
281.00	-63.060	20.423	
282.00	-63.939	2.021	
283.00	-67.307	-0.626	
284.00	-65.370	-47.237	
285.00	-66.136	-63.139	
286.00	-66.007	-100.742	
287.00	-78.308	-74.259	
288.00	-69.723	177.389	
289.00	-67.300	146.324	
290.00	-67.627	104.168	
291.00	-71.455	85.939	
292.00	-73.861	-26.121	
293.00	-69.408	96.085	
294.00	-71.348	90.602	
295.00	-73.007	162.100	
296.00	-68.811	144.021	
297.00	-71.354	71.748	
298.00	-68.602	128.745	
299.00	-74.193	68.786	
300.00	-69.659	136.641	
301.00	-73.718	113.114	
302.00	-66.873	68.181	
303.00	-73.625	56.172	
304.00	-74.888	59.730	
305.00	-78.891	29.181	
306.00	-71.833	82.268	
307.00	-86.324	-156.728	
308.00	-75.836	-153.398	
309.00	-75.288	-150.726	
310.00	-76.945	-149.031	
311.00	-73.948	-145.700	
312.00	-71.085	-157.991	
313.00	-69.646	-170.464	
314.00	-67.404	166.623	
315.00	-67.657	144.247	
316.00	-69.997	137.281	
317.00	-70.491	98.644	
318.00	-71.198	72.115	
319.00	-71.410	24.672	
320.00	-71.881	-10.039	
321.00	-71.976	-38.158	
322.00	-73.766	-46.709	
323.00	-68.373	-57.850	
324.00	-71.209	-68.874	
325.00	-70.153	-86.123	
326.00	-72.369	-67.147	
327.00	-70.187	-42.272	
328.00	-77.793	-71.762	
329.00	-75.367	-87.550	
330.00	-77.890	-161.389	
331.00	-75.472	173.620	
332.00	-71.586	126.215	
333.00	-72.077	98.109	
334.00	-68.623	72.875	
335.00	-67.620	107.536	
336.00	-66.924	94.134	
337.00	-70.627	72.414	
338.00	-73.236	8.531	
339.00	-67.949	-118.940	
340.00	-74.764	-113.226	
341.00	-72.453	-175.271	
342.00	-82.129	30.685	
343.00	-68.906	-71.685	
344.00	-69.070	-5.393	
345.00	-71.804	36.327	
346.00	-64.801	10.159	
347.00	-63.881	23.010	
348.00	-67.902	18.711	
349.00	-63.329	12.720	
350.00	-64.773	-0.390	
351.00	-63.860	26.875	
352.00	-64.589	21.017	
353.00	-63.696	35.216	
354.00	-65.162	45.317	
355.00	-64.671	51.387	
356.00	-64.598	75.045	
357.00	-63.462	87.975	
358.00	-71.500	75.568	
359.00	-63.227	122.419	
Frequency	2700.00	MHz	
Channel	test		
Scan Axis name	Azimuth  [deg]		
Scan Axis	Amplitude	Phase	
			
0.00	-69.713	-143.195	
1.00	-69.456	-138.199	
2.00	-69.947	-140.585	
3.00	-71.473	-145.935	
4.00	-74.906	-127.796	
5.00	-74.882	-125.592	
6.00	-79.159	-107.950	
7.00	-72.189	-85.337	
8.00	-75.140	-129.400	
9.00	-74.999	165.681	
10.00	-77.105	20.663	
11.00	-79.082	168.266	
12.00	-76.169	107.156	
13.00	-85.017	-18.022	
14.00	-73.493	-19.469	
15.00	-73.584	-15.404	
16.00	-69.890	6.149	
17.00	-68.125	-20.151	
18.00	-70.026	-24.567	
19.00	-70.517	-18.686	
20.00	-76.809	-37.307	
21.00	-80.895	-44.680	
22.00	-80.575	92.272	
23.00	-71.309	148.005	
24.00	-67.885	-173.297	
25.00	-73.177	-144.277	
26.00	-69.401	-147.169	
27.00	-78.651	51.623	
28.00	-76.431	104.040	
29.00	-83.253	118.012	
30.00	-80.529	49.963	
31.00	-70.446	44.082	
32.00	-71.379	39.087	
33.00	-65.539	58.929	
34.00	-65.461	62.169	
35.00	-66.434	78.739	
36.00	-66.802	70.327	
37.00	-65.575	91.454	
38.00	-67.783	76.212	
39.00	-64.750	110.877	
40.00	-63.824	116.140	
41.00	-62.632	125.670	
42.00	-61.339	139.894	
43.00	-62.654	141.575	
44.00	-60.859	98.617	
45.00	-64.661	163.346	
46.00	-68.533	170.155	
47.00	-71.964	-165.245	
48.00	-82.755	-179.387	
49.00	-85.395	76.064	
50.00	-72.572	117.466	
51.00	-68.077	97.805	
52.00	-65.497	95.623	
53.00	-62.937	118.940	
54.00	-63.955	137.727	
55.00	-64.350	154.565	
56.00	-64.652	-177.622	
57.00	-66.492	-153.640	
58.00	-71.690	-131.145	
59.00	-69.206	-73.793	
60.00	-67.445	-21.531	
61.00	-67.219	11.849	
62.00	-64.975	44.857	
63.00	-64.566	70.770	
64.00	-62.819	96.082	
65.00	-62.825	109.008	
66.00	-61.609	132.206	
67.00	-63.159	142.757	
68.00	-64.759	146.132	
69.00	-68.114	156.906	
70.00	-71.417	159.968	
71.00	-80.023	-140.701	
72.00	-91.444	-65.613	
73.00	-74.500	-53.382	
74.00	-80.002	-47.371	
75.00	-75.320	-60.641	
76.00	-74.233	-30.143	
77.00	-73.037	-31.936	
78.00	-71.411	5.739	
79.00	-70.747	-0.068	
80.00	-67.507	41.922	
81.00	-68.440	72.757	
82.00	-70.901	32.220	
83.00	-66.301	120.107	
84.00	-63.330	134.474	
85.00	-64.781	-155.053	
86.00	-66.345	-134.719	
87.00	-66.677	-110.710	
88.00	-63.518	-104.132	
89.00	-62.784	-73.324	
90.00	-66.321	-44.790	
91.00	-68.283	2.199	
92.00	-66.560	26.500	
93.00	-66.507	59.146	
94.00	-67.495	86.984	
95.00	-69.408	94.281	
96.00	-73.098	159.461	
97.00	-73.371	-139.488	
98.00	-66.549	-80.178	
99.00	-63.883	-81.013	
100.00	-61.031	-51.767	
101.00	-60.345	-11.211	
102.00	-59.780	7.594	
103.00	-58.747	42.650	
104.00	-58.382	61.590	
105.00	-57.234	91.649	
106.00	-56.823	108.964	
107.00	-56.344	135.518	
108.00	-56.160	155.986	
109.00	-57.568	176.317	
110.00	-58.469	-160.429	
111.00	-58.872	-132.618	
112.00	-58.253	-104.944	
113.00	-59.782	-73.574	
114.00	-59.263	-44.701	
115.00	-58.960	-31.269	
116.00	-59.575	-13.490	
117.00	-60.906	16.113	
118.00	-62.072	31.832	
119.00	-63.323	48.835	
120.00	-67.608	88.413	
121.00	-63.435	122.171	
122.00	-60.532	152.547	
123.00	-57.143	165.426	
124.00	-54.451	-176.150	
125.00	-52.390	-155.411	
126.00	-50.893	-147.166	
127.00	-49.647	-126.643	
128.00	-48.469	-111.302	
129.00	-47.738	-91.598	
130.00	-47.779	-72.785	
131.00	-47.550	-50.207	
132.00	-48.157	-27.112	
133.00	-48.260	-7.172	
134.00	-49.440	19.056	
135.00	-51.324	44.022	
136.00	-53.109	84.141	
137.00	-54.590	136.314	
138.00	-52.163	-174.361	
139.00	-48.681	-142.374	
140.00	-46.897	-119.724	
141.00	-45.550	-101.448	
142.00	-45.399	-84.022	
143.00	-45.573	-68.706	
144.00	-46.456	-50.089	
145.00	-48.596	-32.109	
146.00	-51.454	-8.592	
147.00	-56.568	24.075	
148.00	-59.501	85.986	
149.00	-55.574	143.736	
150.00	-52.239	174.497	
151.00	-50.714	-172.271	
152.00	-49.583	-156.790	
153.00	-48.911	-142.728	
154.00	-49.286	-131.329	
155.00	-49.477	-120.018	
156.00	-49.207	-110.155	
157.00	-49.348	-100.083	
158.00	-49.147	-87.677	
159.00	-49.797	-79.252	
160.00	-50.928	-72.114	
161.00	-53.510	-68.178	
162.00	-59.903	-69.196	
163.00	-69.164	-141.403	
164.00	-56.689	153.347	
165.00	-51.492	156.685	
166.00	-48.999	158.715	
167.00	-48.454	167.136	
168.00	-49.353	170.099	
169.00	-50.997	178.309	
170.00	-54.390	-162.868	
171.00	-56.951	-121.774	
172.00	-54.118	-88.591	
173.00	-50.562	-90.544	
174.00	-47.829	-98.364	
175.00	-44.465	-111.896	
176.00	-41.482	-120.545	
177.00	-38.982	-128.849	
178.00	-36.569	-133.571	
179.00	-35.308	-136.499	
180.00	-34.551	-139.033	
181.00	-34.611	-142.046	
182.00	-35.277	-143.853	
183.00	-36.636	-145.736	
184.00	-39.019	-147.702	
185.00	-42.374	-149.721	
186.00	-47.379	-153.718	
187.00	-55.667	-159.708	
188.00	-78.534	-3.753	
189.00	-62.441	16.413	
190.00	-60.793	6.212	
191.00	-66.091	1.267	
192.00	-75.184	78.906	
193.00	-65.399	113.414	
194.00	-65.036	82.321	
195.00	-63.744	39.727	
196.00	-55.562	1.176	
197.00	-52.666	-9.657	
198.00	-48.644	-30.969	
199.00	-47.202	-47.593	
200.00	-47.390	-60.629	
201.00	-47.521	-73.606	
202.00	-49.373	-92.557	
203.00	-52.191	-117.082	
204.00	-56.305	-172.943	
205.00	-53.346	121.156	
206.00	-49.684	92.821	
207.00	-46.570	75.208	
208.00	-45.430	62.212	
209.00	-45.203	49.483	
210.00	-46.293	38.397	
211.00	-48.125	28.681	
212.00	-51.580	19.976	
213.00	-57.227	24.766	
214.00	-73.323	129.868	
215.00	-57.071	129.438	
216.00	-54.180	129.543	
217.00	-50.526	122.626	
218.00	-50.270	113.938	
219.00	-49.990	93.082	
220.00	-50.060	83.973	
221.00	-49.902	66.630	
222.00	-49.648	57.303	
223.00	-49.991	40.501	
224.00	-50.015	25.191	
225.00	-49.933	12.627	
226.00	-51.243	-5.246	
227.00	-51.892	-21.321	
228.00	-53.702	-36.724	
229.00	-56.691	-60.435	
230.00	-60.222	-89.310	
231.00	-62.730	-133.469	
232.00	-65.360	-175.777	
233.00	-66.425	124.168	
234.00	-61.854	59.522	
235.00	-61.944	22.717	
236.00	-57.023	-7.977	
237.00	-55.919	-23.277	
238.00	-55.296	-42.411	
239.00	-53.597	-63.170	
240.00	-53.564	-86.453	
241.00	-54.545	-105.055	
242.00	-55.899	-132.737	
243.00	-58.122	-146.113	
244.00	-59.461	-166.893	
245.00	-60.652	172.416	
246.00	-65.173	157.743	
247.00	-68.546	134.803	
248.00	-72.395	167.618	
249.00	-68.858	168.305	
250.00	-63.179	149.354	
251.00	-60.958	138.159	
252.00	-58.125	115.401	
253.00	-56.365	96.355	
254.00	-55.127	76.463	
255.00	-54.439	57.055	
256.00	-53.995	34.320	
257.00	-54.002	13.463	
258.00	-52.696	-4.075	
259.00	-52.991	-28.015	
260.00	-53.979	-57.746	
261.00	-54.782	-84.700	
262.00	-55.632	-111.205	
263.00	-55.599	-141.421	
264.00	-56.170	-172.862	
265.00	-56.163	159.890	
266.00	-55.810	134.182	
267.00	-55.879	102.892	
268.00	-55.934	81.198	
269.00	-55.575	52.631	
270.00	-56.122	30.997	
271.00	-56.044	7.729	
272.00	-57.429	-14.773	
273.00	-59.066	-45.219	
274.00	-61.068	-73.965	
275.00	-61.921	-100.601	
276.00	-63.481	-149.573	
277.00	-62.755	172.782	
278.00	-63.293	134.633	
279.00	-61.369	112.886	
280.00	-59.622	80.852	
281.00	-59.808	57.355	
282.00	-58.928	30.910	
283.00	-60.224	13.684	
284.00	-59.200	-0.330	
285.00	-62.013	-25.593	
286.00	-63.202	-48.556	
287.00	-64.566	-65.488	
288.00	-64.536	-86.483	
289.00	-67.273	-103.867	
290.00	-69.826	-137.958	
291.00	-72.912	-167.639	
292.00	-79.834	143.082	
293.00	-72.650	144.752	
294.00	-71.430	155.988	
295.00	-69.670	125.327	
296.00	-68.303	98.582	
297.00	-69.455	77.772	
298.00	-68.780	71.642	
299.00	-69.925	50.811	
300.00	-71.992	3.017	
301.00	-71.899	-33.244	
302.00	-74.041	-63.320	
303.00	-69.286	-61.183	
304.00	-67.036	-169.152	
305.00	-65.040	171.059	
306.00	-64.212	163.031	
307.00	-63.271	135.243	
308.00	-70.285	111.000	
309.00	-69.523	70.293	
310.00	-72.231	32.213	
311.00	-69.889	-17.632	
312.00	-67.614	-39.759	
313.00	-66.870	-54.039	
314.00	-64.643	-71.427	
315.00	-65.872	-98.546	
316.00	-64.805	-109.937	
317.00	-65.231	-122.731	
318.00	-65.737	-118.870	
319.00	-66.755	-119.851	
320.00	-65.582	-118.770	
321.00	-64.987	-116.915	
322.00	-61.896	-128.686	
323.00	-62.055	-127.057	
324.00	-62.388	-149.918	
325.00	-62.375	-155.529	
326.00	-63.280	-158.088	
327.00	-66.674	178.096	
328.00	-68.504	179.732	
329.00	-73.068	-169.322	
330.00	-72.528	-114.429	
331.00	-67.115	-99.967	
332.00	-65.528	-100.612	
333.00	-65.223	-117.210	
334.00	-62.907	-127.817	
335.00	-62.748	-137.637	
336.00	-65.135	-144.994	
337.00	-68.880	-161.582	
338.00	-73.328	178.043	
339.00	-75.109	-147.481	
340.00	-78.935	123.491	
341.00	-72.648	53.616	
342.00	-70.376	63.890	
343.00	-67.434	54.714	
344.00	-64.725	62.184	
345.00	-64.492	64.927	
346.00	-64.603	78.511	
347.00	-64.657	80.105	
348.00	-64.042	96.743	
349.00	-64.645	98.643	
350.00	-64.771	122.190	
351.00	-66.401	142.187	
352.00	-68.040	162.227	
353.00	-65.384	175.326	
354.00	-65.630	166.570	
355.00	-66.752	-163.892	
356.00	-64.747	-141.208	
357.00	-64.917	-136.949	
358.00	-66.148	-149.065	
359.00	-68.180	-118.191	
