Test Title:	Alpha Wireless Indoor Range						
Date:	02/11/2017						
Time:	16:48						
Operator Name:	FL						
Comment:	Version 2 Run 2
Cable length changed						
Caib. File Name:	C:\Program Files\Midas 2.01d\Calibration Files\test sigma 180900.cal						
							
[Scan Axis] Name: 	Azimuth  [deg]Start: 	0.000000	Stop	359.000000	Increment	1.000000[Step Axis] Name: 	Start: 	0.000000	Stop	0.000000	Increment	0.000000[Tert] Name: 	None [Forth] Name: 	None  [ Freq.]  (List) 	MHz.	1694.000000	1710.000000	1800.000000	1850.000000	1950.000000	2050.000000	2170.000000	2300.000000	2350.000000	2400.000000	2450.000000	2496.000000	2550.000000	2600.000000	2650.000000	2700.000000
 [Switch]  	None [Channel]  	test			 [ Beam] 	None			
Database:			
First Question			
2nd			
3rd			
4th			
			
Frequency	1694.00	MHz	
Channel	test		
Scan Axis name	Azimuth  [deg]		
Scan Axis	Amplitude	Phase	
			
0.00	-52.051	67.756	
1.00	-52.967	71.416	
2.00	-54.599	75.370	
3.00	-56.730	77.070	
4.00	-60.022	78.207	
5.00	-61.918	90.209	
6.00	-70.489	81.731	
7.00	-76.271	-151.970	
8.00	-63.401	-89.000	
9.00	-61.071	-90.889	
10.00	-58.375	-90.884	
11.00	-56.906	-92.301	
12.00	-56.651	-97.270	
13.00	-56.919	-105.753	
14.00	-56.925	-108.979	
15.00	-57.431	-121.504	
16.00	-57.803	-135.583	
17.00	-56.596	-146.229	
18.00	-55.958	-152.616	
19.00	-55.835	-154.210	
20.00	-54.911	-152.216	
21.00	-54.817	-147.827	
22.00	-55.105	-138.345	
23.00	-56.202	-132.534	
24.00	-57.188	-123.118	
25.00	-57.900	-104.762	
26.00	-59.323	-87.013	
27.00	-59.467	-67.729	
28.00	-59.707	-59.087	
29.00	-59.447	-39.189	
30.00	-59.735	-26.054	
31.00	-61.168	-15.203	
32.00	-62.815	-6.654	
33.00	-68.371	2.095	
34.00	-74.689	36.155	
35.00	-76.902	169.236	
36.00	-67.970	-149.203	
37.00	-62.617	-133.817	
38.00	-59.326	-121.163	
39.00	-57.183	-107.548	
40.00	-55.564	-96.923	
41.00	-55.073	-87.303	
42.00	-54.755	-79.209	
43.00	-55.408	-66.017	
44.00	-56.464	-61.938	
45.00	-57.777	-51.031	
46.00	-60.500	-36.872	
47.00	-64.196	-18.301	
48.00	-67.832	1.330	
49.00	-71.801	60.613	
50.00	-67.175	112.812	
51.00	-65.248	128.968	
52.00	-63.178	125.553	
53.00	-62.455	124.787	
54.00	-60.958	131.446	
55.00	-59.072	131.804	
56.00	-58.448	137.210	
57.00	-58.249	142.947	
58.00	-57.535	146.716	
59.00	-57.148	156.912	
60.00	-57.403	162.800	
61.00	-58.517	163.438	
62.00	-58.863	175.294	
63.00	-60.084	177.993	
64.00	-61.957	-167.608	
65.00	-64.803	-169.514	
66.00	-67.746	-151.762	
67.00	-75.566	-136.826	
68.00	-81.666	-39.282	
69.00	-74.786	16.057	
70.00	-70.979	14.912	
71.00	-70.505	26.037	
72.00	-71.140	17.679	
73.00	-72.113	14.947	
74.00	-71.653	-10.938	
75.00	-72.631	-34.662	
76.00	-72.085	-63.174	
77.00	-70.387	-54.312	
78.00	-68.646	-44.253	
79.00	-69.139	-38.830	
80.00	-67.776	-11.762	
81.00	-68.229	15.958	
82.00	-66.701	24.950	
83.00	-63.449	48.163	
84.00	-62.745	56.498	
85.00	-60.922	70.448	
86.00	-58.974	78.392	
87.00	-59.104	95.618	
88.00	-57.181	100.611	
89.00	-58.245	109.469	
90.00	-57.141	128.893	
91.00	-56.966	130.966	
92.00	-56.480	144.259	
93.00	-56.705	159.680	
94.00	-56.597	167.559	
95.00	-56.930	-178.470	
96.00	-56.665	-175.543	
97.00	-56.883	-168.097	
98.00	-57.933	-164.098	
99.00	-58.853	-156.977	
100.00	-59.739	-151.453	
101.00	-62.228	-150.099	
102.00	-68.325	-132.516	
103.00	-78.659	-107.344	
104.00	-73.944	10.488	
105.00	-71.237	29.843	
106.00	-64.538	53.877	
107.00	-61.717	45.505	
108.00	-60.694	47.871	
109.00	-59.645	53.206	
110.00	-58.483	51.834	
111.00	-58.382	58.762	
112.00	-58.482	54.356	
113.00	-59.017	58.352	
114.00	-58.483	54.814	
115.00	-60.103	58.849	
116.00	-61.154	56.289	
117.00	-62.742	57.615	
118.00	-64.695	57.411	
119.00	-67.494	62.720	
120.00	-71.737	83.214	
121.00	-79.145	175.477	
122.00	-68.028	-163.449	
123.00	-63.711	-149.689	
124.00	-60.142	-146.303	
125.00	-57.976	-147.285	
126.00	-56.845	-143.597	
127.00	-55.693	-142.149	
128.00	-55.118	-141.686	
129.00	-54.999	-142.668	
130.00	-55.812	-145.456	
131.00	-56.764	-155.765	
132.00	-58.748	-166.904	
133.00	-59.047	162.274	
134.00	-57.675	139.480	
135.00	-54.866	124.694	
136.00	-52.321	118.138	
137.00	-50.184	113.355	
138.00	-48.988	112.533	
139.00	-47.722	112.369	
140.00	-47.152	113.980	
141.00	-46.826	115.470	
142.00	-46.638	117.254	
143.00	-46.697	119.763	
144.00	-47.083	121.539	
145.00	-47.524	122.257	
146.00	-47.839	125.071	
147.00	-48.240	127.817	
148.00	-49.269	129.203	
149.00	-50.176	133.265	
150.00	-50.891	137.019	
151.00	-51.748	144.280	
152.00	-52.240	152.615	
153.00	-52.559	163.889	
154.00	-52.362	176.644	
155.00	-51.545	-171.375	
156.00	-50.754	-163.273	
157.00	-50.046	-155.708	
158.00	-49.332	-152.839	
159.00	-49.401	-148.260	
160.00	-49.858	-147.783	
161.00	-50.906	-151.692	
162.00	-53.074	-156.661	
163.00	-56.926	176.599	
164.00	-56.566	124.651	
165.00	-51.997	90.152	
166.00	-47.294	79.956	
167.00	-44.156	73.608	
168.00	-41.697	69.559	
169.00	-40.038	66.124	
170.00	-38.747	62.208	
171.00	-37.934	58.433	
172.00	-37.361	52.555	
173.00	-37.041	45.846	
174.00	-37.056	35.701	
175.00	-37.076	24.074	
176.00	-36.929	9.327	
177.00	-36.318	-7.514	
178.00	-35.292	-23.401	
179.00	-34.009	-36.901	
180.00	-32.643	-48.354	
181.00	-31.447	-57.234	
182.00	-30.429	-64.937	
183.00	-29.695	-71.365	
184.00	-29.241	-77.381	
185.00	-28.963	-83.142	
186.00	-28.987	-88.631	
187.00	-29.293	-94.359	
188.00	-29.814	-100.566	
189.00	-30.664	-107.282	
190.00	-31.791	-114.929	
191.00	-33.133	-123.869	
192.00	-34.765	-134.683	
193.00	-36.463	-148.397	
194.00	-38.121	-165.684	
195.00	-39.350	174.505	
196.00	-39.907	155.060	
197.00	-39.905	137.657	
198.00	-39.890	124.512	
199.00	-39.931	115.457	
200.00	-40.055	108.372	
201.00	-40.373	104.037	
202.00	-40.862	101.601	
203.00	-41.457	99.852	
204.00	-42.150	98.885	
205.00	-42.823	98.260	
206.00	-43.409	97.468	
207.00	-44.320	94.466	
208.00	-45.351	90.425	
209.00	-46.802	82.970	
210.00	-48.629	71.111	
211.00	-51.420	55.295	
212.00	-53.966	25.432	
213.00	-54.879	-15.413	
214.00	-52.313	-51.958	
215.00	-49.984	-77.937	
216.00	-48.637	-93.392	
217.00	-47.350	-108.772	
218.00	-46.772	-122.561	
219.00	-46.427	-136.344	
220.00	-46.424	-149.540	
221.00	-46.926	-165.083	
222.00	-47.692	178.529	
223.00	-48.380	159.922	
224.00	-49.464	140.326	
225.00	-50.458	117.907	
226.00	-50.795	92.690	
227.00	-51.046	66.402	
228.00	-50.670	42.498	
229.00	-49.925	20.251	
230.00	-49.620	2.279	
231.00	-49.371	-14.060	
232.00	-49.294	-27.506	
233.00	-49.433	-41.879	
234.00	-49.667	-54.530	
235.00	-50.120	-66.512	
236.00	-50.958	-77.879	
237.00	-52.319	-86.873	
238.00	-52.771	-100.422	
239.00	-54.039	-105.148	
240.00	-54.833	-112.209	
241.00	-55.732	-116.602	
242.00	-56.172	-123.912	
243.00	-56.529	-127.185	
244.00	-56.722	-134.179	
245.00	-55.497	-140.851	
246.00	-54.953	-145.087	
247.00	-54.029	-156.375	
248.00	-53.691	-165.972	
249.00	-52.715	-173.160	
250.00	-52.486	176.120	
251.00	-52.274	165.425	
252.00	-52.392	156.604	
253.00	-52.359	148.449	
254.00	-52.490	139.909	
255.00	-53.135	131.332	
256.00	-53.691	125.813	
257.00	-54.773	118.311	
258.00	-56.392	116.956	
259.00	-57.538	117.623	
260.00	-60.314	118.516	
261.00	-61.298	130.236	
262.00	-63.914	150.910	
263.00	-61.864	169.060	
264.00	-60.182	-174.982	
265.00	-59.372	-179.288	
266.00	-58.332	-175.780	
267.00	-57.943	-178.717	
268.00	-57.497	177.045	
269.00	-57.792	173.225	
270.00	-58.495	169.932	
271.00	-59.556	166.267	
272.00	-61.058	167.641	
273.00	-62.661	165.290	
274.00	-65.125	171.858	
275.00	-67.649	-163.059	
276.00	-69.121	-135.178	
277.00	-66.468	-114.452	
278.00	-63.793	-107.458	
279.00	-61.200	-102.197	
280.00	-60.410	-107.311	
281.00	-59.154	-115.113	
282.00	-57.906	-116.384	
283.00	-57.480	-126.104	
284.00	-57.393	-133.606	
285.00	-57.079	-138.919	
286.00	-57.512	-153.114	
287.00	-56.088	-163.749	
288.00	-56.234	-174.662	
289.00	-55.832	175.943	
290.00	-55.153	167.525	
291.00	-55.165	161.584	
292.00	-54.370	156.353	
293.00	-54.794	153.643	
294.00	-55.203	147.092	
295.00	-55.336	142.901	
296.00	-56.197	139.596	
297.00	-56.791	132.908	
298.00	-57.920	126.064	
299.00	-60.283	114.973	
300.00	-60.958	115.426	
301.00	-64.033	96.586	
302.00	-68.317	78.716	
303.00	-73.540	40.924	
304.00	-72.044	-22.388	
305.00	-69.732	-45.313	
306.00	-67.600	-77.846	
307.00	-64.263	-95.271	
308.00	-63.092	-105.234	
309.00	-61.343	-119.551	
310.00	-59.868	-136.199	
311.00	-58.512	-145.911	
312.00	-57.815	-158.052	
313.00	-57.004	-167.928	
314.00	-56.394	-176.399	
315.00	-55.817	173.581	
316.00	-55.425	162.165	
317.00	-55.626	156.669	
318.00	-55.539	147.892	
319.00	-56.119	137.766	
320.00	-56.648	132.502	
321.00	-56.611	119.792	
322.00	-57.393	114.843	
323.00	-57.267	108.123	
324.00	-57.434	103.107	
325.00	-58.183	98.445	
326.00	-57.596	94.256	
327.00	-57.253	88.083	
328.00	-57.424	85.807	
329.00	-57.289	79.946	
330.00	-57.395	73.419	
331.00	-57.735	65.538	
332.00	-58.353	56.186	
333.00	-58.909	51.450	
334.00	-59.394	43.989	
335.00	-60.205	32.175	
336.00	-61.311	22.801	
337.00	-63.699	11.955	
338.00	-66.369	-13.754	
339.00	-68.533	-48.983	
340.00	-67.635	-100.714	
341.00	-64.591	-120.670	
342.00	-63.264	-142.158	
343.00	-61.667	-155.478	
344.00	-61.005	-174.956	
345.00	-59.134	175.647	
346.00	-60.445	155.931	
347.00	-58.713	151.796	
348.00	-58.144	128.619	
349.00	-57.506	109.984	
350.00	-56.257	98.245	
351.00	-55.496	86.513	
352.00	-54.252	74.416	
353.00	-52.644	65.399	
354.00	-51.988	63.996	
355.00	-51.379	58.096	
356.00	-50.811	56.184	
357.00	-50.777	52.268	
358.00	-51.144	58.058	
359.00	-51.000	63.077	
Frequency	1710.00	MHz	
Channel	test		
Scan Axis name	Azimuth  [deg]		
Scan Axis	Amplitude	Phase	
			
0.00	-54.517	-31.060	
1.00	-56.347	-46.088	
2.00	-57.293	-58.022	
3.00	-56.931	-44.971	
4.00	-58.850	-60.464	
5.00	-61.519	-59.320	
6.00	-64.229	-61.158	
7.00	-64.032	-66.766	
8.00	-67.030	-122.994	
9.00	-68.260	-100.201	
10.00	-65.630	-139.110	
11.00	-64.485	-156.539	
12.00	-67.844	-145.097	
13.00	-67.036	-150.809	
14.00	-65.465	152.628	
15.00	-74.604	149.049	
16.00	-66.057	120.219	
17.00	-66.880	142.228	
18.00	-65.140	146.372	
19.00	-69.434	142.092	
20.00	-74.577	-176.651	
21.00	-74.434	168.492	
22.00	-65.074	-101.847	
23.00	-64.204	-40.752	
24.00	-62.630	-49.042	
25.00	-60.900	-49.859	
26.00	-56.520	-44.691	
27.00	-57.566	-43.807	
28.00	-56.425	-39.772	
29.00	-55.613	-41.102	
30.00	-56.582	-37.210	
31.00	-56.645	-44.124	
32.00	-61.859	-51.150	
33.00	-60.561	-38.790	
34.00	-74.031	-36.306	
35.00	-78.034	-150.846	
36.00	-71.072	173.083	
37.00	-63.000	164.700	
38.00	-60.643	176.353	
39.00	-58.752	168.644	
40.00	-59.273	175.031	
41.00	-58.577	-174.798	
42.00	-58.859	-167.153	
43.00	-60.372	-162.350	
44.00	-61.991	-157.599	
45.00	-61.728	-156.724	
46.00	-62.826	-126.123	
47.00	-62.611	-100.651	
48.00	-61.764	-95.032	
49.00	-59.482	-76.004	
50.00	-58.536	-70.163	
51.00	-57.171	-63.515	
52.00	-56.711	-55.532	
53.00	-56.151	-45.448	
54.00	-56.141	-37.416	
55.00	-55.983	-24.995	
56.00	-57.770	-14.846	
57.00	-58.715	-0.657	
58.00	-59.591	20.874	
59.00	-60.441	49.474	
60.00	-61.536	68.653	
61.00	-60.730	94.846	
62.00	-60.708	109.720	
63.00	-59.007	123.615	
64.00	-58.863	124.616	
65.00	-59.246	135.724	
66.00	-60.323	137.402	
67.00	-59.476	147.480	
68.00	-62.965	138.246	
69.00	-62.053	138.912	
70.00	-63.180	146.970	
71.00	-65.396	160.645	
72.00	-64.767	153.110	
73.00	-63.663	-176.812	
74.00	-62.941	-151.767	
75.00	-61.443	-141.940	
76.00	-60.691	-124.612	
77.00	-58.685	-105.095	
78.00	-57.627	-94.907	
79.00	-56.011	-85.239	
80.00	-55.934	-79.866	
81.00	-54.464	-68.738	
82.00	-54.097	-54.851	
83.00	-53.729	-46.488	
84.00	-54.000	-40.335	
85.00	-54.350	-25.864	
86.00	-54.443	-22.841	
87.00	-55.220	-7.785	
88.00	-57.009	5.045	
89.00	-58.575	20.249	
90.00	-58.961	35.082	
91.00	-62.368	60.738	
92.00	-61.862	92.815	
93.00	-60.482	114.143	
94.00	-62.403	134.013	
95.00	-60.619	159.399	
96.00	-60.958	155.559	
97.00	-61.836	-178.443	
98.00	-61.250	-175.037	
99.00	-59.683	-141.144	
100.00	-66.464	-78.112	
101.00	-65.184	-51.404	
102.00	-62.288	-33.458	
103.00	-62.407	-30.039	
104.00	-57.744	-11.847	
105.00	-57.239	6.496	
106.00	-55.143	8.935	
107.00	-55.117	25.538	
108.00	-53.833	28.922	
109.00	-53.309	29.718	
110.00	-53.096	29.159	
111.00	-53.516	30.058	
112.00	-52.738	21.683	
113.00	-52.872	20.846	
114.00	-52.216	15.831	
115.00	-51.612	13.153	
116.00	-50.591	9.621	
117.00	-50.416	8.679	
118.00	-49.408	7.267	
119.00	-49.455	9.480	
120.00	-49.160	11.545	
121.00	-49.307	14.942	
122.00	-49.980	19.739	
123.00	-50.443	20.504	
124.00	-51.774	22.363	
125.00	-53.527	20.720	
126.00	-54.861	18.562	
127.00	-56.704	6.195	
128.00	-56.528	-9.301	
129.00	-55.176	-27.422	
130.00	-53.409	-31.846	
131.00	-50.814	-28.471	
132.00	-49.205	-26.480	
133.00	-47.722	-20.889	
134.00	-46.443	-15.148	
135.00	-45.744	-9.475	
136.00	-45.077	-3.974	
137.00	-44.962	1.354	
138.00	-44.900	6.338	
139.00	-45.269	10.094	
140.00	-45.887	12.693	
141.00	-46.573	14.300	
142.00	-47.602	14.571	
143.00	-48.919	11.914	
144.00	-49.551	5.481	
145.00	-50.255	-0.031	
146.00	-50.398	-5.835	
147.00	-50.791	-7.927	
148.00	-50.577	-8.843	
149.00	-50.929	-7.119	
150.00	-52.287	-5.743	
151.00	-54.183	-0.661	
152.00	-58.938	12.473	
153.00	-71.649	73.912	
154.00	-58.947	169.511	
155.00	-52.448	-179.908	
156.00	-49.102	-174.503	
157.00	-46.981	-170.250	
158.00	-45.694	-166.405	
159.00	-45.117	-160.677	
160.00	-45.209	-153.801	
161.00	-46.213	-149.762	
162.00	-48.069	-139.260	
163.00	-51.648	-119.534	
164.00	-54.699	-71.239	
165.00	-51.602	-17.784	
166.00	-46.830	2.133	
167.00	-43.398	8.827	
168.00	-41.748	12.101	
169.00	-40.594	12.177	
170.00	-40.080	9.163	
171.00	-40.203	1.306	
172.00	-40.549	-15.146	
173.00	-40.247	-37.595	
174.00	-38.334	-62.112	
175.00	-35.559	-79.164	
176.00	-32.868	-89.697	
177.00	-30.560	-96.201	
178.00	-28.682	-100.336	
179.00	-27.148	-103.550	
180.00	-25.968	-105.965	
181.00	-25.132	-107.897	
182.00	-24.575	-109.687	
183.00	-24.320	-111.374	
184.00	-24.364	-113.020	
185.00	-24.693	-114.459	
186.00	-25.335	-116.090	
187.00	-26.350	-117.731	
188.00	-27.732	-119.017	
189.00	-29.683	-120.677	
190.00	-32.288	-121.562	
191.00	-35.985	-121.047	
192.00	-41.806	-117.877	
193.00	-55.965	-74.484	
194.00	-45.505	31.872	
195.00	-40.575	37.184	
196.00	-38.428	38.288	
197.00	-37.503	39.103	
198.00	-37.525	38.939	
199.00	-38.198	39.844	
200.00	-39.543	44.124	
201.00	-41.639	52.395	
202.00	-43.899	69.296	
203.00	-44.983	94.587	
204.00	-44.277	118.257	
205.00	-42.586	132.962	
206.00	-41.481	139.960	
207.00	-40.891	143.581	
208.00	-40.890	146.133	
209.00	-41.520	148.734	
210.00	-42.740	152.552	
211.00	-44.023	160.026	
212.00	-46.460	173.338	
213.00	-46.766	-169.453	
214.00	-46.533	-151.345	
215.00	-46.093	-134.653	
216.00	-45.235	-132.325	
217.00	-44.550	-126.620	
218.00	-45.470	-125.043	
219.00	-46.118	-126.656	
220.00	-48.054	-128.718	
221.00	-51.064	-125.158	
222.00	-55.521	-105.359	
223.00	-60.446	-54.964	
224.00	-57.077	-18.497	
225.00	-51.646	-3.673	
226.00	-49.077	-7.914	
227.00	-47.842	-7.749	
228.00	-47.084	-16.043	
229.00	-46.414	-26.663	
230.00	-46.547	-37.271	
231.00	-47.016	-48.649	
232.00	-47.787	-60.259	
233.00	-48.867	-77.549	
234.00	-50.005	-93.092	
235.00	-50.990	-108.963	
236.00	-52.436	-134.007	
237.00	-53.268	-157.906	
238.00	-53.554	-179.655	
239.00	-53.696	155.406	
240.00	-53.796	133.357	
241.00	-53.240	114.994	
242.00	-52.684	94.913	
243.00	-52.878	81.558	
244.00	-52.197	68.203	
245.00	-52.568	52.578	
246.00	-52.938	38.134	
247.00	-53.058	25.103	
248.00	-53.927	14.604	
249.00	-54.185	-2.795	
250.00	-54.789	-15.153	
251.00	-55.356	-28.609	
252.00	-55.507	-41.133	
253.00	-56.040	-58.507	
254.00	-55.925	-75.745	
255.00	-55.231	-80.105	
256.00	-56.464	-89.741	
257.00	-55.994	-101.814	
258.00	-56.200	-109.618	
259.00	-56.932	-112.494	
260.00	-57.079	-130.451	
261.00	-57.707	-131.810	
262.00	-59.136	-136.624	
263.00	-60.303	-137.536	
264.00	-60.526	-158.416	
265.00	-64.142	-153.271	
266.00	-64.308	-172.509	
267.00	-63.889	166.445	
268.00	-67.569	-122.444	
269.00	-72.547	-27.143	
270.00	-80.946	115.432	
271.00	-70.405	-14.055	
272.00	-67.955	-55.753	
273.00	-65.919	-36.698	
274.00	-67.226	-47.884	
275.00	-65.709	-68.250	
276.00	-63.905	-74.572	
277.00	-63.013	-89.338	
278.00	-62.517	-99.327	
279.00	-61.167	-119.653	
280.00	-62.266	-123.814	
281.00	-61.114	-135.191	
282.00	-61.559	-139.246	
283.00	-61.656	-163.537	
284.00	-61.498	-165.577	
285.00	-62.161	176.349	
286.00	-62.257	157.000	
287.00	-64.113	157.878	
288.00	-61.382	129.945	
289.00	-59.762	116.014	
290.00	-59.629	140.650	
291.00	-58.151	102.300	
292.00	-59.815	102.372	
293.00	-57.602	99.980	
294.00	-57.114	93.711	
295.00	-55.743	86.035	
296.00	-54.077	87.360	
297.00	-53.547	83.575	
298.00	-53.189	76.439	
299.00	-53.344	75.917	
300.00	-54.225	75.483	
301.00	-54.813	66.385	
302.00	-55.707	60.799	
303.00	-57.450	55.419	
304.00	-58.294	43.789	
305.00	-60.256	38.235	
306.00	-62.822	36.985	
307.00	-69.625	5.313	
308.00	-72.613	21.893	
309.00	-77.302	-6.658	
310.00	-69.844	45.114	
311.00	-70.422	55.769	
312.00	-64.665	74.232	
313.00	-62.160	62.724	
314.00	-59.121	50.037	
315.00	-58.331	50.574	
316.00	-56.938	45.694	
317.00	-56.236	38.393	
318.00	-55.859	29.701	
319.00	-55.591	25.197	
320.00	-55.745	19.144	
321.00	-57.045	8.650	
322.00	-58.110	9.307	
323.00	-60.964	3.945	
324.00	-61.836	9.011	
325.00	-63.286	-10.300	
326.00	-68.175	-6.433	
327.00	-69.732	-26.556	
328.00	-77.377	-157.259	
329.00	-76.760	158.264	
330.00	-76.596	127.126	
331.00	-76.213	-164.973	
332.00	-69.969	141.482	
333.00	-84.755	95.978	
334.00	-73.506	-130.330	
335.00	-65.949	-63.606	
336.00	-68.834	-69.534	
337.00	-63.326	-55.004	
338.00	-60.818	-81.674	
339.00	-62.563	-105.800	
340.00	-61.272	-106.642	
341.00	-61.618	-126.465	
342.00	-61.541	-139.434	
343.00	-62.452	-150.278	
344.00	-64.074	-167.459	
345.00	-70.172	162.969	
346.00	-67.003	85.088	
347.00	-65.522	56.908	
348.00	-60.571	37.780	
349.00	-58.929	31.451	
350.00	-56.465	29.562	
351.00	-55.062	15.368	
352.00	-54.226	14.196	
353.00	-54.476	3.781	
354.00	-53.701	-1.115	
355.00	-53.347	-4.256	
356.00	-53.576	-6.193	
357.00	-53.663	-23.909	
358.00	-53.423	-19.603	
359.00	-54.362	-32.198	
Frequency	1800.00	MHz	
Channel	test		
Scan Axis name	Azimuth  [deg]		
Scan Axis	Amplitude	Phase	
			
0.00	-59.168	174.895	
1.00	-59.476	153.350	
2.00	-60.466	156.977	
3.00	-62.409	168.301	
4.00	-60.421	-169.237	
5.00	-60.521	-151.962	
6.00	-59.457	-143.552	
7.00	-57.359	-144.024	
8.00	-55.851	-143.551	
9.00	-55.479	-146.218	
10.00	-55.788	-148.333	
11.00	-55.617	-157.653	
12.00	-56.285	-159.547	
13.00	-58.410	-167.639	
14.00	-59.892	-164.669	
15.00	-61.563	-162.227	
16.00	-65.066	-164.596	
17.00	-70.367	-152.139	
18.00	-69.558	-153.063	
19.00	-73.991	-125.980	
20.00	-73.431	-137.875	
21.00	-81.424	-154.755	
22.00	-72.815	-125.736	
23.00	-74.211	140.678	
24.00	-73.701	-177.337	
25.00	-71.888	-154.909	
26.00	-70.857	-153.060	
27.00	-70.721	-166.676	
28.00	-70.324	-144.882	
29.00	-68.129	-143.446	
30.00	-66.540	-138.404	
31.00	-69.050	-146.145	
32.00	-68.455	-145.637	
33.00	-72.272	-172.080	
34.00	-75.542	112.798	
35.00	-68.069	99.740	
36.00	-63.507	65.969	
37.00	-66.208	61.820	
38.00	-61.882	70.884	
39.00	-60.365	81.931	
40.00	-59.279	77.595	
41.00	-60.637	75.832	
42.00	-61.179	76.264	
43.00	-62.611	78.629	
44.00	-62.844	47.893	
45.00	-67.686	68.166	
46.00	-70.386	26.306	
47.00	-68.463	38.933	
48.00	-69.847	5.996	
49.00	-81.427	-33.247	
50.00	-82.500	-23.901	
51.00	-84.045	-152.389	
52.00	-74.897	154.059	
53.00	-72.641	162.854	
54.00	-69.405	169.083	
55.00	-66.141	177.017	
56.00	-67.502	172.249	
57.00	-65.674	-177.269	
58.00	-66.725	-175.863	
59.00	-68.019	-160.994	
60.00	-69.749	-139.672	
61.00	-76.652	-124.952	
62.00	-72.491	-97.895	
63.00	-70.999	-56.773	
64.00	-68.780	-48.172	
65.00	-64.554	-28.218	
66.00	-63.653	-26.749	
67.00	-61.736	-17.766	
68.00	-60.376	-12.440	
69.00	-59.188	-5.664	
70.00	-58.277	-0.260	
71.00	-57.885	1.398	
72.00	-57.113	8.447	
73.00	-56.841	11.277	
74.00	-57.369	21.343	
75.00	-57.684	29.157	
76.00	-58.011	38.218	
77.00	-59.035	46.619	
78.00	-59.643	56.240	
79.00	-60.305	74.099	
80.00	-62.906	85.744	
81.00	-63.470	113.364	
82.00	-63.558	148.894	
83.00	-63.143	175.070	
84.00	-63.936	-154.439	
85.00	-62.565	-138.154	
86.00	-61.399	-121.374	
87.00	-58.613	-103.660	
88.00	-58.908	-93.909	
89.00	-57.783	-72.957	
90.00	-56.861	-50.144	
91.00	-56.954	-38.232	
92.00	-56.207	-23.710	
93.00	-55.332	-7.246	
94.00	-55.119	6.153	
95.00	-54.297	22.854	
96.00	-54.294	36.994	
97.00	-54.042	50.652	
98.00	-53.741	64.836	
99.00	-53.339	77.484	
100.00	-52.780	94.034	
101.00	-52.796	111.724	
102.00	-52.661	126.861	
103.00	-52.883	138.375	
104.00	-52.883	153.170	
105.00	-53.276	164.539	
106.00	-53.603	175.679	
107.00	-54.514	-176.511	
108.00	-55.291	-162.530	
109.00	-56.991	-150.383	
110.00	-56.854	-140.431	
111.00	-59.014	-136.749	
112.00	-60.864	-123.801	
113.00	-61.029	-118.973	
114.00	-59.723	-106.989	
115.00	-59.783	-108.474	
116.00	-57.495	-98.819	
117.00	-55.729	-95.753	
118.00	-53.910	-84.466	
119.00	-52.205	-73.233	
120.00	-51.407	-64.005	
121.00	-50.158	-51.149	
122.00	-49.421	-36.767	
123.00	-48.753	-22.119	
124.00	-48.284	-4.785	
125.00	-47.931	14.177	
126.00	-47.468	35.619	
127.00	-46.853	56.608	
128.00	-46.345	75.777	
129.00	-45.590	98.144	
130.00	-44.936	119.442	
131.00	-44.136	141.793	
132.00	-43.367	162.810	
133.00	-42.316	-175.494	
134.00	-41.269	-156.002	
135.00	-40.242	-137.158	
136.00	-39.364	-119.940	
137.00	-38.495	-104.031	
138.00	-37.884	-88.411	
139.00	-37.231	-73.377	
140.00	-36.984	-58.360	
141.00	-36.812	-44.505	
142.00	-36.895	-30.124	
143.00	-37.198	-16.608	
144.00	-37.562	-2.415	
145.00	-38.262	11.575	
146.00	-39.138	24.979	
147.00	-40.136	41.066	
148.00	-41.424	56.455	
149.00	-42.802	74.395	
150.00	-44.198	94.212	
151.00	-45.451	113.546	
152.00	-46.277	133.508	
153.00	-46.845	151.433	
154.00	-47.240	164.927	
155.00	-47.908	173.043	
156.00	-48.158	174.990	
157.00	-48.454	176.592	
158.00	-48.089	174.650	
159.00	-47.437	169.626	
160.00	-46.682	169.736	
161.00	-45.626	174.729	
162.00	-45.389	-177.576	
163.00	-45.384	-166.029	
164.00	-45.665	-150.174	
165.00	-45.736	-129.170	
166.00	-45.169	-103.587	
167.00	-44.054	-80.020	
168.00	-42.863	-61.845	
169.00	-41.617	-46.352	
170.00	-41.053	-35.131	
171.00	-41.296	-24.251	
172.00	-42.535	-14.573	
173.00	-46.102	-3.590	
174.00	-55.971	47.262	
175.00	-46.574	155.247	
176.00	-39.158	170.464	
177.00	-34.740	177.375	
178.00	-31.728	-177.579	
179.00	-29.348	-173.061	
180.00	-27.658	-169.249	
181.00	-26.363	-165.791	
182.00	-25.480	-162.567	
183.00	-24.917	-159.668	
184.00	-24.680	-156.494	
185.00	-24.757	-153.653	
186.00	-25.109	-150.279	
187.00	-25.745	-146.534	
188.00	-26.676	-142.402	
189.00	-27.973	-137.369	
190.00	-29.437	-130.523	
191.00	-31.238	-122.098	
192.00	-33.167	-110.899	
193.00	-34.958	-97.353	
194.00	-36.456	-81.547	
195.00	-37.610	-66.263	
196.00	-38.729	-53.158	
197.00	-39.756	-42.005	
198.00	-41.411	-32.890	
199.00	-43.687	-23.418	
200.00	-47.202	-8.413	
201.00	-49.977	14.893	
202.00	-51.801	49.494	
203.00	-50.586	75.291	
204.00	-49.455	85.463	
205.00	-49.208	91.207	
206.00	-49.912	85.119	
207.00	-51.806	70.735	
208.00	-53.358	40.815	
209.00	-53.517	4.210	
210.00	-51.551	-26.511	
211.00	-49.168	-43.509	
212.00	-47.501	-52.591	
213.00	-46.976	-59.270	
214.00	-47.251	-64.985	
215.00	-48.574	-72.262	
216.00	-50.275	-76.192	
217.00	-54.525	-77.959	
218.00	-60.200	-63.788	
219.00	-61.436	25.843	
220.00	-54.360	42.956	
221.00	-50.005	40.535	
222.00	-47.044	33.031	
223.00	-45.065	24.461	
224.00	-43.433	17.427	
225.00	-42.116	8.329	
226.00	-41.022	0.449	
227.00	-40.072	-5.922	
228.00	-39.413	-11.773	
229.00	-38.909	-17.641	
230.00	-38.596	-22.808	
231.00	-38.504	-27.215	
232.00	-38.400	-31.851	
233.00	-38.488	-35.755	
234.00	-38.856	-40.328	
235.00	-39.093	-44.899	
236.00	-39.216	-48.437	
237.00	-39.653	-52.835	
238.00	-40.121	-58.177	
239.00	-40.711	-63.760	
240.00	-41.033	-70.135	
241.00	-41.386	-76.858	
242.00	-41.709	-84.339	
243.00	-42.068	-91.418	
244.00	-42.084	-98.529	
245.00	-42.083	-106.467	
246.00	-42.125	-114.300	
247.00	-42.047	-120.946	
248.00	-42.103	-129.855	
249.00	-42.136	-136.885	
250.00	-42.201	-144.964	
251.00	-42.328	-153.227	
252.00	-42.569	-162.445	
253.00	-42.855	-171.287	
254.00	-43.068	177.810	
255.00	-43.330	166.771	
256.00	-43.702	155.190	
257.00	-44.051	142.743	
258.00	-44.294	130.078	
259.00	-44.587	118.277	
260.00	-44.827	104.293	
261.00	-45.402	91.247	
262.00	-45.549	76.747	
263.00	-45.960	63.085	
264.00	-46.519	48.484	
265.00	-47.052	34.307	
266.00	-47.418	18.848	
267.00	-48.095	2.103	
268.00	-48.731	-13.261	
269.00	-49.585	-29.913	
270.00	-50.341	-49.207	
271.00	-51.353	-67.436	
272.00	-52.039	-90.022	
273.00	-52.477	-114.099	
274.00	-52.511	-140.711	
275.00	-51.822	-163.211	
276.00	-51.407	178.298	
277.00	-50.911	159.993	
278.00	-50.545	144.820	
279.00	-50.513	129.553	
280.00	-50.472	114.537	
281.00	-51.125	99.056	
282.00	-52.139	83.415	
283.00	-53.361	65.875	
284.00	-54.829	42.565	
285.00	-55.955	22.931	
286.00	-57.278	-10.742	
287.00	-58.613	-48.017	
288.00	-58.543	-79.482	
289.00	-58.144	-106.929	
290.00	-57.448	-132.965	
291.00	-55.731	-156.832	
292.00	-54.990	-178.151	
293.00	-54.662	166.718	
294.00	-54.739	150.657	
295.00	-55.210	136.993	
296.00	-56.351	121.794	
297.00	-58.318	108.937	
298.00	-62.993	84.874	
299.00	-69.342	45.715	
300.00	-68.487	-60.599	
301.00	-63.072	-86.193	
302.00	-60.320	-107.525	
303.00	-58.820	-132.491	
304.00	-58.125	-150.862	
305.00	-56.752	-171.021	
306.00	-57.167	166.963	
307.00	-56.258	143.104	
308.00	-55.368	124.405	
309.00	-55.090	107.987	
310.00	-54.900	89.237	
311.00	-55.270	77.134	
312.00	-56.855	61.891	
313.00	-57.894	49.323	
314.00	-59.768	20.472	
315.00	-64.913	4.236	
316.00	-65.587	-42.442	
317.00	-64.260	-78.413	
318.00	-62.358	-104.638	
319.00	-60.980	-113.255	
320.00	-60.294	-127.273	
321.00	-58.924	-130.213	
322.00	-57.661	-142.940	
323.00	-56.601	-154.786	
324.00	-55.618	-162.939	
325.00	-54.982	-171.719	
326.00	-55.489	175.261	
327.00	-56.409	162.988	
328.00	-57.028	148.555	
329.00	-59.222	137.863	
330.00	-62.526	111.972	
331.00	-65.889	68.741	
332.00	-66.619	22.953	
333.00	-63.389	-13.837	
334.00	-61.810	-29.232	
335.00	-61.211	-42.931	
336.00	-62.085	-48.015	
337.00	-60.532	-39.794	
338.00	-62.455	-48.019	
339.00	-61.464	-47.224	
340.00	-61.253	-53.213	
341.00	-62.088	-67.247	
342.00	-61.962	-85.702	
343.00	-60.972	-114.893	
344.00	-59.983	-139.437	
345.00	-58.330	-160.245	
346.00	-56.551	-174.038	
347.00	-55.623	172.085	
348.00	-55.016	163.921	
349.00	-55.466	155.665	
350.00	-55.761	151.151	
351.00	-57.042	145.981	
352.00	-57.438	143.623	
353.00	-60.099	138.654	
354.00	-59.569	140.593	
355.00	-60.732	142.212	
356.00	-61.452	146.890	
357.00	-61.425	161.559	
358.00	-62.012	161.535	
359.00	-59.686	162.671	
Frequency	1850.00	MHz	
Channel	test		
Scan Axis name	Azimuth  [deg]		
Scan Axis	Amplitude	Phase	
			
0.00	-73.437	39.892	
1.00	-77.270	24.232	
2.00	-73.624	-63.327	
3.00	-68.108	-88.145	
4.00	-64.260	-104.105	
5.00	-61.667	-102.029	
6.00	-59.148	-92.177	
7.00	-59.413	-105.444	
8.00	-60.402	-108.924	
9.00	-61.983	-123.446	
10.00	-65.093	-115.597	
11.00	-68.092	-120.811	
12.00	-80.044	-105.613	
13.00	-76.059	-153.362	
14.00	-88.374	88.836	
15.00	-87.414	101.596	
16.00	-66.208	90.349	
17.00	-67.579	177.777	
18.00	-64.819	-173.704	
19.00	-62.737	-170.247	
20.00	-63.183	-164.792	
21.00	-65.418	-165.817	
22.00	-68.570	-153.888	
23.00	-76.675	164.918	
24.00	-71.476	60.341	
25.00	-66.536	72.240	
26.00	-61.962	66.334	
27.00	-59.626	70.687	
28.00	-59.017	81.978	
29.00	-58.670	89.921	
30.00	-58.699	99.561	
31.00	-59.662	113.460	
32.00	-60.023	126.617	
33.00	-61.507	145.552	
34.00	-61.847	164.683	
35.00	-62.676	-173.756	
36.00	-63.507	-137.956	
37.00	-76.795	151.733	
38.00	-59.997	-88.242	
39.00	-60.478	-76.254	
40.00	-60.057	-57.359	
41.00	-60.538	-39.677	
42.00	-60.153	-23.959	
43.00	-61.755	-8.077	
44.00	-62.940	13.298	
45.00	-65.366	32.418	
46.00	-68.101	42.879	
47.00	-67.418	81.371	
48.00	-68.350	103.705	
49.00	-67.034	121.957	
50.00	-65.555	122.676	
51.00	-66.012	132.138	
52.00	-65.691	138.001	
53.00	-63.613	136.911	
54.00	-63.545	161.833	
55.00	-62.389	172.288	
56.00	-61.501	-167.333	
57.00	-60.393	-148.672	
58.00	-59.800	-130.699	
59.00	-59.295	-112.935	
60.00	-58.973	-94.319	
61.00	-58.731	-78.552	
62.00	-58.952	-60.941	
63.00	-59.890	-42.082	
64.00	-60.083	-24.245	
65.00	-61.455	2.795	
66.00	-62.137	26.368	
67.00	-63.415	50.438	
68.00	-63.864	76.145	
69.00	-65.119	102.930	
70.00	-65.428	129.574	
71.00	-66.537	158.212	
72.00	-66.422	-172.254	
73.00	-66.669	-131.730	
74.00	-66.128	-94.614	
75.00	-63.982	-68.174	
76.00	-62.236	-48.626	
77.00	-60.416	-28.948	
78.00	-59.326	-14.218	
79.00	-58.546	-1.080	
80.00	-57.371	12.513	
81.00	-57.070	22.435	
82.00	-57.619	31.961	
83.00	-57.818	40.728	
84.00	-57.475	55.354	
85.00	-57.977	54.630	
86.00	-60.501	69.028	
87.00	-64.111	84.405	
88.00	-64.742	75.089	
89.00	-69.140	70.577	
90.00	-72.042	45.145	
91.00	-77.371	17.630	
92.00	-72.421	-29.710	
93.00	-69.466	-19.530	
94.00	-67.902	-33.224	
95.00	-65.804	-17.929	
96.00	-66.087	-13.176	
97.00	-68.225	18.949	
98.00	-70.018	29.463	
99.00	-70.269	50.384	
100.00	-69.066	90.713	
101.00	-65.397	132.282	
102.00	-62.790	150.972	
103.00	-61.264	158.547	
104.00	-59.325	167.706	
105.00	-57.731	176.964	
106.00	-56.686	-178.475	
107.00	-55.592	-170.462	
108.00	-54.511	-164.795	
109.00	-53.555	-155.763	
110.00	-52.467	-150.229	
111.00	-51.458	-141.134	
112.00	-50.249	-134.736	
113.00	-49.204	-124.713	
114.00	-48.076	-116.886	
115.00	-47.048	-107.601	
116.00	-46.108	-98.490	
117.00	-45.166	-89.480	
118.00	-44.419	-79.008	
119.00	-43.753	-68.900	
120.00	-43.171	-57.572	
121.00	-42.763	-46.843	
122.00	-42.425	-34.214	
123.00	-42.214	-23.450	
124.00	-42.167	-10.697	
125.00	-42.052	2.028	
126.00	-42.099	15.179	
127.00	-42.261	28.231	
128.00	-42.660	40.558	
129.00	-43.169	53.827	
130.00	-43.877	65.966	
131.00	-44.977	78.557	
132.00	-46.371	89.920	
133.00	-48.545	100.222	
134.00	-51.766	107.882	
135.00	-57.412	99.824	
136.00	-59.828	28.286	
137.00	-52.081	1.817	
138.00	-47.361	5.079	
139.00	-43.844	10.712	
140.00	-41.506	18.614	
141.00	-39.743	25.249	
142.00	-38.334	32.831	
143.00	-37.388	39.445	
144.00	-36.808	46.303	
145.00	-36.533	52.445	
146.00	-36.605	58.352	
147.00	-36.963	64.238	
148.00	-37.692	69.562	
149.00	-38.722	73.948	
150.00	-40.093	78.506	
151.00	-42.028	80.887	
152.00	-44.729	81.902	
153.00	-48.471	79.386	
154.00	-54.516	60.378	
155.00	-58.130	-4.192	
156.00	-52.464	-44.732	
157.00	-48.806	-54.810	
158.00	-46.662	-57.755	
159.00	-45.301	-59.311	
160.00	-44.615	-59.001	
161.00	-44.219	-57.338	
162.00	-44.184	-54.789	
163.00	-44.290	-49.798	
164.00	-44.631	-42.026	
165.00	-44.904	-29.498	
166.00	-44.741	-12.627	
167.00	-43.685	5.638	
168.00	-41.910	20.439	
169.00	-39.800	30.661	
170.00	-37.807	36.374	
171.00	-36.212	38.576	
172.00	-34.926	38.233	
173.00	-33.965	35.349	
174.00	-33.230	30.075	
175.00	-32.549	22.616	
176.00	-31.886	13.095	
177.00	-31.042	2.284	
178.00	-29.984	-8.476	
179.00	-28.765	-18.355	
180.00	-27.527	-26.824	
181.00	-26.398	-33.827	
182.00	-25.432	-39.744	
183.00	-24.713	-44.782	
184.00	-24.212	-49.153	
185.00	-23.980	-53.091	
186.00	-24.027	-56.799	
187.00	-24.370	-60.419	
188.00	-25.014	-63.903	
189.00	-26.017	-67.638	
190.00	-27.387	-71.557	
191.00	-29.229	-75.928	
192.00	-31.709	-81.674	
193.00	-34.984	-89.387	
194.00	-39.599	-103.841	
195.00	-45.342	-141.850	
196.00	-45.100	157.789	
197.00	-41.809	131.670	
198.00	-39.959	121.753	
199.00	-39.333	117.305	
200.00	-39.492	117.194	
201.00	-40.097	119.717	
202.00	-40.879	125.723	
203.00	-41.436	131.593	
204.00	-41.745	137.545	
205.00	-41.932	139.570	
206.00	-42.027	136.286	
207.00	-41.978	128.689	
208.00	-42.495	112.843	
209.00	-42.611	93.316	
210.00	-41.764	71.800	
211.00	-40.666	51.490	
212.00	-39.422	34.021	
213.00	-38.387	19.742	
214.00	-37.669	6.334	
215.00	-37.322	-5.936	
216.00	-37.360	-18.106	
217.00	-37.860	-31.179	
218.00	-38.771	-45.049	
219.00	-40.268	-60.665	
220.00	-42.255	-80.287	
221.00	-44.634	-109.090	
222.00	-46.114	-150.904	
223.00	-44.632	166.041	
224.00	-41.974	135.929	
225.00	-39.627	115.610	
226.00	-37.782	99.611	
227.00	-36.371	85.768	
228.00	-35.418	73.820	
229.00	-34.734	61.976	
230.00	-34.403	51.438	
231.00	-34.281	40.784	
232.00	-34.392	30.028	
233.00	-34.688	19.147	
234.00	-35.155	8.180	
235.00	-35.753	-3.504	
236.00	-36.485	-14.056	
237.00	-37.373	-25.238	
238.00	-38.321	-35.931	
239.00	-39.481	-46.755	
240.00	-40.658	-56.637	
241.00	-42.114	-64.824	
242.00	-43.607	-72.357	
243.00	-45.483	-77.397	
244.00	-47.407	-78.769	
245.00	-49.228	-74.968	
246.00	-50.314	-64.503	
247.00	-50.567	-57.070	
248.00	-49.716	-51.759	
249.00	-48.857	-51.877	
250.00	-47.878	-55.689	
251.00	-47.288	-62.475	
252.00	-46.804	-71.352	
253.00	-46.507	-81.930	
254.00	-46.425	-93.388	
255.00	-46.449	-106.461	
256.00	-46.570	-120.062	
257.00	-46.671	-134.746	
258.00	-46.918	-150.511	
259.00	-47.019	-166.084	
260.00	-47.211	177.715	
261.00	-47.370	161.867	
262.00	-47.585	145.383	
263.00	-47.784	129.220	
264.00	-48.102	112.945	
265.00	-48.501	96.689	
266.00	-48.553	83.341	
267.00	-49.306	61.917	
268.00	-49.755	45.215	
269.00	-50.163	26.201	
270.00	-50.491	7.352	
271.00	-50.707	-11.435	
272.00	-50.800	-29.762	
273.00	-50.860	-46.288	
274.00	-50.929	-64.802	
275.00	-51.132	-80.099	
276.00	-51.526	-94.061	
277.00	-51.508	-106.223	
278.00	-52.679	-122.814	
279.00	-54.040	-134.696	
280.00	-54.890	-149.555	
281.00	-58.140	-154.633	
282.00	-59.993	-176.818	
283.00	-65.373	171.567	
284.00	-77.783	80.659	
285.00	-68.872	2.595	
286.00	-63.246	-28.868	
287.00	-59.763	-41.346	
288.00	-58.314	-57.699	
289.00	-58.065	-72.614	
290.00	-57.940	-88.443	
291.00	-57.294	-107.267	
292.00	-57.408	-120.729	
293.00	-57.677	-141.635	
294.00	-57.842	-152.930	
295.00	-62.393	169.817	
296.00	-56.876	-145.864	
297.00	-62.224	159.323	
298.00	-65.237	140.709	
299.00	-69.467	127.022	
300.00	-79.525	96.867	
301.00	-79.346	-33.623	
302.00	-72.052	-87.092	
303.00	-68.061	-93.618	
304.00	-66.168	-115.990	
305.00	-63.996	-128.273	
306.00	-63.549	-153.079	
307.00	-63.430	-153.906	
308.00	-64.273	-165.667	
309.00	-63.967	-171.601	
310.00	-70.222	-161.528	
311.00	-76.356	-121.527	
312.00	-78.717	-15.659	
313.00	-66.887	-50.845	
314.00	-63.782	-44.080	
315.00	-61.833	-49.931	
316.00	-60.277	-53.747	
317.00	-58.388	-46.653	
318.00	-59.124	-54.164	
319.00	-58.439	-56.319	
320.00	-58.374	-59.931	
321.00	-58.544	-64.324	
322.00	-58.456	-69.588	
323.00	-59.477	-75.607	
324.00	-60.921	-81.486	
325.00	-63.840	-88.512	
326.00	-68.244	-78.727	
327.00	-75.510	-26.138	
328.00	-69.619	27.672	
329.00	-63.950	29.792	
330.00	-62.522	25.699	
331.00	-62.032	17.437	
332.00	-61.816	30.155	
333.00	-61.303	13.577	
334.00	-69.752	-13.075	
335.00	-76.928	-3.167	
336.00	-83.064	171.753	
337.00	-74.732	143.619	
338.00	-79.832	80.375	
339.00	-75.735	116.493	
340.00	-61.104	-139.750	
341.00	-79.424	-98.141	
342.00	-70.166	-93.541	
343.00	-65.069	-99.483	
344.00	-61.963	-98.188	
345.00	-60.182	-97.650	
346.00	-59.369	-93.158	
347.00	-58.415	-88.626	
348.00	-57.996	-79.104	
349.00	-58.066	-70.362	
350.00	-57.248	-65.552	
351.00	-57.412	-60.868	
352.00	-57.652	-57.149	
353.00	-58.307	-53.754	
354.00	-57.202	-45.416	
355.00	-61.805	-47.980	
356.00	-62.415	-53.295	
357.00	-66.259	-21.898	
358.00	-69.250	-64.408	
359.00	-77.396	4.296	
Frequency	1950.00	MHz	
Channel	test		
Scan Axis name	Azimuth  [deg]		
Scan Axis	Amplitude	Phase	
			
0.00	-62.569	106.754	
1.00	-61.890	114.003	
2.00	-61.316	135.149	
3.00	-63.172	127.315	
4.00	-63.651	135.123	
5.00	-65.694	139.209	
6.00	-66.901	141.960	
7.00	-68.559	131.634	
8.00	-71.214	80.512	
9.00	-66.223	44.901	
10.00	-63.155	40.498	
11.00	-61.897	33.856	
12.00	-61.301	39.102	
13.00	-61.778	34.637	
14.00	-61.944	37.616	
15.00	-64.215	40.086	
16.00	-65.464	48.565	
17.00	-68.545	39.583	
18.00	-72.074	56.935	
19.00	-78.156	73.563	
20.00	-81.593	-44.848	
21.00	-73.542	-10.738	
22.00	-70.632	-39.062	
23.00	-66.238	-23.874	
24.00	-63.385	-9.749	
25.00	-62.259	2.087	
26.00	-62.001	11.523	
27.00	-61.410	25.081	
28.00	-62.960	24.514	
29.00	-63.780	34.959	
30.00	-66.053	47.327	
31.00	-67.180	39.600	
32.00	-69.547	56.837	
33.00	-73.746	50.881	
34.00	-76.400	60.312	
35.00	-77.990	97.623	
36.00	-81.869	150.356	
37.00	-71.641	168.482	
38.00	-66.999	176.343	
39.00	-64.365	176.504	
40.00	-62.945	173.583	
41.00	-60.929	165.365	
42.00	-59.497	171.483	
43.00	-59.477	-179.887	
44.00	-58.767	-171.008	
45.00	-59.236	-167.913	
46.00	-62.151	-142.420	
47.00	-64.138	-138.445	
48.00	-70.959	-114.533	
49.00	-72.386	-53.394	
50.00	-68.791	24.968	
51.00	-63.551	45.567	
52.00	-60.701	64.283	
53.00	-59.559	80.579	
54.00	-58.949	93.797	
55.00	-59.857	108.894	
56.00	-59.871	124.155	
57.00	-61.177	147.844	
58.00	-61.538	158.109	
59.00	-61.876	166.770	
60.00	-63.454	-171.743	
61.00	-63.478	-169.446	
62.00	-63.528	-168.747	
63.00	-65.073	-168.888	
64.00	-63.675	-168.467	
65.00	-64.338	177.481	
66.00	-65.394	-168.465	
67.00	-67.472	-136.127	
68.00	-70.553	-109.952	
69.00	-68.733	-52.445	
70.00	-64.691	-28.929	
71.00	-61.960	-6.097	
72.00	-59.006	8.677	
73.00	-58.130	21.805	
74.00	-56.949	38.172	
75.00	-56.442	52.531	
76.00	-56.123	66.717	
77.00	-56.482	84.534	
78.00	-56.691	101.191	
79.00	-55.685	117.699	
80.00	-56.761	141.417	
81.00	-56.681	164.535	
82.00	-56.937	-176.686	
83.00	-56.801	-155.549	
84.00	-55.581	-135.370	
85.00	-56.008	-113.602	
86.00	-55.915	-92.467	
87.00	-54.939	-73.400	
88.00	-55.570	-52.202	
89.00	-54.695	-34.241	
90.00	-54.097	-17.558	
91.00	-53.905	1.378	
92.00	-53.558	22.343	
93.00	-53.211	39.115	
94.00	-52.522	58.921	
95.00	-51.815	77.069	
96.00	-51.082	94.074	
97.00	-50.406	108.817	
98.00	-49.881	120.872	
99.00	-49.760	133.357	
100.00	-49.783	145.462	
101.00	-50.185	164.687	
102.00	-50.591	-178.807	
103.00	-51.530	-161.889	
104.00	-52.571	-145.534	
105.00	-53.125	-125.996	
106.00	-53.626	-106.167	
107.00	-53.757	-88.086	
108.00	-54.132	-73.138	
109.00	-54.912	-58.249	
110.00	-56.412	-51.554	
111.00	-58.320	-48.272	
112.00	-61.163	-58.962	
113.00	-62.160	-94.871	
114.00	-58.163	-118.448	
115.00	-55.303	-117.143	
116.00	-52.507	-109.877	
117.00	-50.498	-97.294	
118.00	-49.266	-80.882	
119.00	-47.986	-63.652	
120.00	-46.430	-43.931	
121.00	-45.049	-26.453	
122.00	-43.676	-6.686	
123.00	-42.237	10.130	
124.00	-41.034	27.936	
125.00	-39.887	43.959	
126.00	-38.942	58.765	
127.00	-38.136	73.743	
128.00	-37.601	86.989	
129.00	-37.200	101.666	
130.00	-37.147	115.150	
131.00	-37.313	129.758	
132.00	-37.609	144.176	
133.00	-38.199	159.434	
134.00	-39.124	174.369	
135.00	-40.216	-168.816	
136.00	-41.809	-150.656	
137.00	-43.761	-129.255	
138.00	-45.907	-100.956	
139.00	-47.448	-60.387	
140.00	-47.298	-18.650	
141.00	-44.990	14.054	
142.00	-42.779	38.621	
143.00	-41.295	56.431	
144.00	-40.035	73.099	
145.00	-39.129	86.385	
146.00	-38.577	99.374	
147.00	-38.296	111.616	
148.00	-38.117	122.565	
149.00	-38.250	134.044	
150.00	-38.392	143.739	
151.00	-38.783	152.158	
152.00	-39.420	160.316	
153.00	-40.243	167.558	
154.00	-41.459	173.604	
155.00	-42.891	178.464	
156.00	-44.970	-178.789	
157.00	-47.854	-179.791	
158.00	-53.059	171.993	
159.00	-58.061	120.332	
160.00	-53.541	69.402	
161.00	-48.507	57.117	
162.00	-45.496	57.265	
163.00	-43.500	59.303	
164.00	-42.366	60.043	
165.00	-41.516	61.913	
166.00	-41.463	64.214	
167.00	-41.606	66.394	
168.00	-42.244	67.140	
169.00	-43.181	68.819	
170.00	-44.330	69.726	
171.00	-46.207	71.661	
172.00	-46.606	77.177	
173.00	-47.128	84.854	
174.00	-46.271	94.188	
175.00	-44.417	99.294	
176.00	-41.975	102.518	
177.00	-39.455	103.098	
178.00	-37.193	102.896	
179.00	-35.208	101.190	
180.00	-33.606	100.060	
181.00	-32.285	98.424	
182.00	-31.263	96.819	
183.00	-30.584	95.493	
184.00	-30.161	94.341	
185.00	-30.093	93.324	
186.00	-30.376	92.827	
187.00	-30.998	92.874	
188.00	-31.979	93.313	
189.00	-33.449	94.853	
190.00	-35.495	98.002	
191.00	-37.754	104.913	
192.00	-40.514	117.163	
193.00	-42.864	137.469	
194.00	-43.869	162.783	
195.00	-44.006	-178.878	
196.00	-43.814	-165.437	
197.00	-44.015	-156.358	
198.00	-44.908	-146.991	
199.00	-45.992	-135.048	
200.00	-46.943	-121.566	
201.00	-47.389	-108.803	
202.00	-47.172	-99.343	
203.00	-47.239	-100.613	
204.00	-47.504	-110.173	
205.00	-48.202	-129.217	
206.00	-47.970	-159.719	
207.00	-45.743	171.078	
208.00	-43.299	148.722	
209.00	-40.835	133.860	
210.00	-39.222	121.028	
211.00	-38.079	110.042	
212.00	-37.511	99.300	
213.00	-37.534	89.576	
214.00	-38.054	79.249	
215.00	-39.451	67.962	
216.00	-41.764	55.405	
217.00	-46.057	36.140	
218.00	-53.345	-10.504	
219.00	-49.519	-106.456	
220.00	-43.384	-134.414	
221.00	-39.889	-149.728	
222.00	-37.574	-162.973	
223.00	-36.090	-174.991	
224.00	-35.124	172.771	
225.00	-34.587	160.533	
226.00	-34.366	148.507	
227.00	-34.479	136.058	
228.00	-34.838	123.960	
229.00	-35.467	111.538	
230.00	-36.355	99.230	
231.00	-37.710	86.354	
232.00	-39.346	73.753	
233.00	-41.785	60.544	
234.00	-45.277	45.082	
235.00	-50.030	24.302	
236.00	-58.950	-27.674	
237.00	-53.868	-130.887	
238.00	-48.387	-152.981	
239.00	-45.473	-171.794	
240.00	-43.763	173.955	
241.00	-42.875	160.191	
242.00	-42.166	146.180	
243.00	-42.020	132.181	
244.00	-41.962	117.744	
245.00	-42.050	103.943	
246.00	-42.358	88.892	
247.00	-42.721	73.381	
248.00	-43.304	57.871	
249.00	-43.917	42.599	
250.00	-44.630	25.334	
251.00	-45.386	8.390	
252.00	-46.211	-11.174	
253.00	-46.651	-30.802	
254.00	-47.410	-50.080	
255.00	-47.668	-70.138	
256.00	-47.928	-89.194	
257.00	-48.313	-107.394	
258.00	-48.592	-125.731	
259.00	-48.653	-145.913	
260.00	-48.613	-164.073	
261.00	-48.629	-179.664	
262.00	-48.659	161.422	
263.00	-48.808	145.917	
264.00	-49.039	130.812	
265.00	-49.435	116.270	
266.00	-49.888	102.884	
267.00	-50.899	85.915	
268.00	-51.797	71.390	
269.00	-53.137	53.191	
270.00	-54.326	32.372	
271.00	-55.498	9.868	
272.00	-56.111	-13.921	
273.00	-56.449	-42.124	
274.00	-56.047	-66.906	
275.00	-55.895	-86.664	
276.00	-55.586	-106.448	
277.00	-55.323	-124.455	
278.00	-54.996	-139.413	
279.00	-55.050	-155.306	
280.00	-54.849	-169.085	
281.00	-55.753	179.296	
282.00	-56.174	169.691	
283.00	-56.672	160.518	
284.00	-59.807	150.084	
285.00	-60.605	148.980	
286.00	-63.808	150.049	
287.00	-67.225	142.105	
288.00	-67.948	176.617	
289.00	-72.345	-172.617	
290.00	-66.826	-154.011	
291.00	-67.049	-131.050	
292.00	-65.680	-167.003	
293.00	-65.006	-172.329	
294.00	-65.549	176.155	
295.00	-64.302	167.076	
296.00	-63.130	157.981	
297.00	-64.656	156.734	
298.00	-65.262	159.881	
299.00	-66.171	167.404	
300.00	-66.878	176.417	
301.00	-67.170	-166.889	
302.00	-66.758	-167.434	
303.00	-66.773	-165.123	
304.00	-67.321	-169.162	
305.00	-70.448	-168.788	
306.00	-73.526	153.589	
307.00	-72.043	91.486	
308.00	-69.992	65.208	
309.00	-66.108	43.346	
310.00	-65.107	39.118	
311.00	-62.323	27.020	
312.00	-62.824	16.020	
313.00	-61.699	9.134	
314.00	-61.923	5.236	
315.00	-62.486	-2.251	
316.00	-64.510	-11.772	
317.00	-63.491	-13.089	
318.00	-63.817	-6.773	
319.00	-64.437	-17.702	
320.00	-67.024	-16.267	
321.00	-66.111	-40.285	
322.00	-68.969	-28.269	
323.00	-71.364	-65.904	
324.00	-75.002	-85.448	
325.00	-74.751	-113.342	
326.00	-73.335	176.085	
327.00	-72.279	174.343	
328.00	-70.740	172.988	
329.00	-72.115	-178.726	
330.00	-71.742	-144.027	
331.00	-83.793	161.987	
332.00	-78.984	-89.199	
333.00	-72.261	-96.522	
334.00	-79.437	-112.369	
335.00	-69.116	-135.486	
336.00	-70.094	-172.710	
337.00	-78.922	-91.335	
338.00	-67.629	-169.377	
339.00	-67.667	175.608	
340.00	-68.118	-168.763	
341.00	-64.624	-175.269	
342.00	-64.323	178.716	
343.00	-64.090	169.518	
344.00	-63.520	167.858	
345.00	-62.312	150.157	
346.00	-62.294	125.408	
347.00	-63.350	126.353	
348.00	-63.719	110.386	
349.00	-64.943	116.751	
350.00	-65.346	111.203	
351.00	-68.261	109.430	
352.00	-68.554	110.440	
353.00	-66.811	97.310	
354.00	-66.770	108.650	
355.00	-66.598	120.754	
356.00	-63.678	110.352	
357.00	-62.589	110.662	
358.00	-61.567	107.919	
359.00	-62.187	110.341	
Frequency	2050.00	MHz	
Channel	test		
Scan Axis name	Azimuth  [deg]		
Scan Axis	Amplitude	Phase	
			
0.00	-68.364	143.710	
1.00	-61.749	152.471	
2.00	-58.650	144.365	
3.00	-57.002	140.286	
4.00	-56.012	143.203	
5.00	-56.076	138.709	
6.00	-57.045	133.458	
7.00	-57.850	125.538	
8.00	-59.497	108.542	
9.00	-60.949	89.402	
10.00	-60.675	67.669	
11.00	-60.295	59.714	
12.00	-60.943	44.898	
13.00	-60.030	52.130	
14.00	-61.080	57.278	
15.00	-62.338	58.985	
16.00	-62.674	66.258	
17.00	-67.294	75.524	
18.00	-70.198	90.456	
19.00	-73.108	98.011	
20.00	-72.808	112.784	
21.00	-80.122	27.514	
22.00	-75.627	4.996	
23.00	-74.248	13.646	
24.00	-71.085	23.879	
25.00	-71.482	64.165	
26.00	-69.741	100.738	
27.00	-65.171	137.409	
28.00	-62.498	145.110	
29.00	-60.854	161.328	
30.00	-60.326	166.366	
31.00	-60.438	179.242	
32.00	-60.528	-175.491	
33.00	-62.485	-164.552	
34.00	-63.488	-150.281	
35.00	-65.618	-146.190	
36.00	-67.519	-138.874	
37.00	-68.845	-133.746	
38.00	-70.618	-122.897	
39.00	-72.912	-132.909	
40.00	-72.801	-141.121	
41.00	-71.140	-159.957	
42.00	-70.294	-161.550	
43.00	-69.107	-144.675	
44.00	-67.414	-134.291	
45.00	-67.959	-137.908	
46.00	-66.709	-135.013	
47.00	-67.610	-120.480	
48.00	-67.755	-123.407	
49.00	-73.360	-101.684	
50.00	-84.952	-95.933	
51.00	-76.737	-140.859	
52.00	-74.784	102.146	
53.00	-73.156	106.792	
54.00	-69.640	107.541	
55.00	-68.010	105.581	
56.00	-67.830	119.390	
57.00	-72.041	100.262	
58.00	-73.034	75.361	
59.00	-70.716	65.641	
60.00	-72.648	47.611	
61.00	-71.859	39.728	
62.00	-71.801	19.517	
63.00	-74.376	-38.870	
64.00	-69.735	-26.529	
65.00	-67.044	-41.351	
66.00	-64.424	-55.233	
67.00	-65.411	-56.208	
68.00	-64.380	-54.654	
69.00	-65.919	-39.022	
70.00	-66.478	-22.628	
71.00	-69.279	-12.111	
72.00	-70.240	26.271	
73.00	-69.353	61.299	
74.00	-67.670	91.222	
75.00	-65.780	111.529	
76.00	-63.695	120.065	
77.00	-61.961	136.324	
78.00	-62.081	154.029	
79.00	-61.771	165.153	
80.00	-60.960	173.372	
81.00	-63.084	-175.548	
82.00	-62.146	-157.627	
83.00	-65.496	-144.174	
84.00	-66.388	-126.807	
85.00	-70.035	-104.051	
86.00	-69.222	-81.526	
87.00	-70.497	-35.889	
88.00	-68.231	-2.397	
89.00	-70.179	-5.645	
90.00	-63.977	-19.884	
91.00	-74.243	42.722	
92.00	-69.918	74.542	
93.00	-74.250	150.164	
94.00	-70.661	-178.290	
95.00	-64.666	-154.148	
96.00	-65.839	-143.191	
97.00	-61.901	-125.120	
98.00	-60.877	-112.668	
99.00	-60.240	-92.571	
100.00	-58.446	-80.664	
101.00	-58.908	-56.757	
102.00	-57.706	-35.071	
103.00	-57.353	-16.594	
104.00	-56.460	0.673	
105.00	-55.941	21.115	
106.00	-55.176	38.548	
107.00	-54.738	56.805	
108.00	-54.330	73.256	
109.00	-53.825	93.599	
110.00	-53.357	109.550	
111.00	-53.134	127.948	
112.00	-53.029	142.651	
113.00	-53.294	161.615	
114.00	-53.560	179.089	
115.00	-53.981	-162.252	
116.00	-55.067	-144.494	
117.00	-56.079	-123.749	
118.00	-58.517	-104.367	
119.00	-60.802	-75.705	
120.00	-64.496	-40.189	
121.00	-66.553	42.285	
122.00	-59.855	94.121	
123.00	-54.105	121.398	
124.00	-50.341	142.540	
125.00	-47.819	155.908	
126.00	-45.550	169.333	
127.00	-43.686	-176.937	
128.00	-42.375	-164.975	
129.00	-41.304	-152.356	
130.00	-40.562	-140.623	
131.00	-40.074	-128.484	
132.00	-39.780	-117.448	
133.00	-39.732	-105.821	
134.00	-39.945	-94.631	
135.00	-40.472	-84.006	
136.00	-41.367	-73.952	
137.00	-42.696	-63.752	
138.00	-44.642	-54.653	
139.00	-47.611	-46.905	
140.00	-52.540	-43.269	
141.00	-63.101	-90.879	
142.00	-54.161	-171.375	
143.00	-48.219	-172.774	
144.00	-44.786	-166.260	
145.00	-42.685	-160.208	
146.00	-41.217	-151.520	
147.00	-40.090	-144.050	
148.00	-39.546	-135.523	
149.00	-39.206	-125.458	
150.00	-39.211	-115.426	
151.00	-39.405	-104.412	
152.00	-39.659	-92.565	
153.00	-39.971	-79.971	
154.00	-40.275	-66.865	
155.00	-40.798	-54.624	
156.00	-41.409	-43.723	
157.00	-42.445	-33.885	
158.00	-43.723	-27.805	
159.00	-45.938	-26.491	
160.00	-49.190	-33.583	
161.00	-53.203	-66.276	
162.00	-51.509	-113.067	
163.00	-47.353	-134.396	
164.00	-44.645	-140.819	
165.00	-43.195	-145.794	
166.00	-42.348	-149.771	
167.00	-42.266	-156.920	
168.00	-42.620	-167.114	
169.00	-42.849	176.923	
170.00	-42.701	158.390	
171.00	-41.685	140.315	
172.00	-40.738	128.150	
173.00	-40.329	119.550	
174.00	-40.397	115.418	
175.00	-42.288	113.221	
176.00	-47.623	118.111	
177.00	-54.652	-125.686	
178.00	-41.427	-91.014	
179.00	-35.427	-87.598	
180.00	-31.599	-87.028	
181.00	-28.880	-87.384	
182.00	-26.909	-87.835	
183.00	-25.541	-88.511	
184.00	-24.611	-89.253	
185.00	-24.125	-89.919	
186.00	-24.009	-90.392	
187.00	-24.263	-90.768	
188.00	-24.915	-90.643	
189.00	-25.957	-89.970	
190.00	-27.351	-88.115	
191.00	-29.162	-84.614	
192.00	-31.222	-78.422	
193.00	-33.327	-68.553	
194.00	-35.149	-55.263	
195.00	-36.250	-41.103	
196.00	-36.780	-31.589	
197.00	-37.317	-26.721	
198.00	-38.172	-27.187	
199.00	-39.427	-32.381	
200.00	-41.013	-42.533	
201.00	-42.449	-57.750	
202.00	-43.386	-76.118	
203.00	-43.461	-92.239	
204.00	-43.088	-102.872	
205.00	-42.440	-107.200	
206.00	-41.670	-107.229	
207.00	-40.624	-105.543	
208.00	-39.422	-104.152	
209.00	-38.223	-104.066	
210.00	-37.291	-106.203	
211.00	-36.558	-109.726	
212.00	-36.147	-114.493	
213.00	-36.231	-120.344	
214.00	-36.697	-126.884	
215.00	-37.662	-133.517	
216.00	-39.173	-140.330	
217.00	-41.472	-145.606	
218.00	-44.902	-146.493	
219.00	-50.096	-130.954	
220.00	-51.469	-77.689	
221.00	-46.371	-54.122	
222.00	-42.783	-52.736	
223.00	-40.451	-58.826	
224.00	-38.981	-66.664	
225.00	-38.114	-75.236	
226.00	-37.671	-84.286	
227.00	-37.695	-93.539	
228.00	-38.089	-102.838	
229.00	-38.886	-111.656	
230.00	-40.045	-119.693	
231.00	-41.678	-127.354	
232.00	-43.823	-133.588	
233.00	-46.489	-137.492	
234.00	-49.710	-133.916	
235.00	-52.514	-120.983	
236.00	-53.052	-101.738	
237.00	-51.771	-90.689	
238.00	-50.077	-92.119	
239.00	-48.698	-100.262	
240.00	-47.732	-110.465	
241.00	-47.151	-122.521	
242.00	-46.618	-136.225	
243.00	-46.338	-149.225	
244.00	-46.242	-162.936	
245.00	-46.268	-176.560	
246.00	-46.368	170.260	
247.00	-46.569	157.080	
248.00	-46.880	143.888	
249.00	-47.395	130.140	
250.00	-47.950	116.815	
251.00	-48.737	103.851	
252.00	-49.576	90.115	
253.00	-50.573	75.333	
254.00	-51.787	59.400	
255.00	-52.915	40.020	
256.00	-53.955	19.971	
257.00	-54.718	-2.630	
258.00	-54.787	-24.728	
259.00	-54.646	-43.673	
260.00	-54.575	-61.894	
261.00	-54.875	-76.238	
262.00	-54.931	-92.485	
263.00	-55.512	-105.567	
264.00	-56.500	-119.753	
265.00	-57.619	-134.725	
266.00	-59.036	-149.658	
267.00	-60.583	-165.497	
268.00	-62.558	177.033	
269.00	-64.924	153.789	
270.00	-68.331	129.099	
271.00	-71.918	95.169	
272.00	-73.317	35.254	
273.00	-71.789	-12.609	
274.00	-69.250	-40.351	
275.00	-67.124	-66.487	
276.00	-65.274	-89.740	
277.00	-64.492	-114.165	
278.00	-62.650	-136.640	
279.00	-61.747	-160.956	
280.00	-60.632	-178.972	
281.00	-59.669	162.500	
282.00	-58.711	146.097	
283.00	-58.120	131.168	
284.00	-57.674	115.411	
285.00	-57.893	97.221	
286.00	-57.736	87.099	
287.00	-58.118	64.084	
288.00	-58.828	56.019	
289.00	-59.452	34.823	
290.00	-61.807	22.185	
291.00	-63.362	5.020	
292.00	-66.187	-13.345	
293.00	-68.151	-37.557	
294.00	-70.894	-57.326	
295.00	-72.445	-87.008	
296.00	-74.522	-104.515	
297.00	-80.272	-100.883	
298.00	-76.513	-37.933	
299.00	-70.972	-37.002	
300.00	-67.839	-45.457	
301.00	-65.320	-55.565	
302.00	-64.346	-66.897	
303.00	-63.155	-81.453	
304.00	-63.240	-98.291	
305.00	-63.314	-117.690	
306.00	-64.306	-137.090	
307.00	-65.538	-161.515	
308.00	-66.992	168.027	
309.00	-66.897	133.271	
310.00	-67.333	103.103	
311.00	-67.519	76.417	
312.00	-68.097	54.002	
313.00	-70.690	39.620	
314.00	-73.782	-3.190	
315.00	-77.052	-33.378	
316.00	-76.437	-119.553	
317.00	-76.637	-163.665	
318.00	-72.998	176.402	
319.00	-74.819	165.611	
320.00	-79.545	-178.809	
321.00	-78.542	-103.589	
322.00	-70.388	-86.412	
323.00	-67.002	-100.622	
324.00	-64.470	-106.773	
325.00	-63.081	-116.862	
326.00	-62.710	-121.984	
327.00	-62.615	-126.126	
328.00	-63.235	-135.000	
329.00	-62.836	-131.850	
330.00	-64.532	-125.118	
331.00	-63.078	-122.861	
332.00	-63.560	-116.819	
333.00	-65.306	-123.321	
334.00	-66.822	-122.554	
335.00	-78.804	-127.450	
336.00	-68.302	-120.401	
337.00	-73.767	-139.115	
338.00	-77.982	-159.097	
339.00	-69.917	132.887	
340.00	-67.503	104.371	
341.00	-63.773	103.069	
342.00	-63.009	111.451	
343.00	-61.067	101.169	
344.00	-61.197	104.140	
345.00	-61.971	105.858	
346.00	-62.854	111.665	
347.00	-63.407	123.686	
348.00	-65.970	139.559	
349.00	-66.638	141.673	
350.00	-69.317	141.192	
351.00	-88.895	68.117	
352.00	-73.505	-2.669	
353.00	-68.063	-24.872	
354.00	-63.038	-23.413	
355.00	-62.845	-18.958	
356.00	-62.595	-21.270	
357.00	-64.956	-19.204	
358.00	-72.354	-22.688	
359.00	-88.261	94.103	
Frequency	2170.00	MHz	
Channel	test		
Scan Axis name	Azimuth  [deg]		
Scan Axis	Amplitude	Phase	
			
0.00	-65.017	145.906	
1.00	-66.805	130.931	
2.00	-67.047	136.601	
3.00	-69.104	118.739	
4.00	-65.300	127.109	
5.00	-68.635	137.232	
6.00	-72.754	125.167	
7.00	-69.705	123.626	
8.00	-77.203	140.194	
9.00	-70.687	75.706	
10.00	-77.847	75.045	
11.00	-70.991	-50.977	
12.00	-73.548	-112.460	
13.00	-72.638	-146.729	
14.00	-68.560	-115.593	
15.00	-70.109	-146.601	
16.00	-63.570	-143.828	
17.00	-66.315	174.519	
18.00	-62.520	-163.133	
19.00	-65.056	169.188	
20.00	-68.806	114.435	
21.00	-67.949	117.459	
22.00	-63.821	91.283	
23.00	-63.896	80.127	
24.00	-59.993	94.899	
25.00	-60.647	90.736	
26.00	-60.550	92.511	
27.00	-60.583	91.077	
28.00	-63.030	86.663	
29.00	-66.913	89.406	
30.00	-67.746	145.093	
31.00	-68.827	90.953	
32.00	-77.139	106.077	
33.00	-72.138	102.153	
34.00	-76.194	103.942	
35.00	-70.581	27.705	
36.00	-66.856	37.744	
37.00	-66.184	28.520	
38.00	-63.777	52.160	
39.00	-63.458	61.838	
40.00	-62.374	73.974	
41.00	-63.483	95.332	
42.00	-64.651	112.244	
43.00	-65.168	138.599	
44.00	-64.376	155.981	
45.00	-63.484	161.659	
46.00	-64.493	171.012	
47.00	-64.824	177.110	
48.00	-65.658	163.035	
49.00	-66.042	157.129	
50.00	-65.831	128.132	
51.00	-64.814	120.004	
52.00	-63.309	97.005	
53.00	-60.500	88.108	
54.00	-58.706	89.500	
55.00	-57.333	92.423	
56.00	-56.646	97.833	
57.00	-56.127	107.409	
58.00	-55.615	120.695	
59.00	-55.286	127.985	
60.00	-55.975	146.075	
61.00	-55.713	155.020	
62.00	-56.183	171.621	
63.00	-57.543	-177.606	
64.00	-59.379	-165.707	
65.00	-61.228	-149.786	
66.00	-63.447	-135.357	
67.00	-67.389	-116.599	
68.00	-74.061	-57.553	
69.00	-72.112	-17.641	
70.00	-71.662	20.176	
71.00	-70.470	16.105	
72.00	-69.473	47.979	
73.00	-69.738	80.458	
74.00	-67.949	102.337	
75.00	-67.082	115.359	
76.00	-65.316	130.620	
77.00	-64.741	139.646	
78.00	-64.862	147.944	
79.00	-62.049	148.562	
80.00	-62.948	143.479	
81.00	-63.581	155.089	
82.00	-63.676	147.618	
83.00	-63.422	146.323	
84.00	-63.528	140.318	
85.00	-63.399	136.816	
86.00	-62.719	137.605	
87.00	-63.481	142.526	
88.00	-62.535	150.504	
89.00	-64.951	172.551	
90.00	-62.886	173.784	
91.00	-61.256	179.436	
92.00	-62.133	-175.906	
93.00	-63.201	-170.612	
94.00	-62.708	-178.978	
95.00	-63.708	179.833	
96.00	-63.529	-175.798	
97.00	-64.005	164.200	
98.00	-65.104	174.608	
99.00	-64.443	-165.133	
100.00	-62.923	-175.194	
101.00	-61.397	-177.332	
102.00	-62.054	-157.525	
103.00	-60.601	-158.287	
104.00	-59.864	-158.489	
105.00	-58.893	-149.098	
106.00	-57.729	-154.728	
107.00	-57.508	-142.975	
108.00	-56.481	-142.084	
109.00	-56.596	-128.795	
110.00	-56.432	-127.035	
111.00	-56.089	-113.271	
112.00	-55.776	-95.510	
113.00	-55.927	-75.685	
114.00	-54.788	-55.108	
115.00	-53.313	-33.857	
116.00	-52.305	-15.968	
117.00	-50.820	-3.330	
118.00	-49.994	11.671	
119.00	-49.489	23.841	
120.00	-49.473	36.140	
121.00	-49.609	50.349	
122.00	-50.483	66.373	
123.00	-51.687	81.815	
124.00	-53.061	103.018	
125.00	-54.749	125.623	
126.00	-56.414	157.750	
127.00	-57.417	-170.309	
128.00	-57.494	-134.862	
129.00	-56.813	-101.139	
130.00	-56.645	-72.839	
131.00	-56.189	-47.827	
132.00	-55.595	-23.530	
133.00	-55.765	2.765	
134.00	-55.819	27.679	
135.00	-55.216	49.851	
136.00	-54.977	67.548	
137.00	-55.414	86.630	
138.00	-55.881	104.581	
139.00	-56.915	116.477	
140.00	-59.258	133.326	
141.00	-64.472	148.613	
142.00	-69.185	-140.990	
143.00	-62.987	-80.403	
144.00	-57.875	-67.931	
145.00	-55.846	-62.034	
146.00	-53.897	-57.669	
147.00	-52.669	-56.154	
148.00	-51.942	-54.016	
149.00	-51.693	-48.875	
150.00	-52.077	-45.382	
151.00	-52.922	-38.852	
152.00	-53.947	-26.096	
153.00	-56.209	-11.443	
154.00	-59.689	21.550	
155.00	-58.557	59.726	
156.00	-56.519	91.396	
157.00	-54.521	109.551	
158.00	-54.165	120.829	
159.00	-55.112	133.762	
160.00	-59.019	146.637	
161.00	-69.258	-127.130	
162.00	-56.337	-55.948	
163.00	-50.454	-43.316	
164.00	-46.861	-39.294	
165.00	-44.722	-35.767	
166.00	-43.654	-34.703	
167.00	-43.500	-34.324	
168.00	-44.016	-37.368	
169.00	-45.697	-44.894	
170.00	-48.155	-61.458	
171.00	-50.241	-94.455	
172.00	-49.134	-134.480	
173.00	-47.257	-156.958	
174.00	-46.418	-175.109	
175.00	-46.976	161.039	
176.00	-46.799	120.476	
177.00	-43.093	81.019	
178.00	-38.537	60.504	
179.00	-34.830	49.767	
180.00	-31.972	43.467	
181.00	-29.843	39.334	
182.00	-28.297	36.106	
183.00	-27.293	33.540	
184.00	-26.720	31.534	
185.00	-26.619	29.620	
186.00	-26.908	28.117	
187.00	-27.676	26.948	
188.00	-28.905	25.993	
189.00	-30.661	25.519	
190.00	-33.069	26.415	
191.00	-36.136	29.144	
192.00	-40.057	35.961	
193.00	-44.687	51.080	
194.00	-49.107	81.928	
195.00	-51.222	114.478	
196.00	-53.095	135.177	
197.00	-58.607	153.760	
198.00	-65.129	-101.568	
199.00	-53.788	-59.959	
200.00	-49.578	-54.609	
201.00	-47.795	-56.400	
202.00	-47.705	-55.693	
203.00	-48.858	-54.307	
204.00	-51.794	-48.271	
205.00	-55.874	-18.133	
206.00	-54.786	32.256	
207.00	-50.492	49.107	
208.00	-47.912	51.349	
209.00	-46.643	48.794	
210.00	-46.250	42.772	
211.00	-46.863	35.917	
212.00	-48.280	28.393	
213.00	-51.680	21.515	
214.00	-56.200	19.244	
215.00	-63.929	39.619	
216.00	-60.247	116.257	
217.00	-54.748	115.437	
218.00	-51.853	108.016	
219.00	-50.501	97.218	
220.00	-49.480	79.468	
221.00	-49.414	64.701	
222.00	-50.061	43.722	
223.00	-50.794	26.705	
224.00	-52.149	-0.202	
225.00	-53.356	-31.868	
226.00	-52.605	-63.164	
227.00	-51.638	-88.784	
228.00	-50.371	-115.234	
229.00	-50.369	-131.334	
230.00	-50.584	-147.099	
231.00	-51.307	-160.196	
232.00	-52.293	-169.833	
233.00	-54.171	-177.293	
234.00	-57.104	175.076	
235.00	-59.539	-177.587	
236.00	-62.673	-170.229	
237.00	-63.171	-144.042	
238.00	-60.604	-130.870	
239.00	-59.571	-131.258	
240.00	-58.923	-142.378	
241.00	-58.985	-152.109	
242.00	-59.424	-168.474	
243.00	-60.178	175.100	
244.00	-60.345	157.078	
245.00	-60.879	138.845	
246.00	-61.852	126.925	
247.00	-62.069	117.061	
248.00	-62.566	112.196	
249.00	-64.109	109.022	
250.00	-62.652	126.238	
251.00	-62.668	124.488	
252.00	-62.264	133.756	
253.00	-58.668	117.342	
254.00	-60.373	132.890	
255.00	-57.985	113.520	
256.00	-59.017	102.406	
257.00	-61.367	104.170	
258.00	-61.587	100.430	
259.00	-65.005	84.056	
260.00	-65.209	77.101	
261.00	-74.171	68.340	
262.00	-78.246	-83.712	
263.00	-70.103	-101.444	
264.00	-66.292	-112.935	
265.00	-65.521	-143.734	
266.00	-62.867	-138.897	
267.00	-61.307	-145.558	
268.00	-62.355	-162.904	
269.00	-62.086	170.500	
270.00	-64.370	169.627	
271.00	-63.977	159.576	
272.00	-65.588	140.809	
273.00	-66.020	116.159	
274.00	-69.707	99.392	
275.00	-66.781	96.222	
276.00	-69.424	75.238	
277.00	-68.099	77.013	
278.00	-68.462	87.154	
279.00	-68.420	96.791	
280.00	-68.145	99.411	
281.00	-65.857	102.454	
282.00	-63.448	106.576	
283.00	-61.584	101.006	
284.00	-60.132	105.306	
285.00	-60.131	100.480	
286.00	-59.849	96.468	
287.00	-59.849	83.069	
288.00	-61.254	72.433	
289.00	-61.924	68.798	
290.00	-63.257	61.797	
291.00	-65.692	79.494	
292.00	-69.659	10.135	
293.00	-71.375	32.077	
294.00	-90.540	144.006	
295.00	-69.239	165.429	
296.00	-69.614	172.338	
297.00	-65.244	142.477	
298.00	-63.467	142.487	
299.00	-64.343	132.973	
300.00	-63.559	123.044	
301.00	-62.759	116.618	
302.00	-62.822	112.919	
303.00	-64.013	119.680	
304.00	-64.234	112.020	
305.00	-63.758	117.460	
306.00	-63.457	122.113	
307.00	-61.324	124.367	
308.00	-60.168	121.760	
309.00	-58.900	120.807	
310.00	-57.874	119.052	
311.00	-57.163	114.817	
312.00	-56.133	112.508	
313.00	-55.859	110.161	
314.00	-55.480	104.936	
315.00	-56.325	101.184	
316.00	-55.687	96.817	
317.00	-56.581	94.275	
318.00	-56.679	89.385	
319.00	-57.975	83.107	
320.00	-58.964	79.409	
321.00	-60.536	73.783	
322.00	-61.927	72.930	
323.00	-63.293	53.855	
324.00	-79.694	-127.616	
325.00	-76.813	179.704	
326.00	-65.384	-96.517	
327.00	-61.078	-118.417	
328.00	-58.721	-136.028	
329.00	-57.188	-141.172	
330.00	-56.099	-152.474	
331.00	-55.678	-160.454	
332.00	-55.859	-168.332	
333.00	-57.468	-176.835	
334.00	-57.503	-171.582	
335.00	-59.811	175.568	
336.00	-62.052	174.372	
337.00	-66.387	161.637	
338.00	-69.355	137.152	
339.00	-77.585	139.336	
340.00	-77.263	27.452	
341.00	-73.026	63.762	
342.00	-69.127	27.349	
343.00	-69.423	23.676	
344.00	-71.267	30.661	
345.00	-76.648	48.674	
346.00	-78.738	99.007	
347.00	-67.037	158.041	
348.00	-65.290	156.215	
349.00	-61.410	149.622	
350.00	-59.461	163.414	
351.00	-58.244	157.252	
352.00	-57.861	154.241	
353.00	-57.562	147.538	
354.00	-58.519	149.365	
355.00	-58.496	140.050	
356.00	-59.839	139.794	
357.00	-61.656	126.185	
358.00	-62.967	124.768	
359.00	-64.390	111.552	
Frequency	2300.00	MHz	
Channel	test		
Scan Axis name	Azimuth  [deg]		
Scan Axis	Amplitude	Phase	
			
0.00	-63.925	-104.487	
1.00	-63.825	-98.299	
2.00	-64.648	-103.331	
3.00	-68.603	-97.650	
4.00	-76.036	-123.056	
5.00	-75.069	24.922	
6.00	-70.903	49.442	
7.00	-67.908	41.897	
8.00	-64.926	57.102	
9.00	-65.963	54.026	
10.00	-65.844	61.338	
11.00	-65.140	77.344	
12.00	-65.636	86.819	
13.00	-65.838	92.576	
14.00	-66.223	76.652	
15.00	-66.757	77.595	
16.00	-67.623	88.234	
17.00	-69.692	73.034	
18.00	-61.442	94.512	
19.00	-63.552	107.798	
20.00	-63.507	116.013	
21.00	-62.364	134.723	
22.00	-60.760	146.226	
23.00	-60.223	158.169	
24.00	-60.185	165.971	
25.00	-60.201	-176.759	
26.00	-60.212	177.112	
27.00	-61.949	-175.031	
28.00	-64.592	-166.549	
29.00	-71.749	179.643	
30.00	-73.409	106.484	
31.00	-67.610	61.032	
32.00	-62.795	55.507	
33.00	-60.669	63.407	
34.00	-60.172	66.044	
35.00	-61.155	70.884	
36.00	-63.758	73.420	
37.00	-67.010	82.998	
38.00	-70.893	94.601	
39.00	-82.209	129.348	
40.00	-75.733	-148.906	
41.00	-74.825	-156.591	
42.00	-69.245	-167.415	
43.00	-66.383	-164.741	
44.00	-65.102	-158.714	
45.00	-65.119	-164.212	
46.00	-65.151	-161.561	
47.00	-67.891	-158.689	
48.00	-68.253	-163.117	
49.00	-71.170	178.267	
50.00	-70.776	147.193	
51.00	-69.659	138.545	
52.00	-71.172	128.437	
53.00	-73.599	93.516	
54.00	-71.810	77.146	
55.00	-68.992	70.233	
56.00	-66.860	60.148	
57.00	-64.204	69.822	
58.00	-63.077	73.112	
59.00	-63.548	90.406	
60.00	-65.523	96.808	
61.00	-67.338	127.364	
62.00	-71.544	148.370	
63.00	-77.619	-168.790	
64.00	-82.903	-30.493	
65.00	-74.120	-15.800	
66.00	-67.929	27.100	
67.00	-66.170	57.838	
68.00	-63.331	69.040	
69.00	-61.823	91.559	
70.00	-60.109	101.270	
71.00	-59.834	117.506	
72.00	-59.668	130.572	
73.00	-60.769	147.913	
74.00	-62.935	160.331	
75.00	-66.647	-176.787	
76.00	-70.034	-159.608	
77.00	-78.779	-97.173	
78.00	-73.568	-21.624	
79.00	-68.267	-0.889	
80.00	-67.215	21.826	
81.00	-64.383	35.502	
82.00	-63.490	54.799	
83.00	-62.744	58.106	
84.00	-63.237	68.292	
85.00	-69.369	62.550	
86.00	-66.586	85.278	
87.00	-70.044	64.429	
88.00	-76.717	162.571	
89.00	-74.207	-59.371	
90.00	-71.722	-75.426	
91.00	-65.361	-91.181	
92.00	-70.443	-21.506	
93.00	-73.594	-66.940	
94.00	-67.583	-34.412	
95.00	-67.740	-22.377	
96.00	-69.795	-3.462	
97.00	-70.441	33.972	
98.00	-70.600	32.446	
99.00	-74.364	108.081	
100.00	-74.477	98.955	
101.00	-72.130	125.871	
102.00	-70.142	155.404	
103.00	-67.775	175.561	
104.00	-66.839	-175.142	
105.00	-64.912	-150.869	
106.00	-62.967	-140.850	
107.00	-62.586	-120.899	
108.00	-61.445	-107.712	
109.00	-60.346	-85.667	
110.00	-59.384	-72.972	
111.00	-59.070	-54.965	
112.00	-59.278	-45.238	
113.00	-59.231	-31.962	
114.00	-61.444	-21.427	
115.00	-63.578	-12.768	
116.00	-73.966	-11.191	
117.00	-71.537	-145.622	
118.00	-62.072	-136.606	
119.00	-57.819	-134.962	
120.00	-55.202	-121.101	
121.00	-54.249	-108.279	
122.00	-53.263	-92.400	
123.00	-52.757	-74.244	
124.00	-52.972	-53.369	
125.00	-52.699	-33.078	
126.00	-52.342	-6.434	
127.00	-52.498	14.647	
128.00	-52.145	33.205	
129.00	-52.242	48.975	
130.00	-53.211	63.218	
131.00	-55.085	76.726	
132.00	-59.791	84.765	
133.00	-64.563	61.222	
134.00	-63.936	4.895	
135.00	-57.308	-8.533	
136.00	-53.110	-2.185	
137.00	-50.932	10.314	
138.00	-48.789	20.954	
139.00	-47.925	31.800	
140.00	-47.616	42.262	
141.00	-47.651	52.790	
142.00	-48.317	64.025	
143.00	-49.588	72.262	
144.00	-51.367	82.067	
145.00	-54.238	91.678	
146.00	-58.422	98.570	
147.00	-63.536	95.329	
148.00	-69.507	63.858	
149.00	-66.985	31.824	
150.00	-62.946	35.598	
151.00	-60.050	47.374	
152.00	-58.134	51.989	
153.00	-56.923	58.216	
154.00	-56.703	61.025	
155.00	-57.326	54.675	
156.00	-57.261	44.956	
157.00	-56.907	30.480	
158.00	-56.099	21.541	
159.00	-55.329	14.595	
160.00	-54.862	11.895	
161.00	-55.595	4.822	
162.00	-57.198	-13.939	
163.00	-57.159	-42.558	
164.00	-54.043	-76.061	
165.00	-50.734	-91.312	
166.00	-48.105	-97.226	
167.00	-46.694	-100.198	
168.00	-46.196	-102.648	
169.00	-46.771	-105.582	
170.00	-48.626	-108.414	
171.00	-53.112	-118.267	
172.00	-63.790	175.494	
173.00	-53.582	92.595	
174.00	-47.785	77.844	
175.00	-44.692	68.617	
176.00	-43.102	55.692	
177.00	-42.003	38.509	
178.00	-40.831	17.551	
179.00	-38.821	-4.877	
180.00	-36.379	-22.387	
181.00	-34.014	-34.747	
182.00	-32.044	-43.466	
183.00	-30.599	-49.791	
184.00	-29.628	-54.867	
185.00	-29.142	-58.846	
186.00	-29.169	-62.297	
187.00	-29.625	-65.441	
188.00	-30.602	-68.232	
189.00	-32.157	-70.262	
190.00	-34.283	-71.604	
191.00	-37.158	-71.683	
192.00	-40.928	-69.523	
193.00	-45.961	-61.678	
194.00	-52.129	-40.245	
195.00	-56.652	5.499	
196.00	-58.010	43.629	
197.00	-60.909	77.716	
198.00	-60.943	144.150	
199.00	-55.208	179.355	
200.00	-51.494	-173.382	
201.00	-50.216	-170.380	
202.00	-50.679	-171.774	
203.00	-53.079	-167.371	
204.00	-58.674	-148.927	
205.00	-59.438	-68.448	
206.00	-51.921	-45.330	
207.00	-48.418	-46.171	
208.00	-46.553	-50.749	
209.00	-45.997	-57.994	
210.00	-46.494	-67.646	
211.00	-48.220	-80.796	
212.00	-51.333	-101.130	
213.00	-55.582	-144.087	
214.00	-54.335	147.862	
215.00	-50.143	114.455	
216.00	-47.211	96.992	
217.00	-45.511	84.017	
218.00	-44.923	73.496	
219.00	-44.839	63.940	
220.00	-45.556	56.239	
221.00	-46.674	48.808	
222.00	-48.389	44.538	
223.00	-50.667	43.778	
224.00	-53.298	51.515	
225.00	-54.630	64.645	
226.00	-54.737	80.258	
227.00	-53.851	89.142	
228.00	-53.109	90.408	
229.00	-52.733	89.787	
230.00	-53.052	87.615	
231.00	-53.429	85.848	
232.00	-55.010	83.433	
233.00	-56.376	85.459	
234.00	-57.845	86.336	
235.00	-60.195	85.756	
236.00	-62.723	87.233	
237.00	-65.689	78.416	
238.00	-71.432	53.457	
239.00	-76.054	0.146	
240.00	-68.923	-54.783	
241.00	-65.912	-78.644	
242.00	-64.455	-95.421	
243.00	-64.333	-107.828	
244.00	-65.560	-126.560	
245.00	-66.932	-158.762	
246.00	-69.261	168.112	
247.00	-68.701	122.142	
248.00	-66.559	89.666	
249.00	-64.497	57.104	
250.00	-62.946	39.420	
251.00	-62.060	18.228	
252.00	-61.963	5.454	
253.00	-61.996	-8.114	
254.00	-62.475	-27.081	
255.00	-65.304	-42.584	
256.00	-66.980	-68.565	
257.00	-69.376	-99.562	
258.00	-69.575	-129.359	
259.00	-71.253	-153.879	
260.00	-73.532	-175.853	
261.00	-74.645	145.613	
262.00	-84.823	86.982	
263.00	-80.191	-5.454	
264.00	-74.099	-26.999	
265.00	-73.367	-65.738	
266.00	-70.174	-84.793	
267.00	-68.400	-108.033	
268.00	-66.511	-137.819	
269.00	-65.122	-158.680	
270.00	-62.525	-168.477	
271.00	-62.129	175.067	
272.00	-61.007	163.130	
273.00	-61.091	147.780	
274.00	-61.340	132.961	
275.00	-61.720	116.206	
276.00	-62.268	97.354	
277.00	-62.395	78.815	
278.00	-62.061	53.750	
279.00	-61.682	41.657	
280.00	-62.043	24.441	
281.00	-62.075	9.906	
282.00	-62.411	-6.687	
283.00	-63.314	-23.705	
284.00	-64.461	-40.945	
285.00	-65.954	-55.509	
286.00	-69.801	-98.347	
287.00	-68.123	-159.599	
288.00	-66.137	168.985	
289.00	-63.267	136.543	
290.00	-61.280	124.709	
291.00	-60.000	111.254	
292.00	-58.714	99.127	
293.00	-57.511	88.964	
294.00	-57.755	74.133	
295.00	-58.582	65.462	
296.00	-58.902	57.266	
297.00	-61.191	50.560	
298.00	-63.574	41.118	
299.00	-66.155	38.180	
300.00	-68.433	46.133	
301.00	-73.080	65.453	
302.00	-70.466	102.383	
303.00	-68.875	102.505	
304.00	-65.392	103.352	
305.00	-65.368	95.594	
306.00	-65.796	94.434	
307.00	-66.109	98.871	
308.00	-68.351	102.808	
309.00	-68.831	101.225	
310.00	-70.299	121.767	
311.00	-70.946	128.472	
312.00	-70.103	124.555	
313.00	-70.511	111.153	
314.00	-69.860	102.291	
315.00	-72.404	78.329	
316.00	-71.071	63.237	
317.00	-71.451	48.086	
318.00	-71.487	41.845	
319.00	-74.268	41.566	
320.00	-75.998	59.371	
321.00	-75.647	108.428	
322.00	-72.143	125.405	
323.00	-68.637	135.166	
324.00	-67.458	154.482	
325.00	-66.295	144.565	
326.00	-65.103	138.241	
327.00	-66.568	136.559	
328.00	-66.180	149.323	
329.00	-65.511	165.256	
330.00	-63.109	161.648	
331.00	-62.822	162.348	
332.00	-62.841	161.233	
333.00	-61.271	148.814	
334.00	-60.148	130.707	
335.00	-60.386	114.674	
336.00	-61.607	109.554	
337.00	-61.893	74.930	
338.00	-60.545	71.395	
339.00	-62.419	47.687	
340.00	-63.710	27.265	
341.00	-65.170	-9.581	
342.00	-69.495	-36.762	
343.00	-70.257	-93.066	
344.00	-74.206	-143.376	
345.00	-70.168	-170.451	
346.00	-66.600	153.761	
347.00	-65.198	132.805	
348.00	-64.548	110.080	
349.00	-66.346	94.038	
350.00	-65.249	61.871	
351.00	-65.947	50.910	
352.00	-66.995	26.738	
353.00	-65.950	1.772	
354.00	-65.229	-20.390	
355.00	-63.890	-39.332	
356.00	-62.957	-59.312	
357.00	-62.550	-80.461	
358.00	-63.099	-89.863	
359.00	-62.237	-81.910	
Frequency	2350.00	MHz	
Channel	test		
Scan Axis name	Azimuth  [deg]		
Scan Axis	Amplitude	Phase	
			
0.00	-63.707	-0.686	
1.00	-65.229	-18.176	
2.00	-66.419	-36.413	
3.00	-66.523	-53.404	
4.00	-66.323	-64.408	
5.00	-66.474	-69.063	
6.00	-67.442	-69.790	
7.00	-68.817	-72.456	
8.00	-70.559	-79.931	
9.00	-72.808	-86.050	
10.00	-74.612	-103.126	
11.00	-76.167	-133.751	
12.00	-74.794	-162.355	
13.00	-72.065	174.141	
14.00	-70.990	161.885	
15.00	-70.643	155.695	
16.00	-69.624	166.126	
17.00	-70.215	173.975	
18.00	-71.047	179.826	
19.00	-70.443	-164.352	
20.00	-68.623	-153.307	
21.00	-66.618	-147.553	
22.00	-64.844	-141.673	
23.00	-64.373	-137.286	
24.00	-64.551	-134.556	
25.00	-65.923	-129.507	
26.00	-68.518	-132.317	
27.00	-74.608	-141.779	
28.00	-82.834	154.538	
29.00	-72.898	73.391	
30.00	-68.057	65.150	
31.00	-65.304	61.878	
32.00	-63.455	66.479	
33.00	-63.659	75.708	
34.00	-64.639	82.710	
35.00	-66.861	105.953	
36.00	-71.764	134.476	
37.00	-73.316	-167.547	
38.00	-69.539	-125.075	
39.00	-66.456	-104.974	
40.00	-64.558	-91.359	
41.00	-63.995	-83.721	
42.00	-62.875	-82.091	
43.00	-62.260	-80.296	
44.00	-62.033	-78.302	
45.00	-62.452	-71.988	
46.00	-63.419	-65.421	
47.00	-65.492	-60.562	
48.00	-69.404	-64.594	
49.00	-72.318	-79.935	
50.00	-71.138	-120.221	
51.00	-66.695	-130.363	
52.00	-64.548	-126.387	
53.00	-63.132	-119.148	
54.00	-63.149	-108.792	
55.00	-63.946	-99.347	
56.00	-66.345	-88.624	
57.00	-70.508	-86.279	
58.00	-75.108	-95.873	
59.00	-74.970	-129.815	
60.00	-72.056	-163.220	
61.00	-70.276	-165.063	
62.00	-68.548	-159.228	
63.00	-68.512	-146.610	
64.00	-68.851	-141.710	
65.00	-68.429	-135.730	
66.00	-68.540	-127.941	
67.00	-67.123	-130.626	
68.00	-65.950	-121.665	
69.00	-64.797	-115.120	
70.00	-64.170	-103.342	
71.00	-63.740	-89.406	
72.00	-63.892	-69.695	
73.00	-63.280	-55.217	
74.00	-63.440	-31.087	
75.00	-63.603	-11.610	
76.00	-64.019	11.426	
77.00	-64.200	37.004	
78.00	-64.350	62.375	
79.00	-64.030	92.741	
80.00	-63.853	119.671	
81.00	-63.588	143.219	
82.00	-62.888	162.449	
83.00	-62.091	-178.079	
84.00	-63.714	-150.520	
85.00	-62.995	-123.316	
86.00	-63.810	-97.445	
87.00	-63.693	-80.834	
88.00	-62.449	-55.157	
89.00	-62.818	-42.716	
90.00	-61.075	-12.803	
91.00	-63.514	-5.192	
92.00	-63.006	17.377	
93.00	-64.708	43.085	
94.00	-64.074	72.357	
95.00	-65.936	84.224	
96.00	-66.164	115.865	
97.00	-66.862	139.522	
98.00	-67.429	169.576	
99.00	-66.285	-164.638	
100.00	-65.390	-136.577	
101.00	-64.014	-119.443	
102.00	-63.429	-101.588	
103.00	-63.517	-98.696	
104.00	-64.407	-93.832	
105.00	-65.686	-86.942	
106.00	-66.166	-78.235	
107.00	-67.345	-64.068	
108.00	-69.978	-48.254	
109.00	-70.767	-11.830	
110.00	-67.952	24.653	
111.00	-65.152	40.268	
112.00	-62.045	63.561	
113.00	-60.554	77.366	
114.00	-59.346	94.255	
115.00	-58.808	113.407	
116.00	-58.518	132.307	
117.00	-59.127	155.860	
118.00	-59.764	-175.662	
119.00	-60.260	-139.818	
120.00	-59.353	-98.219	
121.00	-56.868	-65.011	
122.00	-54.298	-36.453	
123.00	-52.481	-16.529	
124.00	-50.952	3.946	
125.00	-50.009	21.845	
126.00	-49.532	38.698	
127.00	-49.618	55.952	
128.00	-50.046	71.945	
129.00	-50.929	89.769	
130.00	-52.337	105.009	
131.00	-54.468	119.319	
132.00	-58.297	123.170	
133.00	-62.298	95.731	
134.00	-58.317	54.466	
135.00	-53.369	52.956	
136.00	-49.847	61.643	
137.00	-47.504	73.666	
138.00	-45.938	86.930	
139.00	-45.015	101.123	
140.00	-44.634	115.832	
141.00	-44.773	131.014	
142.00	-45.501	147.448	
143.00	-46.804	164.990	
144.00	-48.779	-173.527	
145.00	-51.397	-145.803	
146.00	-53.567	-107.801	
147.00	-53.817	-63.811	
148.00	-52.554	-29.649	
149.00	-51.601	-4.174	
150.00	-51.391	15.915	
151.00	-52.039	33.866	
152.00	-53.248	49.832	
153.00	-55.222	64.600	
154.00	-58.370	75.789	
155.00	-62.745	75.385	
156.00	-65.122	44.943	
157.00	-62.082	20.888	
158.00	-58.528	20.083	
159.00	-56.016	26.364	
160.00	-54.724	31.149	
161.00	-54.319	32.463	
162.00	-54.601	24.310	
163.00	-54.373	4.450	
164.00	-52.188	-17.801	
165.00	-49.235	-29.216	
166.00	-46.872	-32.886	
167.00	-45.316	-32.689	
168.00	-44.699	-30.239	
169.00	-45.069	-25.507	
170.00	-46.598	-18.160	
171.00	-49.803	-3.283	
172.00	-54.156	40.681	
173.00	-51.563	96.645	
174.00	-47.427	116.309	
175.00	-45.434	120.510	
176.00	-45.165	115.700	
177.00	-46.175	95.903	
178.00	-45.347	55.901	
179.00	-40.920	24.349	
180.00	-36.518	10.309	
181.00	-33.184	3.937	
182.00	-30.704	0.289	
183.00	-28.979	-2.031	
184.00	-27.820	-3.697	
185.00	-27.200	-4.958	
186.00	-27.058	-6.031	
187.00	-27.386	-6.742	
188.00	-28.173	-7.041	
189.00	-29.476	-6.685	
190.00	-31.252	-5.184	
191.00	-33.558	-1.650	
192.00	-36.388	5.152	
193.00	-39.395	16.686	
194.00	-42.188	33.715	
195.00	-44.166	51.242	
196.00	-45.947	64.076	
197.00	-48.625	72.623	
198.00	-53.263	80.497	
199.00	-63.050	119.095	
200.00	-58.358	-149.697	
201.00	-53.531	-142.880	
202.00	-52.261	-149.370	
203.00	-53.250	-163.540	
204.00	-56.140	163.941	
205.00	-56.682	101.997	
206.00	-52.019	58.209	
207.00	-48.516	35.710	
208.00	-46.532	19.058	
209.00	-45.611	3.186	
210.00	-45.644	-14.053	
211.00	-46.458	-33.907	
212.00	-47.812	-60.183	
213.00	-48.918	-94.838	
214.00	-48.413	-134.341	
215.00	-46.596	-166.563	
216.00	-44.883	170.197	
217.00	-43.604	151.555	
218.00	-42.939	136.770	
219.00	-42.846	123.811	
220.00	-43.437	112.531	
221.00	-44.574	102.644	
222.00	-46.466	95.446	
223.00	-49.053	92.410	
224.00	-52.360	98.927	
225.00	-54.441	122.538	
226.00	-53.081	144.194	
227.00	-50.751	149.521	
228.00	-48.974	145.498	
229.00	-47.923	138.070	
230.00	-47.470	128.568	
231.00	-47.411	118.321	
232.00	-47.791	107.228	
233.00	-48.475	95.412	
234.00	-49.406	82.690	
235.00	-50.446	68.748	
236.00	-51.567	53.448	
237.00	-52.629	37.452	
238.00	-53.594	20.079	
239.00	-54.445	2.195	
240.00	-55.024	-14.998	
241.00	-55.765	-33.689	
242.00	-56.487	-51.556	
243.00	-57.437	-69.695	
244.00	-58.594	-91.017	
245.00	-60.026	-113.127	
246.00	-61.345	-140.183	
247.00	-62.344	-169.524	
248.00	-62.426	155.762	
249.00	-62.142	123.126	
250.00	-61.343	95.465	
251.00	-60.782	70.648	
252.00	-60.443	49.628	
253.00	-60.660	27.572	
254.00	-61.101	4.074	
255.00	-61.846	-21.293	
256.00	-62.454	-49.336	
257.00	-62.400	-81.742	
258.00	-61.931	-111.111	
259.00	-60.919	-135.191	
260.00	-60.547	-157.052	
261.00	-60.053	-171.707	
262.00	-60.114	170.019	
263.00	-60.564	150.928	
264.00	-61.921	131.334	
265.00	-63.284	114.071	
266.00	-64.456	87.092	
267.00	-65.091	57.674	
268.00	-65.988	31.318	
269.00	-66.374	5.375	
270.00	-66.096	-18.107	
271.00	-66.730	-40.932	
272.00	-66.951	-63.782	
273.00	-67.501	-86.540	
274.00	-67.570	-113.798	
275.00	-68.215	-143.992	
276.00	-67.249	-165.831	
277.00	-65.321	171.757	
278.00	-64.565	154.185	
279.00	-63.569	140.557	
280.00	-62.626	128.609	
281.00	-62.261	120.034	
282.00	-62.151	111.260	
283.00	-62.681	105.703	
284.00	-63.577	99.086	
285.00	-64.993	95.839	
286.00	-67.198	92.331	
287.00	-71.988	92.774	
288.00	-74.644	107.826	
289.00	-74.894	142.134	
290.00	-74.369	148.751	
291.00	-73.238	161.183	
292.00	-72.915	158.034	
293.00	-72.601	146.198	
294.00	-73.437	139.670	
295.00	-75.067	132.683	
296.00	-78.049	126.079	
297.00	-84.366	146.435	
298.00	-77.863	-176.543	
299.00	-73.993	-163.580	
300.00	-71.088	-170.733	
301.00	-68.800	177.201	
302.00	-68.515	164.318	
303.00	-67.944	142.333	
304.00	-67.221	116.860	
305.00	-66.243	89.685	
306.00	-65.362	68.520	
307.00	-64.927	50.292	
308.00	-65.221	33.319	
309.00	-66.790	16.647	
310.00	-69.269	-9.153	
311.00	-71.628	-49.976	
312.00	-71.369	-97.264	
313.00	-69.276	-125.217	
314.00	-69.078	-145.967	
315.00	-71.154	-159.930	
316.00	-74.573	-173.500	
317.00	-87.189	59.313	
318.00	-74.613	-0.257	
319.00	-69.591	-10.050	
320.00	-67.344	-26.225	
321.00	-66.651	-38.387	
322.00	-66.432	-53.959	
323.00	-66.578	-73.112	
324.00	-66.222	-91.000	
325.00	-65.972	-109.354	
326.00	-65.018	-120.630	
327.00	-64.984	-123.813	
328.00	-64.411	-130.173	
329.00	-63.877	-132.652	
330.00	-63.554	-135.616	
331.00	-63.230	-141.264	
332.00	-63.299	-147.500	
333.00	-63.833	-156.569	
334.00	-64.928	-163.315	
335.00	-67.301	177.993	
336.00	-69.569	153.579	
337.00	-71.064	115.014	
338.00	-69.517	81.634	
339.00	-67.559	60.633	
340.00	-67.001	48.379	
341.00	-67.291	36.598	
342.00	-68.996	29.174	
343.00	-71.591	20.381	
344.00	-76.004	12.362	
345.00	-81.738	-3.564	
346.00	-88.344	-22.022	
347.00	-90.022	45.478	
348.00	-81.952	89.471	
349.00	-75.997	63.679	
350.00	-71.761	64.396	
351.00	-67.362	60.072	
352.00	-64.206	52.908	
353.00	-61.829	48.043	
354.00	-60.533	43.837	
355.00	-59.650	38.503	
356.00	-59.531	34.545	
357.00	-60.011	28.162	
358.00	-60.780	20.551	
359.00	-61.668	13.210	
Frequency	2400.00	MHz	
Channel	test		
Scan Axis name	Azimuth  [deg]		
Scan Axis	Amplitude	Phase	
			
0.00	-68.689	-69.071	
1.00	-68.888	-81.191	
2.00	-69.867	-75.369	
3.00	-71.511	-95.935	
4.00	-76.026	-68.231	
5.00	-72.478	-101.251	
6.00	-72.992	-70.975	
7.00	-75.998	-99.762	
8.00	-74.161	-99.181	
9.00	-76.685	-65.980	
10.00	-72.779	-121.608	
11.00	-73.479	-122.500	
12.00	-71.026	-138.946	
13.00	-73.448	-149.827	
14.00	-78.339	-117.752	
15.00	-78.401	-160.664	
16.00	-86.331	-151.032	
17.00	-82.524	86.982	
18.00	-76.985	30.753	
19.00	-79.009	-9.647	
20.00	-68.965	34.612	
21.00	-70.828	14.100	
22.00	-70.396	33.546	
23.00	-70.652	18.417	
24.00	-73.227	31.018	
25.00	-78.272	0.434	
26.00	-86.264	21.361	
27.00	-88.397	177.572	
28.00	-77.526	151.870	
29.00	-71.218	-164.333	
30.00	-69.276	-161.984	
31.00	-67.862	-149.933	
32.00	-67.645	-147.747	
33.00	-65.988	-131.512	
34.00	-66.149	-119.868	
35.00	-65.564	-103.543	
36.00	-65.579	-89.484	
37.00	-67.010	-67.835	
38.00	-67.214	-50.770	
39.00	-66.985	-28.943	
40.00	-66.162	-6.903	
41.00	-67.623	10.495	
42.00	-66.680	30.133	
43.00	-69.096	43.472	
44.00	-70.859	63.531	
45.00	-73.810	92.701	
46.00	-78.331	108.923	
47.00	-79.665	-175.399	
48.00	-74.630	-174.881	
49.00	-72.674	-118.555	
50.00	-69.754	-97.724	
51.00	-68.241	-94.427	
52.00	-67.110	-80.404	
53.00	-67.746	-64.937	
54.00	-69.686	-57.478	
55.00	-72.904	-54.217	
56.00	-79.885	-79.747	
57.00	-79.462	-160.596	
58.00	-70.059	-168.648	
59.00	-67.845	-156.778	
60.00	-67.276	-153.084	
61.00	-67.879	-143.747	
62.00	-68.379	-136.464	
63.00	-69.746	-132.763	
64.00	-70.598	-132.295	
65.00	-72.863	-153.996	
66.00	-70.626	-146.516	
67.00	-70.201	-144.757	
68.00	-68.960	-130.305	
69.00	-69.585	-108.959	
70.00	-70.245	-73.696	
71.00	-69.644	-53.593	
72.00	-69.275	-19.062	
73.00	-67.644	15.992	
74.00	-66.725	49.091	
75.00	-65.453	69.039	
76.00	-64.334	89.454	
77.00	-62.991	115.673	
78.00	-62.786	133.189	
79.00	-62.476	152.531	
80.00	-62.387	176.253	
81.00	-62.121	-160.957	
82.00	-62.769	-143.236	
83.00	-62.982	-116.998	
84.00	-63.062	-98.957	
85.00	-65.389	-78.179	
86.00	-65.503	-39.150	
87.00	-65.908	-15.255	
88.00	-64.746	5.903	
89.00	-64.825	36.382	
90.00	-62.395	54.786	
91.00	-63.073	81.013	
92.00	-62.873	110.343	
93.00	-63.153	144.951	
94.00	-62.266	158.481	
95.00	-61.653	-174.311	
96.00	-60.745	-154.007	
97.00	-60.083	-134.759	
98.00	-59.826	-121.471	
99.00	-60.697	-101.606	
100.00	-61.379	-83.626	
101.00	-63.575	-53.898	
102.00	-65.914	-25.879	
103.00	-67.462	4.844	
104.00	-68.235	30.109	
105.00	-68.653	71.975	
106.00	-70.144	104.699	
107.00	-70.136	132.832	
108.00	-70.101	168.656	
109.00	-74.002	-159.433	
110.00	-73.484	-121.849	
111.00	-76.390	-61.166	
112.00	-75.359	-2.623	
113.00	-69.150	41.494	
114.00	-68.300	72.990	
115.00	-66.858	92.366	
116.00	-65.627	112.507	
117.00	-65.634	125.358	
118.00	-65.483	141.655	
119.00	-65.754	148.617	
120.00	-65.725	133.915	
121.00	-63.753	114.113	
122.00	-59.161	104.329	
123.00	-55.378	103.900	
124.00	-52.576	111.206	
125.00	-50.629	119.801	
126.00	-49.275	130.632	
127.00	-48.470	142.761	
128.00	-48.243	155.605	
129.00	-48.308	170.374	
130.00	-49.015	-176.817	
131.00	-50.142	-163.304	
132.00	-52.067	-151.948	
133.00	-55.006	-145.058	
134.00	-59.062	-160.678	
135.00	-58.569	155.835	
136.00	-53.704	142.649	
137.00	-50.410	145.478	
138.00	-48.083	155.392	
139.00	-46.788	166.398	
140.00	-46.114	178.614	
141.00	-46.242	-168.688	
142.00	-47.056	-155.360	
143.00	-48.850	-142.414	
144.00	-52.201	-127.229	
145.00	-58.718	-106.003	
146.00	-68.156	28.233	
147.00	-55.476	75.785	
148.00	-50.966	89.256	
149.00	-48.771	104.304	
150.00	-47.604	115.663	
151.00	-47.282	127.534	
152.00	-47.648	137.788	
153.00	-48.594	146.949	
154.00	-50.306	153.895	
155.00	-52.108	155.542	
156.00	-54.220	154.595	
157.00	-55.369	144.371	
158.00	-55.931	135.815	
159.00	-55.918	128.572	
160.00	-55.693	122.561	
161.00	-55.926	112.991	
162.00	-55.943	98.985	
163.00	-54.853	75.180	
164.00	-51.865	59.240	
165.00	-48.937	51.438	
166.00	-46.782	48.807	
167.00	-45.524	49.581	
168.00	-45.227	51.877	
169.00	-45.984	56.669	
170.00	-48.442	63.217	
171.00	-53.478	85.068	
172.00	-55.965	162.680	
173.00	-49.434	-160.327	
174.00	-45.692	-153.467	
175.00	-44.014	-156.625	
176.00	-43.554	-168.877	
177.00	-43.163	165.220	
178.00	-40.693	134.232	
179.00	-36.893	113.349	
180.00	-33.381	102.450	
181.00	-30.693	96.109	
182.00	-28.659	92.284	
183.00	-27.254	89.713	
184.00	-26.383	87.830	
185.00	-26.009	86.571	
186.00	-26.104	85.644	
187.00	-26.695	85.374	
188.00	-27.760	85.916	
189.00	-29.373	87.852	
190.00	-31.483	91.800	
191.00	-34.073	99.437	
192.00	-36.908	112.804	
193.00	-39.263	131.660	
194.00	-40.743	152.273	
195.00	-41.831	167.504	
196.00	-43.352	178.758	
197.00	-46.160	-169.731	
198.00	-50.377	-149.746	
199.00	-53.142	-101.701	
200.00	-50.830	-67.244	
201.00	-49.122	-58.296	
202.00	-49.420	-59.150	
203.00	-52.347	-69.633	
204.00	-59.068	-112.308	
205.00	-55.125	156.824	
206.00	-49.208	131.001	
207.00	-46.110	118.333	
208.00	-44.917	107.221	
209.00	-45.030	96.233	
210.00	-46.660	82.399	
211.00	-49.945	61.432	
212.00	-55.019	11.077	
213.00	-52.199	-61.763	
214.00	-47.380	-92.403	
215.00	-44.531	-109.534	
216.00	-42.932	-123.348	
217.00	-42.326	-135.881	
218.00	-42.401	-147.951	
219.00	-43.247	-159.010	
220.00	-44.716	-169.124	
221.00	-47.067	-178.314	
222.00	-50.842	176.623	
223.00	-56.599	-173.443	
224.00	-59.206	-116.688	
225.00	-54.261	-92.046	
226.00	-50.752	-94.971	
227.00	-48.969	-103.939	
228.00	-47.817	-114.094	
229.00	-47.367	-126.526	
230.00	-47.322	-137.361	
231.00	-47.588	-148.590	
232.00	-48.137	-161.001	
233.00	-48.879	-171.982	
234.00	-49.745	176.365	
235.00	-50.669	164.760	
236.00	-51.844	154.266	
237.00	-52.922	143.238	
238.00	-54.158	131.653	
239.00	-55.791	118.720	
240.00	-57.393	106.166	
241.00	-60.662	96.359	
242.00	-63.443	74.301	
243.00	-68.121	47.540	
244.00	-72.563	-20.021	
245.00	-68.723	-75.088	
246.00	-65.793	-106.704	
247.00	-64.464	-130.785	
248.00	-63.774	-149.234	
249.00	-62.997	-170.832	
250.00	-62.464	168.180	
251.00	-63.112	148.834	
252.00	-64.029	126.729	
253.00	-65.211	102.994	
254.00	-66.720	74.897	
255.00	-67.872	38.332	
256.00	-67.275	4.732	
257.00	-66.077	-25.546	
258.00	-65.071	-46.065	
259.00	-64.641	-64.234	
260.00	-64.989	-81.419	
261.00	-65.052	-92.331	
262.00	-65.838	-97.212	
263.00	-66.715	-108.881	
264.00	-68.343	-102.033	
265.00	-70.196	-95.918	
266.00	-69.115	-79.530	
267.00	-68.295	-70.779	
268.00	-67.109	-71.706	
269.00	-66.242	-73.960	
270.00	-65.769	-80.780	
271.00	-65.685	-95.482	
272.00	-66.053	-110.589	
273.00	-65.930	-131.925	
274.00	-66.420	-150.208	
275.00	-66.346	-173.048	
276.00	-66.914	164.544	
277.00	-66.529	144.831	
278.00	-66.252	125.063	
279.00	-65.651	107.824	
280.00	-65.988	88.979	
281.00	-65.828	67.591	
282.00	-66.432	50.292	
283.00	-68.670	28.447	
284.00	-68.187	22.674	
285.00	-70.103	-13.931	
286.00	-70.834	-40.226	
287.00	-71.854	-78.803	
288.00	-68.776	-99.575	
289.00	-68.391	-110.692	
290.00	-67.704	-126.527	
291.00	-68.947	-140.627	
292.00	-68.013	-146.132	
293.00	-70.376	-134.892	
294.00	-74.549	-126.488	
295.00	-83.221	-105.193	
296.00	-79.659	-16.468	
297.00	-75.692	-35.204	
298.00	-73.834	-45.671	
299.00	-74.811	-63.202	
300.00	-76.699	-101.649	
301.00	-73.279	-153.780	
302.00	-68.131	172.331	
303.00	-65.175	158.403	
304.00	-63.303	140.283	
305.00	-62.329	127.185	
306.00	-61.278	114.055	
307.00	-60.958	97.230	
308.00	-61.115	79.240	
309.00	-61.196	60.894	
310.00	-61.551	45.517	
311.00	-62.034	31.392	
312.00	-62.943	18.458	
313.00	-64.324	12.473	
314.00	-66.233	10.074	
315.00	-68.856	14.067	
316.00	-70.572	37.199	
317.00	-70.174	55.367	
318.00	-69.554	68.480	
319.00	-69.400	70.202	
320.00	-70.714	68.775	
321.00	-73.397	66.395	
322.00	-74.081	68.462	
323.00	-75.959	77.203	
324.00	-74.446	57.190	
325.00	-73.472	63.075	
326.00	-70.279	46.607	
327.00	-67.755	37.703	
328.00	-65.545	21.045	
329.00	-64.627	13.676	
330.00	-64.438	-1.045	
331.00	-65.133	-10.794	
332.00	-65.765	-25.201	
333.00	-67.354	-43.188	
334.00	-69.270	-74.620	
335.00	-72.590	-114.562	
336.00	-73.064	-144.073	
337.00	-74.484	179.118	
338.00	-75.763	151.972	
339.00	-76.305	132.468	
340.00	-79.052	99.288	
341.00	-95.967	130.691	
342.00	-82.656	-89.539	
343.00	-73.844	-104.507	
344.00	-70.342	-119.216	
345.00	-68.048	-129.134	
346.00	-68.498	-141.026	
347.00	-68.116	-160.629	
348.00	-68.122	174.537	
349.00	-67.781	155.409	
350.00	-67.420	138.469	
351.00	-68.228	121.285	
352.00	-68.993	97.115	
353.00	-70.012	86.792	
354.00	-71.848	60.271	
355.00	-75.013	40.296	
356.00	-76.358	2.479	
357.00	-73.802	-19.054	
358.00	-70.560	-74.303	
359.00	-67.564	-60.239	
Frequency	2450.00	MHz	
Channel	test		
Scan Axis name	Azimuth  [deg]		
Scan Axis	Amplitude	Phase	
			
0.00	-65.771	41.654	
1.00	-66.729	37.552	
2.00	-71.131	48.170	
3.00	-82.378	21.258	
4.00	-85.549	-41.060	
5.00	-73.388	-96.888	
6.00	-69.270	-92.751	
7.00	-67.447	-85.786	
8.00	-65.064	-70.695	
9.00	-64.200	-60.782	
10.00	-65.313	-49.490	
11.00	-63.750	-37.679	
12.00	-64.273	-21.358	
13.00	-64.416	-13.237	
14.00	-64.595	-4.308	
15.00	-66.765	12.702	
16.00	-68.062	16.027	
17.00	-71.113	38.910	
18.00	-80.929	44.637	
19.00	-82.252	-142.304	
20.00	-72.878	-138.667	
21.00	-67.691	-122.101	
22.00	-65.067	-112.523	
23.00	-62.352	-116.371	
24.00	-61.282	-115.308	
25.00	-59.944	-111.304	
26.00	-59.363	-110.170	
27.00	-58.584	-114.208	
28.00	-58.752	-114.670	
29.00	-58.488	-112.368	
30.00	-58.630	-112.182	
31.00	-59.250	-109.221	
32.00	-60.007	-109.638	
33.00	-61.158	-106.161	
34.00	-62.810	-100.216	
35.00	-66.301	-101.479	
36.00	-69.320	-95.110	
37.00	-75.592	-100.570	
38.00	-81.915	141.517	
39.00	-79.692	112.434	
40.00	-74.823	93.677	
41.00	-74.556	71.640	
42.00	-70.397	39.528	
43.00	-66.802	35.694	
44.00	-65.574	20.225	
45.00	-63.796	26.045	
46.00	-63.242	25.911	
47.00	-63.380	33.137	
48.00	-63.897	39.289	
49.00	-65.008	45.367	
50.00	-67.916	53.314	
51.00	-72.390	76.253	
52.00	-77.118	121.682	
53.00	-77.144	-163.494	
54.00	-71.885	-133.914	
55.00	-69.876	-112.213	
56.00	-69.685	-100.050	
57.00	-71.054	-74.576	
58.00	-73.103	-27.161	
59.00	-71.764	28.740	
60.00	-67.722	44.270	
61.00	-65.225	70.152	
62.00	-63.176	83.785	
63.00	-62.834	91.955	
64.00	-62.476	98.625	
65.00	-64.032	102.585	
66.00	-64.892	101.525	
67.00	-65.545	91.646	
68.00	-66.082	83.863	
69.00	-66.475	84.135	
70.00	-65.623	90.039	
71.00	-64.618	99.372	
72.00	-64.824	109.865	
73.00	-64.546	129.527	
74.00	-64.605	147.193	
75.00	-63.330	165.825	
76.00	-63.833	-178.487	
77.00	-63.525	-165.682	
78.00	-65.084	-149.069	
79.00	-66.825	-134.046	
80.00	-68.799	-117.373	
81.00	-70.608	-88.175	
82.00	-69.557	-51.002	
83.00	-67.079	-34.060	
84.00	-65.176	-15.052	
85.00	-65.312	2.616	
86.00	-65.068	8.351	
87.00	-64.421	20.876	
88.00	-65.016	23.746	
89.00	-63.867	54.133	
90.00	-64.861	77.744	
91.00	-65.245	89.853	
92.00	-65.157	125.071	
93.00	-66.315	155.200	
94.00	-66.551	-174.853	
95.00	-65.270	-145.468	
96.00	-64.426	-111.073	
97.00	-63.336	-89.960	
98.00	-62.660	-64.912	
99.00	-61.631	-40.412	
100.00	-61.112	-17.323	
101.00	-61.337	18.866	
102.00	-60.570	48.199	
103.00	-60.677	71.455	
104.00	-61.041	92.072	
105.00	-61.698	120.462	
106.00	-61.071	149.287	
107.00	-61.136	177.489	
108.00	-60.443	-158.146	
109.00	-60.584	-138.287	
110.00	-60.640	-124.031	
111.00	-60.836	-110.901	
112.00	-62.874	-101.794	
113.00	-66.483	-110.789	
114.00	-67.752	-142.071	
115.00	-65.601	-173.956	
116.00	-61.829	177.377	
117.00	-59.321	-179.466	
118.00	-58.575	-174.671	
119.00	-57.939	-171.625	
120.00	-57.718	-169.361	
121.00	-58.190	-167.740	
122.00	-57.903	-165.342	
123.00	-57.328	-161.644	
124.00	-55.978	-153.900	
125.00	-54.063	-142.274	
126.00	-52.705	-131.806	
127.00	-50.370	-119.029	
128.00	-48.792	-108.581	
129.00	-47.650	-96.865	
130.00	-47.131	-86.916	
131.00	-47.047	-76.971	
132.00	-47.556	-68.759	
133.00	-48.625	-62.378	
134.00	-50.361	-59.285	
135.00	-52.615	-66.548	
136.00	-53.494	-87.241	
137.00	-51.264	-106.099	
138.00	-48.682	-110.769	
139.00	-46.562	-108.623	
140.00	-45.141	-102.099	
141.00	-44.424	-94.875	
142.00	-44.512	-86.291	
143.00	-45.143	-77.407	
144.00	-46.723	-68.268	
145.00	-49.131	-61.103	
146.00	-53.322	-53.854	
147.00	-61.925	-61.088	
148.00	-63.372	-172.365	
149.00	-55.065	177.085	
150.00	-51.746	-179.134	
151.00	-50.172	-172.919	
152.00	-49.708	-165.662	
153.00	-50.005	-159.529	
154.00	-50.683	-153.007	
155.00	-51.659	-148.703	
156.00	-52.804	-144.681	
157.00	-53.749	-141.263	
158.00	-54.195	-139.448	
159.00	-54.251	-140.204	
160.00	-53.761	-140.971	
161.00	-53.154	-146.911	
162.00	-52.448	-155.951	
163.00	-51.073	-169.093	
164.00	-49.332	178.856	
165.00	-47.524	169.218	
166.00	-46.091	163.190	
167.00	-45.146	159.680	
168.00	-45.047	157.583	
169.00	-46.007	157.204	
170.00	-48.841	158.914	
171.00	-55.726	174.513	
172.00	-56.691	-65.520	
173.00	-47.364	-48.531	
174.00	-43.089	-48.736	
175.00	-40.703	-54.667	
176.00	-39.317	-65.039	
177.00	-38.280	-81.233	
178.00	-36.968	-100.927	
179.00	-34.947	-120.571	
180.00	-32.601	-136.126	
181.00	-30.433	-146.961	
182.00	-28.670	-154.968	
183.00	-27.425	-160.728	
184.00	-26.634	-165.248	
185.00	-26.358	-168.748	
186.00	-26.572	-171.454	
187.00	-27.314	-173.508	
188.00	-28.589	-174.578	
189.00	-30.492	-174.318	
190.00	-33.050	-171.678	
191.00	-36.315	-164.516	
192.00	-40.137	-148.943	
193.00	-43.049	-122.171	
194.00	-44.040	-95.459	
195.00	-44.585	-78.935	
196.00	-46.229	-69.049	
197.00	-49.293	-56.555	
198.00	-53.581	-27.996	
199.00	-54.057	17.544	
200.00	-51.785	36.747	
201.00	-51.362	39.352	
202.00	-53.379	30.032	
203.00	-58.937	-5.435	
204.00	-57.534	-96.245	
205.00	-51.058	-127.700	
206.00	-47.567	-143.974	
207.00	-46.082	-157.578	
208.00	-45.797	-171.517	
209.00	-46.686	171.915	
210.00	-48.809	149.529	
211.00	-51.544	112.237	
212.00	-51.653	56.453	
213.00	-48.472	16.445	
214.00	-45.593	-7.916	
215.00	-43.881	-24.014	
216.00	-43.108	-37.574	
217.00	-43.084	-49.634	
218.00	-43.801	-59.235	
219.00	-45.480	-66.610	
220.00	-47.942	-69.519	
221.00	-51.659	-62.456	
222.00	-54.230	-29.797	
223.00	-52.257	-0.787	
224.00	-49.632	6.973	
225.00	-47.983	4.508	
226.00	-47.321	-1.746	
227.00	-47.296	-10.067	
228.00	-48.163	-19.029	
229.00	-49.332	-29.830	
230.00	-50.830	-41.587	
231.00	-52.592	-53.243	
232.00	-54.792	-64.674	
233.00	-56.707	-76.645	
234.00	-58.269	-86.722	
235.00	-60.178	-92.626	
236.00	-62.287	-97.622	
237.00	-63.975	-101.364	
238.00	-66.532	-97.469	
239.00	-69.886	-87.126	
240.00	-70.426	-68.870	
241.00	-67.555	-43.569	
242.00	-64.815	-44.575	
243.00	-63.158	-49.794	
244.00	-61.056	-58.011	
245.00	-60.525	-74.066	
246.00	-60.071	-87.841	
247.00	-59.648	-103.899	
248.00	-60.187	-126.862	
249.00	-60.935	-150.612	
250.00	-62.140	-173.748	
251.00	-62.213	155.903	
252.00	-62.322	125.995	
253.00	-62.175	98.059	
254.00	-61.420	73.702	
255.00	-61.337	49.520	
256.00	-61.513	25.723	
257.00	-61.808	3.404	
258.00	-61.780	-26.364	
259.00	-62.537	-47.813	
260.00	-62.005	-74.051	
261.00	-61.880	-95.091	
262.00	-61.934	-117.115	
263.00	-63.196	-136.267	
264.00	-63.918	-158.391	
265.00	-65.389	177.341	
266.00	-66.958	145.318	
267.00	-68.034	114.624	
268.00	-67.623	77.263	
269.00	-67.290	53.652	
270.00	-66.925	25.431	
271.00	-66.944	2.770	
272.00	-67.784	-25.246	
273.00	-67.027	-49.302	
274.00	-66.436	-81.880	
275.00	-65.883	-105.902	
276.00	-65.108	-129.631	
277.00	-64.817	-152.037	
278.00	-63.990	-165.271	
279.00	-63.876	-177.032	
280.00	-65.512	166.092	
281.00	-65.899	155.854	
282.00	-67.285	147.622	
283.00	-72.246	136.573	
284.00	-77.070	118.728	
285.00	-82.501	144.015	
286.00	-81.891	-101.055	
287.00	-73.827	-118.884	
288.00	-71.059	-129.486	
289.00	-69.934	-144.580	
290.00	-69.686	-155.358	
291.00	-68.917	-156.495	
292.00	-69.731	169.188	
293.00	-69.593	143.594	
294.00	-67.800	123.850	
295.00	-68.460	103.693	
296.00	-66.559	96.756	
297.00	-66.630	72.450	
298.00	-65.510	50.292	
299.00	-66.028	40.548	
300.00	-66.494	22.795	
301.00	-66.764	5.615	
302.00	-68.035	-6.153	
303.00	-70.233	-25.491	
304.00	-74.421	-50.472	
305.00	-93.578	-107.070	
306.00	-83.716	111.339	
307.00	-71.810	99.440	
308.00	-69.268	82.829	
309.00	-66.756	67.001	
310.00	-66.274	55.911	
311.00	-65.948	47.642	
312.00	-68.267	35.963	
313.00	-70.624	33.054	
314.00	-76.549	39.479	
315.00	-78.247	118.239	
316.00	-71.845	138.461	
317.00	-68.450	136.525	
318.00	-67.490	131.119	
319.00	-66.675	127.637	
320.00	-67.469	117.787	
321.00	-67.625	109.585	
322.00	-68.716	104.620	
323.00	-69.131	98.034	
324.00	-69.950	108.829	
325.00	-69.069	117.597	
326.00	-67.206	128.008	
327.00	-66.325	124.635	
328.00	-64.830	124.902	
329.00	-64.286	112.129	
330.00	-64.314	108.601	
331.00	-64.805	106.171	
332.00	-67.313	93.224	
333.00	-71.996	93.685	
334.00	-76.490	108.399	
335.00	-78.802	179.398	
336.00	-72.253	-149.657	
337.00	-69.586	-144.812	
338.00	-68.400	-146.462	
339.00	-67.524	-150.754	
340.00	-67.497	-150.427	
341.00	-67.273	-147.921	
342.00	-66.200	-148.212	
343.00	-65.684	-150.632	
344.00	-65.105	-153.284	
345.00	-63.914	-153.186	
346.00	-63.219	-156.906	
347.00	-63.415	-159.691	
348.00	-63.484	-163.227	
349.00	-63.775	-167.604	
350.00	-65.183	-171.418	
351.00	-66.441	-171.238	
352.00	-69.718	-178.719	
353.00	-74.581	164.461	
354.00	-78.490	117.234	
355.00	-72.581	60.440	
356.00	-70.102	45.665	
357.00	-66.971	36.196	
358.00	-66.005	44.687	
359.00	-65.737	40.285	
Frequency	2496.00	MHz	
Channel	test		
Scan Axis name	Azimuth  [deg]		
Scan Axis	Amplitude	Phase	
			
0.00	-67.498	73.663	
1.00	-78.522	28.437	
2.00	-72.926	-66.182	
3.00	-70.937	-101.615	
4.00	-66.753	-118.761	
5.00	-68.838	-142.424	
6.00	-68.374	-155.610	
7.00	-68.001	-171.688	
8.00	-66.697	169.828	
9.00	-65.775	152.436	
10.00	-64.052	154.745	
11.00	-63.739	160.939	
12.00	-63.199	-176.726	
13.00	-63.448	-164.829	
14.00	-62.897	-136.881	
15.00	-62.838	-113.298	
16.00	-62.846	-94.279	
17.00	-64.186	-68.425	
18.00	-63.328	-43.179	
19.00	-64.079	-10.222	
20.00	-62.723	10.169	
21.00	-61.096	23.882	
22.00	-59.904	36.338	
23.00	-59.780	43.455	
24.00	-60.642	50.831	
25.00	-61.923	49.705	
26.00	-63.910	39.979	
27.00	-64.722	23.267	
28.00	-64.008	-1.723	
29.00	-63.569	-7.864	
30.00	-63.592	-18.539	
31.00	-64.322	-26.913	
32.00	-65.979	-32.233	
33.00	-66.513	-33.264	
34.00	-71.406	-49.622	
35.00	-73.099	-95.536	
36.00	-70.260	-106.555	
37.00	-68.160	-115.664	
38.00	-66.434	-123.155	
39.00	-66.077	-111.316	
40.00	-68.144	-85.963	
41.00	-69.204	-64.819	
42.00	-74.143	-40.489	
43.00	-75.953	-2.374	
44.00	-73.732	51.905	
45.00	-82.424	88.761	
46.00	-80.122	179.965	
47.00	-76.949	-93.081	
48.00	-69.273	-95.971	
49.00	-68.606	-84.033	
50.00	-65.286	-78.677	
51.00	-65.470	-69.556	
52.00	-65.279	-64.480	
53.00	-65.120	-47.249	
54.00	-66.541	-31.275	
55.00	-67.965	-1.200	
56.00	-70.901	44.610	
57.00	-67.562	76.305	
58.00	-62.790	110.881	
59.00	-62.181	129.511	
60.00	-62.081	145.115	
61.00	-61.294	161.620	
62.00	-63.734	-175.460	
63.00	-65.876	-150.363	
64.00	-70.114	-119.218	
65.00	-70.455	-54.688	
66.00	-65.963	-22.701	
67.00	-66.426	0.551	
68.00	-64.294	19.906	
69.00	-64.571	39.872	
70.00	-66.400	58.432	
71.00	-68.291	60.347	
72.00	-70.609	66.963	
73.00	-73.533	48.862	
74.00	-76.266	31.329	
75.00	-72.482	28.358	
76.00	-72.728	38.231	
77.00	-70.318	80.332	
78.00	-72.905	107.648	
79.00	-67.464	153.525	
80.00	-65.843	-176.706	
81.00	-63.794	-157.963	
82.00	-62.199	-133.896	
83.00	-61.441	-114.766	
84.00	-60.224	-93.689	
85.00	-61.278	-71.780	
86.00	-61.893	-44.518	
87.00	-60.849	-22.827	
88.00	-63.673	0.870	
89.00	-62.233	45.612	
90.00	-62.244	78.022	
91.00	-61.353	126.058	
92.00	-60.535	135.442	
93.00	-59.744	165.207	
94.00	-59.332	-169.766	
95.00	-59.291	-150.963	
96.00	-59.575	-129.487	
97.00	-60.991	-104.129	
98.00	-61.420	-63.487	
99.00	-62.156	-34.366	
100.00	-61.617	3.911	
101.00	-61.618	39.586	
102.00	-60.790	65.777	
103.00	-61.748	95.475	
104.00	-61.802	132.786	
105.00	-61.090	168.395	
106.00	-59.869	-162.174	
107.00	-58.461	-135.303	
108.00	-57.778	-116.807	
109.00	-56.980	-93.045	
110.00	-56.960	-80.068	
111.00	-57.880	-60.621	
112.00	-59.122	-44.356	
113.00	-61.149	-26.305	
114.00	-63.311	5.257	
115.00	-64.896	33.314	
116.00	-64.601	53.698	
117.00	-63.698	75.927	
118.00	-62.859	86.557	
119.00	-61.193	85.655	
120.00	-60.342	98.392	
121.00	-59.432	99.973	
122.00	-59.341	109.775	
123.00	-60.663	126.005	
124.00	-63.009	155.087	
125.00	-64.808	-149.039	
126.00	-60.191	-91.969	
127.00	-56.271	-64.415	
128.00	-52.767	-44.887	
129.00	-51.003	-26.166	
130.00	-49.872	-10.305	
131.00	-49.406	6.412	
132.00	-49.574	25.384	
133.00	-50.395	43.264	
134.00	-51.256	66.922	
135.00	-53.766	95.202	
136.00	-56.871	130.694	
137.00	-57.538	-169.069	
138.00	-55.192	-115.246	
139.00	-51.335	-80.558	
140.00	-48.616	-57.345	
141.00	-46.792	-39.349	
142.00	-45.561	-21.390	
143.00	-45.091	-5.799	
144.00	-45.562	9.313	
145.00	-46.531	24.865	
146.00	-48.374	44.192	
147.00	-51.576	70.457	
148.00	-54.141	113.388	
149.00	-52.701	167.149	
150.00	-49.751	-162.942	
151.00	-47.707	-145.555	
152.00	-46.340	-131.509	
153.00	-45.939	-118.277	
154.00	-46.040	-106.772	
155.00	-46.521	-94.970	
156.00	-47.100	-80.063	
157.00	-47.892	-65.078	
158.00	-48.745	-49.854	
159.00	-49.537	-32.444	
160.00	-50.336	-15.285	
161.00	-51.052	-0.293	
162.00	-52.357	18.999	
163.00	-55.195	35.739	
164.00	-61.065	66.736	
165.00	-60.519	163.996	
166.00	-53.413	-162.761	
167.00	-49.228	-152.868	
168.00	-46.849	-146.938	
169.00	-45.736	-143.350	
170.00	-45.803	-141.707	
171.00	-47.428	-139.737	
172.00	-51.234	-140.660	
173.00	-62.942	-156.484	
174.00	-56.629	50.741	
175.00	-49.107	42.737	
176.00	-46.477	32.355	
177.00	-45.481	19.216	
178.00	-45.230	-2.960	
179.00	-43.726	-35.432	
180.00	-40.522	-62.807	
181.00	-37.244	-78.825	
182.00	-34.589	-88.769	
183.00	-32.659	-95.222	
184.00	-31.412	-99.959	
185.00	-30.780	-103.454	
186.00	-30.754	-106.221	
187.00	-31.320	-108.203	
188.00	-32.561	-109.505	
189.00	-34.481	-109.723	
190.00	-37.093	-107.170	
191.00	-40.657	-100.148	
192.00	-44.879	-83.494	
193.00	-48.089	-56.075	
194.00	-49.215	-29.781	
195.00	-50.923	-14.421	
196.00	-54.818	-4.926	
197.00	-66.397	44.970	
198.00	-58.076	137.445	
199.00	-52.898	141.635	
200.00	-51.286	134.024	
201.00	-52.050	119.349	
202.00	-54.467	92.508	
203.00	-55.441	39.425	
204.00	-52.179	-5.686	
205.00	-49.216	-27.388	
206.00	-47.939	-42.247	
207.00	-48.178	-53.431	
208.00	-50.391	-66.427	
209.00	-55.292	-82.306	
210.00	-68.948	166.854	
211.00	-54.461	99.542	
212.00	-49.386	84.166	
213.00	-46.907	71.017	
214.00	-45.736	58.269	
215.00	-45.780	46.011	
216.00	-46.670	34.044	
217.00	-48.710	20.880	
218.00	-52.398	10.260	
219.00	-59.406	6.299	
220.00	-68.819	114.613	
221.00	-56.509	127.027	
222.00	-51.868	114.887	
223.00	-49.528	100.029	
224.00	-48.031	83.495	
225.00	-47.375	69.274	
226.00	-47.341	53.811	
227.00	-47.674	39.190	
228.00	-48.603	24.528	
229.00	-50.011	9.223	
230.00	-51.578	-7.299	
231.00	-53.632	-25.017	
232.00	-55.403	-41.877	
233.00	-57.915	-62.801	
234.00	-59.370	-81.379	
235.00	-61.747	-102.810	
236.00	-61.918	-125.220	
237.00	-61.641	-150.800	
238.00	-60.466	-169.276	
239.00	-59.989	171.989	
240.00	-59.224	155.141	
241.00	-58.553	134.111	
242.00	-58.468	115.591	
243.00	-58.174	94.733	
244.00	-58.223	76.052	
245.00	-58.976	56.759	
246.00	-60.387	33.535	
247.00	-61.976	11.959	
248.00	-65.428	-14.736	
249.00	-69.649	-61.217	
250.00	-67.638	-142.492	
251.00	-63.031	-178.499	
252.00	-59.951	159.339	
253.00	-58.006	140.606	
254.00	-56.941	124.316	
255.00	-56.343	105.536	
256.00	-56.904	89.378	
257.00	-57.178	69.750	
258.00	-58.395	43.968	
259.00	-59.591	17.165	
260.00	-59.946	-6.763	
261.00	-60.412	-34.463	
262.00	-60.724	-66.685	
263.00	-60.357	-92.876	
264.00	-59.979	-117.235	
265.00	-60.095	-146.271	
266.00	-59.346	-167.487	
267.00	-59.003	169.339	
268.00	-58.804	147.482	
269.00	-58.761	128.360	
270.00	-59.038	107.953	
271.00	-59.026	90.843	
272.00	-59.318	69.691	
273.00	-59.931	52.143	
274.00	-60.551	33.544	
275.00	-61.002	17.251	
276.00	-62.133	-1.131	
277.00	-63.488	-10.790	
278.00	-66.632	-28.510	
279.00	-71.647	-56.913	
280.00	-80.024	-117.811	
281.00	-76.823	169.816	
282.00	-70.486	133.306	
283.00	-67.454	123.924	
284.00	-66.732	101.224	
285.00	-67.033	84.940	
286.00	-66.507	68.158	
287.00	-65.358	32.735	
288.00	-66.075	11.690	
289.00	-64.902	-14.030	
290.00	-64.887	-29.311	
291.00	-64.012	-40.938	
292.00	-64.599	-65.444	
293.00	-65.064	-74.043	
294.00	-65.435	-87.752	
295.00	-67.089	-115.382	
296.00	-68.472	-139.612	
297.00	-68.790	-172.050	
298.00	-68.774	144.829	
299.00	-68.118	113.156	
300.00	-66.912	89.569	
301.00	-66.675	61.737	
302.00	-67.056	43.882	
303.00	-65.976	20.073	
304.00	-69.470	2.536	
305.00	-69.958	-31.879	
306.00	-73.864	-71.019	
307.00	-73.516	-130.838	
308.00	-68.779	164.464	
309.00	-65.352	152.755	
310.00	-62.735	135.637	
311.00	-61.820	123.904	
312.00	-61.783	112.509	
313.00	-62.441	102.979	
314.00	-63.184	88.453	
315.00	-65.447	77.655	
316.00	-66.818	50.073	
317.00	-68.626	19.119	
318.00	-68.861	-3.426	
319.00	-69.420	-37.397	
320.00	-70.217	-55.160	
321.00	-71.681	-77.755	
322.00	-72.695	-96.877	
323.00	-80.458	-97.006	
324.00	-83.452	-118.720	
325.00	-90.512	-65.650	
326.00	-80.278	-48.187	
327.00	-79.798	-72.045	
328.00	-78.819	-80.136	
329.00	-77.335	-108.590	
330.00	-85.361	-136.125	
331.00	-87.826	62.695	
332.00	-78.139	38.098	
333.00	-68.325	11.553	
334.00	-65.617	-0.349	
335.00	-61.924	-3.185	
336.00	-60.970	-18.650	
337.00	-60.215	-23.217	
338.00	-60.617	-25.980	
339.00	-61.241	-34.152	
340.00	-63.531	-38.141	
341.00	-64.823	-24.229	
342.00	-67.811	-12.591	
343.00	-66.833	5.227	
344.00	-66.612	29.560	
345.00	-65.060	27.814	
346.00	-63.756	33.465	
347.00	-63.310	28.051	
348.00	-63.930	13.135	
349.00	-63.401	-1.688	
350.00	-65.344	-8.347	
351.00	-69.235	-22.690	
352.00	-73.041	-31.346	
353.00	-89.062	-68.461	
354.00	-77.603	134.221	
355.00	-68.215	117.588	
356.00	-64.186	107.537	
357.00	-62.277	104.592	
358.00	-63.013	93.999	
359.00	-62.987	89.966	
Frequency	2550.00	MHz	
Channel	test		
Scan Axis name	Azimuth  [deg]		
Scan Axis	Amplitude	Phase	
			
0.00	-72.611	133.107	
1.00	-81.733	-73.033	
2.00	-75.961	-75.683	
3.00	-70.185	-57.666	
4.00	-68.184	-28.742	
5.00	-70.259	-57.839	
6.00	-70.810	-4.153	
7.00	-68.609	11.548	
8.00	-67.845	28.280	
9.00	-68.271	25.191	
10.00	-67.702	38.536	
11.00	-70.351	42.198	
12.00	-75.658	9.217	
13.00	-69.181	-47.127	
14.00	-66.098	-56.079	
15.00	-63.900	-53.737	
16.00	-63.851	-52.406	
17.00	-63.515	-41.723	
18.00	-65.089	-33.734	
19.00	-68.091	-2.484	
20.00	-65.387	22.912	
21.00	-65.249	41.843	
22.00	-63.043	61.183	
23.00	-63.422	65.315	
24.00	-63.158	53.713	
25.00	-62.835	56.141	
26.00	-64.171	42.358	
27.00	-63.074	28.654	
28.00	-61.740	23.419	
29.00	-63.568	33.631	
30.00	-62.547	37.608	
31.00	-62.580	46.129	
32.00	-63.468	60.787	
33.00	-63.781	71.075	
34.00	-66.936	87.316	
35.00	-67.993	103.562	
36.00	-70.055	112.496	
37.00	-74.043	154.172	
38.00	-85.208	110.668	
39.00	-76.147	10.025	
40.00	-70.749	19.391	
41.00	-64.636	42.860	
42.00	-62.264	56.363	
43.00	-61.761	70.023	
44.00	-61.378	82.454	
45.00	-62.602	101.542	
46.00	-64.111	117.163	
47.00	-66.416	129.520	
48.00	-72.234	174.692	
49.00	-74.274	-121.430	
50.00	-68.645	-78.021	
51.00	-68.462	-58.235	
52.00	-66.340	-61.340	
53.00	-70.975	-56.089	
54.00	-72.087	-24.853	
55.00	-79.225	28.217	
56.00	-73.767	96.521	
57.00	-67.813	129.091	
58.00	-65.203	141.615	
59.00	-64.703	156.946	
60.00	-65.909	-176.485	
61.00	-66.744	-158.519	
62.00	-67.684	-104.054	
63.00	-68.053	-67.667	
64.00	-65.964	-33.738	
65.00	-64.955	-1.018	
66.00	-64.509	24.139	
67.00	-65.124	47.599	
68.00	-65.462	61.425	
69.00	-68.877	84.988	
70.00	-79.035	107.400	
71.00	-87.527	-15.364	
72.00	-72.750	-34.185	
73.00	-67.402	-11.904	
74.00	-64.757	11.704	
75.00	-64.371	39.638	
76.00	-64.215	66.497	
77.00	-63.336	99.109	
78.00	-62.450	133.508	
79.00	-61.297	157.997	
80.00	-59.744	-172.595	
81.00	-59.292	-143.455	
82.00	-59.069	-115.260	
83.00	-58.470	-92.311	
84.00	-58.960	-63.504	
85.00	-58.493	-26.417	
86.00	-57.548	-5.752	
87.00	-55.885	18.497	
88.00	-56.463	36.035	
89.00	-56.509	69.991	
90.00	-55.746	80.095	
91.00	-56.727	103.228	
92.00	-57.102	136.337	
93.00	-58.489	156.987	
94.00	-59.386	-172.912	
95.00	-59.221	-138.785	
96.00	-61.832	-126.353	
97.00	-64.822	-104.564	
98.00	-70.082	-79.611	
99.00	-76.752	31.287	
100.00	-69.943	78.748	
101.00	-63.936	119.139	
102.00	-62.277	150.796	
103.00	-60.934	165.619	
104.00	-59.537	-171.639	
105.00	-59.669	-148.200	
106.00	-59.801	-125.753	
107.00	-60.125	-101.942	
108.00	-60.565	-78.315	
109.00	-61.945	-53.593	
110.00	-63.534	-27.804	
111.00	-65.438	7.720	
112.00	-68.113	45.077	
113.00	-67.164	92.131	
114.00	-64.819	129.038	
115.00	-64.108	148.430	
116.00	-62.848	164.368	
117.00	-62.336	171.388	
118.00	-63.190	166.057	
119.00	-62.610	161.387	
120.00	-62.682	155.251	
121.00	-61.924	151.508	
122.00	-62.631	157.188	
123.00	-64.524	172.287	
124.00	-68.230	-137.126	
125.00	-64.634	-57.546	
126.00	-58.746	-24.804	
127.00	-55.154	-6.009	
128.00	-52.942	12.556	
129.00	-51.011	30.122	
130.00	-50.159	48.248	
131.00	-49.884	68.122	
132.00	-49.533	89.050	
133.00	-49.826	111.008	
134.00	-50.280	131.561	
135.00	-51.978	154.518	
136.00	-55.197	-177.595	
137.00	-58.560	-129.035	
138.00	-56.389	-59.736	
139.00	-52.211	-21.031	
140.00	-49.136	3.385	
141.00	-47.198	22.575	
142.00	-45.862	40.950	
143.00	-45.091	56.479	
144.00	-45.029	73.826	
145.00	-45.672	89.827	
146.00	-46.744	107.182	
147.00	-48.511	129.983	
148.00	-50.143	158.556	
149.00	-50.948	-165.160	
150.00	-50.441	-132.520	
151.00	-49.511	-107.421	
152.00	-48.915	-86.788	
153.00	-48.956	-68.142	
154.00	-49.206	-49.493	
155.00	-49.726	-30.702	
156.00	-50.323	-9.759	
157.00	-50.813	13.721	
158.00	-50.905	36.877	
159.00	-50.556	60.150	
160.00	-50.223	79.120	
161.00	-49.937	95.688	
162.00	-50.433	112.050	
163.00	-51.367	130.297	
164.00	-52.803	160.021	
165.00	-52.659	-164.250	
166.00	-50.107	-135.776	
167.00	-47.769	-110.837	
168.00	-46.009	-99.840	
169.00	-45.032	-91.034	
170.00	-45.139	-83.604	
171.00	-46.476	-76.866	
172.00	-49.362	-66.080	
173.00	-54.127	-33.988	
174.00	-53.961	31.258	
175.00	-49.163	52.083	
176.00	-46.470	52.350	
177.00	-44.979	40.047	
178.00	-43.200	18.244	
179.00	-40.392	-4.604	
180.00	-37.110	-20.301	
181.00	-34.270	-30.097	
182.00	-32.030	-36.707	
183.00	-30.510	-41.326	
184.00	-29.569	-44.788	
185.00	-29.199	-47.566	
186.00	-29.394	-49.535	
187.00	-30.225	-51.138	
188.00	-31.621	-51.976	
189.00	-33.784	-51.647	
190.00	-36.704	-49.249	
191.00	-40.488	-42.025	
192.00	-44.776	-24.430	
193.00	-47.894	3.242	
194.00	-49.341	24.141	
195.00	-51.463	29.848	
196.00	-55.864	21.708	
197.00	-64.656	-47.820	
198.00	-57.722	-114.665	
199.00	-54.178	-134.162	
200.00	-54.644	-148.607	
201.00	-59.060	-170.595	
202.00	-62.641	85.036	
203.00	-53.391	38.382	
204.00	-48.728	21.372	
205.00	-46.462	8.124	
206.00	-45.473	-4.036	
207.00	-45.958	-16.431	
208.00	-47.755	-32.846	
209.00	-51.805	-59.171	
210.00	-55.525	-118.764	
211.00	-51.798	-178.353	
212.00	-48.020	154.965	
213.00	-45.883	136.518	
214.00	-45.024	122.223	
215.00	-45.171	109.280	
216.00	-46.175	96.939	
217.00	-48.271	85.343	
218.00	-51.590	75.701	
219.00	-57.168	73.375	
220.00	-64.897	124.008	
221.00	-58.648	163.883	
222.00	-54.125	160.305	
223.00	-51.743	149.632	
224.00	-50.412	136.161	
225.00	-49.628	123.564	
226.00	-49.536	113.764	
227.00	-49.856	103.645	
228.00	-50.770	96.115	
229.00	-51.990	90.345	
230.00	-53.231	85.650	
231.00	-54.880	79.813	
232.00	-55.893	70.378	
233.00	-57.394	58.732	
234.00	-58.238	46.994	
235.00	-59.223	29.045	
236.00	-59.525	4.048	
237.00	-61.011	-17.038	
238.00	-60.805	-42.000	
239.00	-62.578	-60.215	
240.00	-64.740	-94.712	
241.00	-66.465	-121.877	
242.00	-67.457	-151.355	
243.00	-73.588	-178.098	
244.00	-79.470	94.636	
245.00	-72.115	-3.160	
246.00	-67.189	-26.651	
247.00	-63.146	-48.744	
248.00	-60.780	-76.942	
249.00	-58.336	-96.371	
250.00	-57.102	-117.667	
251.00	-56.136	-137.060	
252.00	-55.384	-154.995	
253.00	-54.738	-174.652	
254.00	-54.628	165.718	
255.00	-54.668	148.939	
256.00	-55.122	131.776	
257.00	-55.682	113.278	
258.00	-56.574	96.089	
259.00	-57.979	73.546	
260.00	-58.760	54.885	
261.00	-60.783	26.156	
262.00	-62.497	-3.239	
263.00	-62.961	-35.651	
264.00	-62.590	-68.012	
265.00	-62.198	-88.922	
266.00	-61.804	-113.394	
267.00	-61.317	-133.356	
268.00	-61.343	-151.008	
269.00	-61.436	-169.457	
270.00	-61.410	173.551	
271.00	-61.640	159.484	
272.00	-62.022	146.047	
273.00	-63.514	132.500	
274.00	-64.946	119.882	
275.00	-67.306	104.779	
276.00	-69.250	91.308	
277.00	-73.738	70.793	
278.00	-73.795	54.557	
279.00	-83.929	-16.760	
280.00	-86.471	77.427	
281.00	-77.584	161.154	
282.00	-68.218	152.113	
283.00	-68.381	155.682	
284.00	-68.806	132.239	
285.00	-70.335	131.223	
286.00	-69.787	112.480	
287.00	-70.896	104.418	
288.00	-74.218	74.644	
289.00	-72.144	74.768	
290.00	-76.402	32.681	
291.00	-75.341	90.265	
292.00	-75.528	66.936	
293.00	-78.528	94.292	
294.00	-79.229	71.291	
295.00	-81.086	78.136	
296.00	-80.403	82.299	
297.00	-90.207	-66.543	
298.00	-75.432	-132.948	
299.00	-72.909	-119.111	
300.00	-69.142	-133.706	
301.00	-69.089	-129.463	
302.00	-68.311	-143.482	
303.00	-69.233	-149.164	
304.00	-71.207	-132.911	
305.00	-73.654	-123.035	
306.00	-73.530	-99.225	
307.00	-69.916	-96.867	
308.00	-69.622	-92.363	
309.00	-68.666	-102.325	
310.00	-67.724	-108.800	
311.00	-68.316	-128.598	
312.00	-66.774	-139.582	
313.00	-65.252	-145.725	
314.00	-65.756	-150.000	
315.00	-63.766	-146.496	
316.00	-62.605	-152.678	
317.00	-62.816	-151.403	
318.00	-62.384	-153.340	
319.00	-63.529	-152.170	
320.00	-63.632	-149.977	
321.00	-64.235	-148.053	
322.00	-63.753	-147.334	
323.00	-62.828	-154.061	
324.00	-63.097	-157.102	
325.00	-63.216	-169.295	
326.00	-63.463	-174.016	
327.00	-64.879	-177.616	
328.00	-65.953	-177.593	
329.00	-67.891	-177.182	
330.00	-71.123	-161.802	
331.00	-69.848	-159.988	
332.00	-71.357	-159.536	
333.00	-72.328	-172.146	
334.00	-71.615	168.036	
335.00	-74.381	145.194	
336.00	-76.894	103.933	
337.00	-72.393	65.793	
338.00	-71.059	44.912	
339.00	-69.283	31.349	
340.00	-69.007	16.708	
341.00	-73.434	16.562	
342.00	-84.785	23.701	
343.00	-80.495	128.765	
344.00	-78.100	144.451	
345.00	-71.536	114.954	
346.00	-69.544	104.457	
347.00	-69.198	76.600	
348.00	-71.756	60.183	
349.00	-71.052	42.066	
350.00	-71.430	-5.157	
351.00	-72.302	-30.438	
352.00	-72.396	-68.545	
353.00	-72.438	-109.844	
354.00	-72.959	-138.658	
355.00	-70.039	-172.628	
356.00	-66.601	152.894	
357.00	-64.610	150.421	
358.00	-66.833	151.404	
359.00	-67.041	159.522	
Frequency	2600.00	MHz	
Channel	test		
Scan Axis name	Azimuth  [deg]		
Scan Axis	Amplitude	Phase	
			
0.00	-69.360	84.101	
1.00	-68.785	51.511	
2.00	-68.532	21.486	
3.00	-66.468	1.039	
4.00	-67.167	-4.279	
5.00	-67.670	-27.147	
6.00	-67.776	-26.359	
7.00	-71.098	-32.239	
8.00	-73.574	-41.703	
9.00	-77.989	-94.974	
10.00	-72.941	-121.667	
11.00	-69.714	-137.217	
12.00	-69.892	-135.713	
13.00	-67.511	-124.911	
14.00	-65.586	-116.413	
15.00	-65.075	-98.720	
16.00	-64.725	-86.526	
17.00	-65.092	-68.351	
18.00	-67.081	-61.997	
19.00	-68.737	-34.319	
20.00	-69.933	-4.468	
21.00	-69.653	12.882	
22.00	-68.599	20.557	
23.00	-68.087	46.376	
24.00	-68.601	31.858	
25.00	-70.602	38.389	
26.00	-73.823	15.314	
27.00	-73.159	-11.714	
28.00	-70.799	-1.705	
29.00	-72.327	13.208	
30.00	-72.702	21.936	
31.00	-72.097	57.304	
32.00	-72.202	72.103	
33.00	-73.914	97.850	
34.00	-74.105	148.408	
35.00	-71.723	-168.044	
36.00	-69.053	-131.972	
37.00	-64.409	-109.310	
38.00	-62.049	-97.789	
39.00	-60.001	-83.002	
40.00	-59.740	-73.039	
41.00	-61.682	-61.301	
42.00	-65.472	-43.259	
43.00	-77.213	-24.825	
44.00	-71.557	152.750	
45.00	-63.821	-177.173	
46.00	-60.786	-165.867	
47.00	-59.726	-151.560	
48.00	-59.313	-138.027	
49.00	-59.076	-125.666	
50.00	-60.043	-114.982	
51.00	-60.364	-106.172	
52.00	-61.372	-98.454	
53.00	-62.801	-87.227	
54.00	-65.121	-79.807	
55.00	-68.851	-80.246	
56.00	-75.377	-98.702	
57.00	-72.123	-170.539	
58.00	-66.281	-166.637	
59.00	-64.179	-149.606	
60.00	-62.784	-131.326	
61.00	-61.655	-110.437	
62.00	-61.502	-83.343	
63.00	-62.690	-62.890	
64.00	-65.162	-39.857	
65.00	-69.958	-24.433	
66.00	-91.946	144.465	
67.00	-69.380	-169.340	
68.00	-65.121	-151.937	
69.00	-62.799	-136.512	
70.00	-62.718	-111.431	
71.00	-63.864	-82.250	
72.00	-65.049	-42.909	
73.00	-65.124	7.090	
74.00	-63.601	54.920	
75.00	-61.752	90.288	
76.00	-59.980	124.281	
77.00	-58.097	150.748	
78.00	-57.669	176.509	
79.00	-57.091	-153.777	
80.00	-56.611	-124.374	
81.00	-56.592	-94.207	
82.00	-56.588	-62.286	
83.00	-55.680	-32.299	
84.00	-55.268	-2.195	
85.00	-54.969	23.687	
86.00	-54.638	55.233	
87.00	-54.175	81.922	
88.00	-53.667	111.018	
89.00	-53.346	135.561	
90.00	-52.831	160.448	
91.00	-52.799	-176.459	
92.00	-53.009	-152.540	
93.00	-53.272	-127.054	
94.00	-53.665	-99.666	
95.00	-53.834	-73.998	
96.00	-54.121	-45.562	
97.00	-54.119	-23.340	
98.00	-54.419	0.492	
99.00	-55.037	20.830	
100.00	-56.361	42.024	
101.00	-58.925	71.796	
102.00	-63.306	98.921	
103.00	-69.102	149.871	
104.00	-71.746	-128.422	
105.00	-65.610	-69.779	
106.00	-61.541	-45.649	
107.00	-59.591	-19.251	
108.00	-58.591	2.678	
109.00	-57.765	25.951	
110.00	-58.125	47.737	
111.00	-58.497	70.340	
112.00	-59.942	92.369	
113.00	-62.181	116.761	
114.00	-66.549	159.021	
115.00	-70.249	-138.598	
116.00	-64.974	-74.431	
117.00	-62.088	-42.599	
118.00	-59.621	-17.168	
119.00	-58.237	5.971	
120.00	-57.241	31.881	
121.00	-56.499	51.131	
122.00	-55.590	72.112	
123.00	-55.229	86.275	
124.00	-54.334	97.291	
125.00	-53.639	103.014	
126.00	-53.004	106.359	
127.00	-52.103	107.206	
128.00	-51.340	110.635	
129.00	-50.028	119.737	
130.00	-49.498	130.660	
131.00	-49.115	147.598	
132.00	-49.075	165.156	
133.00	-49.183	-174.036	
134.00	-49.508	-153.419	
135.00	-50.442	-133.029	
136.00	-52.325	-107.819	
137.00	-55.475	-73.929	
138.00	-58.696	-13.993	
139.00	-55.062	52.978	
140.00	-50.397	88.643	
141.00	-47.254	110.916	
142.00	-45.003	129.883	
143.00	-43.623	146.386	
144.00	-42.936	162.333	
145.00	-42.823	177.647	
146.00	-43.296	-166.203	
147.00	-44.258	-148.790	
148.00	-45.586	-129.433	
149.00	-47.097	-106.228	
150.00	-48.444	-81.121	
151.00	-49.338	-53.663	
152.00	-50.022	-26.703	
153.00	-50.338	-1.747	
154.00	-50.480	23.524	
155.00	-50.400	45.483	
156.00	-50.296	67.155	
157.00	-49.994	87.655	
158.00	-49.575	106.470	
159.00	-49.052	122.585	
160.00	-48.973	135.193	
161.00	-49.693	145.787	
162.00	-51.775	154.136	
163.00	-56.991	157.625	
164.00	-71.065	31.035	
165.00	-53.177	5.132	
166.00	-47.376	7.398	
167.00	-44.082	11.200	
168.00	-42.382	15.216	
169.00	-41.688	19.032	
170.00	-41.992	24.325	
171.00	-43.320	30.763	
172.00	-45.813	42.634	
173.00	-48.731	66.899	
174.00	-49.073	102.909	
175.00	-46.601	121.768	
176.00	-44.052	120.730	
177.00	-41.514	108.297	
178.00	-38.588	93.243	
179.00	-35.493	80.393	
180.00	-32.688	71.056	
181.00	-30.428	64.446	
182.00	-28.718	59.658	
183.00	-27.619	55.891	
184.00	-27.043	52.927	
185.00	-27.017	50.440	
186.00	-27.530	48.349	
187.00	-28.648	46.680	
188.00	-30.410	45.784	
189.00	-32.995	46.233	
190.00	-36.570	49.871	
191.00	-41.429	61.206	
192.00	-46.680	94.042	
193.00	-47.645	137.253	
194.00	-46.916	158.745	
195.00	-47.777	167.898	
196.00	-50.727	175.298	
197.00	-55.422	-162.284	
198.00	-57.955	-113.966	
199.00	-56.350	-89.641	
200.00	-57.415	-93.771	
201.00	-61.913	-141.374	
202.00	-55.369	141.084	
203.00	-49.589	120.663	
204.00	-46.450	109.180	
205.00	-44.904	98.619	
206.00	-44.698	87.578	
207.00	-45.784	75.503	
208.00	-48.432	61.123	
209.00	-54.006	36.699	
210.00	-58.803	-60.205	
211.00	-50.551	-116.993	
212.00	-46.124	-135.258	
213.00	-43.810	-148.235	
214.00	-42.623	-159.934	
215.00	-42.338	-170.575	
216.00	-42.821	179.720	
217.00	-43.967	170.190	
218.00	-45.597	162.562	
219.00	-47.856	156.806	
220.00	-50.412	155.601	
221.00	-53.400	158.479	
222.00	-55.710	168.817	
223.00	-56.617	-179.385	
224.00	-56.615	-174.589	
225.00	-56.215	-175.950	
226.00	-55.783	-177.793	
227.00	-55.566	177.876	
228.00	-54.908	174.912	
229.00	-54.173	170.652	
230.00	-53.682	164.296	
231.00	-53.350	155.659	
232.00	-52.987	144.341	
233.00	-52.814	132.228	
234.00	-52.877	116.475	
235.00	-53.206	98.656	
236.00	-53.751	84.269	
237.00	-54.692	68.358	
238.00	-55.939	52.991	
239.00	-58.199	41.190	
240.00	-60.892	32.149	
241.00	-63.924	36.399	
242.00	-66.311	55.201	
243.00	-64.875	67.986	
244.00	-61.825	65.082	
245.00	-59.451	51.148	
246.00	-58.046	34.558	
247.00	-57.424	17.190	
248.00	-56.576	-2.506	
249.00	-55.993	-25.731	
250.00	-55.436	-45.074	
251.00	-55.421	-65.852	
252.00	-55.281	-82.525	
253.00	-55.778	-102.758	
254.00	-56.487	-119.647	
255.00	-57.934	-140.994	
256.00	-59.878	-166.357	
257.00	-60.847	166.154	
258.00	-62.137	134.271	
259.00	-62.016	105.509	
260.00	-61.166	78.155	
261.00	-60.626	57.260	
262.00	-60.899	35.152	
263.00	-60.787	21.788	
264.00	-60.394	5.630	
265.00	-61.026	-6.927	
266.00	-61.751	-20.801	
267.00	-63.304	-36.637	
268.00	-65.188	-53.230	
269.00	-67.378	-76.585	
270.00	-67.813	-98.146	
271.00	-68.483	-123.796	
272.00	-69.682	-148.842	
273.00	-69.481	-165.565	
274.00	-73.645	171.100	
275.00	-75.310	138.626	
276.00	-73.602	104.400	
277.00	-72.459	70.688	
278.00	-75.124	63.396	
279.00	-78.101	49.517	
280.00	-88.265	63.248	
281.00	-80.981	-135.024	
282.00	-78.320	-159.311	
283.00	-72.511	-171.191	
284.00	-70.411	168.071	
285.00	-67.728	155.618	
286.00	-66.432	136.593	
287.00	-66.231	114.815	
288.00	-67.498	99.476	
289.00	-68.146	79.951	
290.00	-74.387	55.383	
291.00	-73.815	15.125	
292.00	-73.030	-24.672	
293.00	-72.579	-49.550	
294.00	-76.412	-74.735	
295.00	-80.808	-88.379	
296.00	-82.566	-177.050	
297.00	-76.810	133.794	
298.00	-73.077	107.864	
299.00	-72.220	96.828	
300.00	-72.682	79.817	
301.00	-75.516	64.944	
302.00	-81.415	8.741	
303.00	-75.020	-68.663	
304.00	-69.622	-85.135	
305.00	-68.024	-103.049	
306.00	-66.550	-105.385	
307.00	-67.621	-109.418	
308.00	-70.048	-112.413	
309.00	-75.296	-98.827	
310.00	-76.817	-21.014	
311.00	-70.449	5.573	
312.00	-67.233	9.571	
313.00	-64.330	5.422	
314.00	-62.860	-0.161	
315.00	-62.985	-7.514	
316.00	-63.659	-16.402	
317.00	-64.350	-27.612	
318.00	-66.225	-33.034	
319.00	-69.301	-39.857	
320.00	-70.321	-28.942	
321.00	-71.363	-5.850	
322.00	-69.503	4.231	
323.00	-67.525	10.490	
324.00	-67.373	13.329	
325.00	-67.025	15.911	
326.00	-67.500	20.706	
327.00	-67.351	29.646	
328.00	-66.736	35.989	
329.00	-65.472	38.301	
330.00	-64.330	37.455	
331.00	-63.545	33.863	
332.00	-63.287	27.690	
333.00	-63.410	22.267	
334.00	-64.162	17.181	
335.00	-64.951	2.102	
336.00	-65.989	-15.557	
337.00	-66.415	-34.394	
338.00	-68.870	-52.854	
339.00	-71.509	-61.310	
340.00	-77.488	-51.570	
341.00	-88.948	72.859	
342.00	-77.291	83.954	
343.00	-75.743	70.642	
344.00	-73.618	62.878	
345.00	-74.459	65.683	
346.00	-71.766	66.976	
347.00	-70.677	78.639	
348.00	-68.459	92.013	
349.00	-66.713	101.491	
350.00	-65.407	112.516	
351.00	-65.244	108.580	
352.00	-65.422	104.423	
353.00	-65.308	103.602	
354.00	-65.334	102.420	
355.00	-65.499	108.985	
356.00	-65.403	118.053	
357.00	-64.856	117.425	
358.00	-66.159	113.605	
359.00	-67.284	104.696	
Frequency	2650.00	MHz	
Channel	test		
Scan Axis name	Azimuth  [deg]		
Scan Axis	Amplitude	Phase	
			
0.00	-68.300	123.392	
1.00	-73.750	135.481	
2.00	-69.758	36.001	
3.00	-80.371	-31.039	
4.00	-70.707	-32.493	
5.00	-65.046	-65.637	
6.00	-66.485	-47.000	
7.00	-64.091	-66.037	
8.00	-63.847	-52.620	
9.00	-69.533	-80.719	
10.00	-68.795	-29.204	
11.00	-74.987	107.656	
12.00	-71.576	172.344	
13.00	-70.336	140.043	
14.00	-67.871	142.425	
15.00	-66.664	138.690	
16.00	-70.603	-151.318	
17.00	-73.725	-75.326	
18.00	-71.501	-99.062	
19.00	-68.142	-78.313	
20.00	-70.304	-16.725	
21.00	-67.896	-5.509	
22.00	-74.003	65.566	
23.00	-62.114	56.392	
24.00	-65.410	48.403	
25.00	-65.696	68.401	
26.00	-64.922	85.469	
27.00	-67.127	49.104	
28.00	-71.273	13.376	
29.00	-68.018	22.810	
30.00	-82.473	-50.512	
31.00	-63.213	-11.896	
32.00	-71.531	-35.786	
33.00	-69.619	-39.917	
34.00	-73.227	-61.174	
35.00	-70.405	-76.316	
36.00	-65.665	-82.028	
37.00	-63.244	-68.935	
38.00	-61.055	-64.302	
39.00	-60.416	-48.780	
40.00	-60.034	-36.238	
41.00	-60.540	-17.611	
42.00	-61.481	5.402	
43.00	-64.130	24.305	
44.00	-68.056	60.120	
45.00	-81.365	102.835	
46.00	-76.295	2.389	
47.00	-68.646	-52.499	
48.00	-67.907	-46.828	
49.00	-65.089	-20.986	
50.00	-64.065	-7.234	
51.00	-61.912	-5.080	
52.00	-65.207	6.226	
53.00	-62.917	33.823	
54.00	-67.850	46.034	
55.00	-72.432	76.601	
56.00	-69.272	153.618	
57.00	-64.453	-169.886	
58.00	-62.805	-139.419	
59.00	-60.414	-137.868	
60.00	-59.601	-117.808	
61.00	-62.971	-102.292	
62.00	-68.797	-67.526	
63.00	-80.520	-144.543	
64.00	-72.069	146.547	
65.00	-62.841	135.878	
66.00	-64.530	173.448	
67.00	-61.388	-165.935	
68.00	-61.845	-131.973	
69.00	-62.241	-105.165	
70.00	-62.353	-63.243	
71.00	-64.360	-21.202	
72.00	-64.140	31.857	
73.00	-63.200	76.463	
74.00	-61.407	119.481	
75.00	-59.030	158.997	
76.00	-56.797	-172.258	
77.00	-55.203	-146.268	
78.00	-54.907	-120.688	
79.00	-54.732	-96.314	
80.00	-54.352	-63.511	
81.00	-53.747	-36.122	
82.00	-53.592	-0.121	
83.00	-52.624	29.128	
84.00	-52.480	58.509	
85.00	-52.412	86.091	
86.00	-51.588	112.297	
87.00	-50.849	139.648	
88.00	-50.862	164.499	
89.00	-51.028	-170.647	
90.00	-50.792	-148.068	
91.00	-50.558	-117.812	
92.00	-51.125	-94.425	
93.00	-51.077	-65.644	
94.00	-50.723	-35.330	
95.00	-51.095	-8.558	
96.00	-50.708	17.636	
97.00	-51.225	41.905	
98.00	-51.924	62.733	
99.00	-51.338	87.520	
100.00	-51.661	117.536	
101.00	-52.131	153.099	
102.00	-53.344	-177.377	
103.00	-53.369	-147.240	
104.00	-53.716	-127.751	
105.00	-54.268	-94.694	
106.00	-53.723	-65.658	
107.00	-53.818	-29.659	
108.00	-54.713	-0.602	
109.00	-54.704	23.062	
110.00	-56.422	51.370	
111.00	-56.311	78.247	
112.00	-57.031	118.527	
113.00	-57.969	139.604	
114.00	-57.490	170.958	
115.00	-58.189	-151.752	
116.00	-57.730	-123.156	
117.00	-57.177	-98.046	
118.00	-56.984	-77.511	
119.00	-58.880	-62.451	
120.00	-61.096	-56.820	
121.00	-66.399	-66.055	
122.00	-67.441	-124.528	
123.00	-63.572	-131.203	
124.00	-60.215	-150.161	
125.00	-58.562	-143.926	
126.00	-58.285	-142.356	
127.00	-59.273	-141.206	
128.00	-59.000	-131.427	
129.00	-60.429	-133.645	
130.00	-58.356	-138.003	
131.00	-55.802	-120.236	
132.00	-53.855	-114.335	
133.00	-51.663	-96.965	
134.00	-49.918	-82.835	
135.00	-48.650	-68.469	
136.00	-48.162	-53.053	
137.00	-48.340	-39.037	
138.00	-49.410	-23.766	
139.00	-51.421	-7.778	
140.00	-55.530	4.586	
141.00	-67.398	32.878	
142.00	-58.841	-155.304	
143.00	-51.843	-139.169	
144.00	-48.664	-126.316	
145.00	-46.924	-112.603	
146.00	-46.532	-98.619	
147.00	-46.737	-83.790	
148.00	-47.880	-66.888	
149.00	-49.758	-50.376	
150.00	-53.068	-23.084	
151.00	-56.122	17.592	
152.00	-55.619	76.665	
153.00	-52.500	112.131	
154.00	-49.405	133.316	
155.00	-47.626	146.642	
156.00	-46.807	157.081	
157.00	-46.299	167.439	
158.00	-45.862	177.107	
159.00	-45.906	-170.741	
160.00	-45.701	-159.006	
161.00	-45.610	-148.637	
162.00	-46.016	-140.313	
163.00	-46.956	-133.373	
164.00	-48.785	-130.403	
165.00	-52.414	-138.202	
166.00	-57.541	-177.441	
167.00	-53.393	122.507	
168.00	-48.777	109.191	
169.00	-46.388	106.204	
170.00	-45.458	105.566	
171.00	-46.269	107.669	
172.00	-48.699	111.172	
173.00	-54.238	122.867	
174.00	-60.047	-146.987	
175.00	-52.219	-111.754	
176.00	-47.521	-118.248	
177.00	-45.350	-134.090	
178.00	-42.641	-155.774	
179.00	-39.601	-176.051	
180.00	-36.454	169.630	
181.00	-33.785	159.875	
182.00	-31.846	153.471	
183.00	-30.537	148.949	
184.00	-29.880	145.554	
185.00	-29.836	143.028	
186.00	-30.366	141.070	
187.00	-31.629	140.311	
188.00	-33.575	140.245	
189.00	-36.441	143.469	
190.00	-40.110	152.668	
191.00	-44.223	173.991	
192.00	-46.396	-151.827	
193.00	-46.148	-131.395	
194.00	-47.063	-121.372	
195.00	-49.055	-117.546	
196.00	-54.437	-120.207	
197.00	-73.603	-154.194	
198.00	-60.340	52.660	
199.00	-57.449	53.341	
200.00	-58.712	57.031	
201.00	-66.634	121.847	
202.00	-55.926	177.670	
203.00	-49.927	-174.943	
204.00	-46.669	178.334	
205.00	-45.282	170.918	
206.00	-45.161	162.952	
207.00	-45.957	154.831	
208.00	-48.076	138.044	
209.00	-52.347	122.338	
210.00	-58.211	64.194	
211.00	-56.505	-19.102	
212.00	-53.071	-48.853	
213.00	-50.309	-61.829	
214.00	-50.025	-78.296	
215.00	-49.511	-89.820	
216.00	-50.859	-104.859	
217.00	-52.824	-119.822	
218.00	-57.313	-128.473	
219.00	-60.196	-127.133	
220.00	-64.549	-79.939	
221.00	-60.935	-72.361	
222.00	-61.110	-56.203	
223.00	-55.799	-56.964	
224.00	-53.384	-74.482	
225.00	-52.905	-71.387	
226.00	-51.680	-91.835	
227.00	-52.306	-94.593	
228.00	-50.957	-110.410	
229.00	-51.128	-119.062	
230.00	-51.260	-137.900	
231.00	-51.106	-153.293	
232.00	-51.011	-170.749	
233.00	-51.263	168.656	
234.00	-50.859	152.322	
235.00	-51.290	136.162	
236.00	-51.859	118.605	
237.00	-53.010	103.211	
238.00	-54.021	87.425	
239.00	-55.601	74.461	
240.00	-57.919	64.344	
241.00	-60.033	61.902	
242.00	-60.625	77.917	
243.00	-60.742	90.878	
244.00	-59.046	87.594	
245.00	-57.241	80.984	
246.00	-56.749	70.192	
247.00	-56.950	53.060	
248.00	-56.606	36.098	
249.00	-58.737	11.843	
250.00	-57.740	-15.328	
251.00	-58.552	-44.332	
252.00	-58.854	-61.063	
253.00	-58.797	-87.992	
254.00	-59.603	-111.803	
255.00	-59.471	-141.105	
256.00	-62.171	-162.534	
257.00	-62.935	-169.679	
258.00	-63.287	160.643	
259.00	-64.654	149.566	
260.00	-73.058	128.670	
261.00	-69.025	109.010	
262.00	-76.169	111.006	
263.00	-65.802	119.159	
264.00	-71.541	119.846	
265.00	-68.892	100.477	
266.00	-66.362	91.670	
267.00	-64.679	107.308	
268.00	-64.566	110.346	
269.00	-62.742	67.197	
270.00	-67.339	61.607	
271.00	-63.297	56.717	
272.00	-66.071	52.192	
273.00	-68.915	28.064	
274.00	-71.781	-3.605	
275.00	-70.021	9.168	
276.00	-68.630	-9.297	
277.00	-66.529	-38.621	
278.00	-67.329	-42.807	
279.00	-69.297	-49.390	
280.00	-66.981	-72.400	
281.00	-69.128	-75.688	
282.00	-68.505	-86.761	
283.00	-68.778	-105.636	
284.00	-68.057	-124.134	
285.00	-71.721	-106.864	
286.00	-70.917	-149.012	
287.00	-76.255	-160.539	
288.00	-78.407	-127.729	
289.00	-69.223	159.508	
290.00	-68.653	78.014	
291.00	-80.020	127.317	
292.00	-67.655	-67.651	
293.00	-67.266	-14.591	
294.00	-68.396	-146.320	
295.00	-64.443	-109.635	
296.00	-67.920	-81.812	
297.00	-69.196	-162.929	
298.00	-71.271	-115.370	
299.00	-83.293	-64.012	
300.00	-75.671	122.792	
301.00	-68.628	143.588	
302.00	-71.999	55.192	
303.00	-78.990	42.476	
304.00	-70.781	13.813	
305.00	-71.607	11.976	
306.00	-70.458	0.948	
307.00	-74.423	-53.233	
308.00	-71.401	-94.872	
309.00	-73.537	-100.840	
310.00	-67.512	-129.861	
311.00	-72.021	-152.063	
312.00	-68.616	-150.217	
313.00	-67.875	-148.545	
314.00	-69.358	-156.391	
315.00	-72.057	-155.057	
316.00	-71.494	-155.668	
317.00	-79.099	-129.438	
318.00	-87.993	-101.974	
319.00	-75.412	-139.286	
320.00	-81.114	-132.695	
321.00	-90.217	-163.114	
322.00	-79.186	-25.760	
323.00	-71.142	-22.295	
324.00	-75.154	-8.189	
325.00	-76.601	-42.152	
326.00	-77.669	23.976	
327.00	-75.710	-1.537	
328.00	-78.977	-1.955	
329.00	-79.813	-165.977	
330.00	-89.572	171.526	
331.00	-75.246	90.464	
332.00	-71.410	81.714	
333.00	-76.544	168.358	
334.00	-68.975	81.276	
335.00	-66.311	118.672	
336.00	-70.777	132.761	
337.00	-71.243	141.202	
338.00	-82.119	100.784	
339.00	-74.021	135.484	
340.00	-72.312	129.043	
341.00	-74.459	138.462	
342.00	-72.535	-173.610	
343.00	-71.832	126.262	
344.00	-72.681	51.947	
345.00	-73.736	-70.357	
346.00	-72.963	70.901	
347.00	-72.826	69.775	
348.00	-71.949	73.545	
349.00	-71.224	113.861	
350.00	-62.971	121.379	
351.00	-67.476	98.654	
352.00	-65.135	112.790	
353.00	-68.092	102.333	
354.00	-64.493	121.746	
355.00	-68.709	128.299	
356.00	-65.129	155.486	
357.00	-67.290	163.378	
358.00	-65.240	144.083	
359.00	-67.088	140.376	
Frequency	2700.00	MHz	
Channel	test		
Scan Axis name	Azimuth  [deg]		
Scan Axis	Amplitude	Phase	
			
0.00	-65.814	-84.020	
1.00	-73.470	-82.897	
2.00	-67.658	-150.924	
3.00	-71.484	-134.035	
4.00	-75.681	-147.645	
5.00	-71.346	-133.326	
6.00	-79.484	-156.843	
7.00	-76.544	73.374	
8.00	-76.050	110.610	
9.00	-68.267	44.959	
10.00	-69.767	51.480	
11.00	-67.687	70.033	
12.00	-70.351	72.059	
13.00	-70.444	90.801	
14.00	-76.908	-47.538	
15.00	-86.580	18.216	
16.00	-77.470	-66.238	
17.00	-78.069	-13.759	
18.00	-86.476	-3.304	
19.00	-102.514	19.118	
20.00	-76.700	45.105	
21.00	-68.163	67.661	
22.00	-66.735	98.811	
23.00	-62.817	107.691	
24.00	-61.255	148.739	
25.00	-61.179	147.813	
26.00	-62.826	-178.312	
27.00	-62.198	-161.868	
28.00	-62.762	-150.980	
29.00	-66.713	-99.066	
30.00	-74.666	-11.729	
31.00	-68.850	7.566	
32.00	-67.337	12.820	
33.00	-68.432	28.547	
34.00	-65.114	50.755	
35.00	-69.570	72.521	
36.00	-68.137	96.717	
37.00	-76.401	154.064	
38.00	-78.315	9.295	
39.00	-70.193	-39.173	
40.00	-69.742	11.745	
41.00	-63.817	61.502	
42.00	-62.013	97.666	
43.00	-62.369	124.989	
44.00	-60.589	149.968	
45.00	-59.852	167.839	
46.00	-61.700	-163.890	
47.00	-64.108	-129.273	
48.00	-69.178	-149.067	
49.00	-91.124	41.197	
50.00	-72.097	86.423	
51.00	-67.865	97.300	
52.00	-68.317	107.978	
53.00	-66.989	115.817	
54.00	-65.727	139.232	
55.00	-65.413	158.942	
56.00	-65.334	-169.124	
57.00	-66.659	-153.525	
58.00	-66.420	-112.479	
59.00	-65.759	-75.944	
60.00	-63.429	-42.056	
61.00	-63.857	-1.124	
62.00	-63.901	24.708	
63.00	-63.136	55.043	
64.00	-65.284	110.027	
65.00	-65.749	143.208	
66.00	-68.174	177.790	
67.00	-72.299	-118.497	
68.00	-71.879	-32.812	
69.00	-62.633	19.993	
70.00	-59.033	46.119	
71.00	-57.612	76.271	
72.00	-56.889	103.354	
73.00	-56.366	129.180	
74.00	-56.105	162.289	
75.00	-56.436	-162.521	
76.00	-55.804	-125.013	
77.00	-54.602	-91.068	
78.00	-53.759	-62.281	
79.00	-53.263	-31.992	
80.00	-52.867	-3.394	
81.00	-53.024	26.012	
82.00	-51.483	57.943	
83.00	-51.985	87.124	
84.00	-52.209	115.231	
85.00	-51.943	147.786	
86.00	-51.832	-179.461	
87.00	-51.011	-150.254	
88.00	-50.617	-125.884	
89.00	-51.167	-98.136	
90.00	-50.856	-70.134	
91.00	-49.860	-44.596	
92.00	-50.098	-11.626	
93.00	-49.159	16.786	
94.00	-49.615	44.582	
95.00	-48.881	66.308	
96.00	-48.604	94.857	
97.00	-48.542	119.524	
98.00	-48.320	145.416	
99.00	-48.410	170.270	
100.00	-48.544	-163.274	
101.00	-48.615	-125.569	
102.00	-48.415	-100.706	
103.00	-48.516	-70.787	
104.00	-48.615	-48.797	
105.00	-48.668	-20.093	
106.00	-48.956	4.848	
107.00	-49.043	31.820	
108.00	-49.093	53.888	
109.00	-49.535	77.959	
110.00	-49.955	102.929	
111.00	-50.575	126.001	
112.00	-51.507	149.373	
113.00	-53.634	176.456	
114.00	-55.788	-153.621	
115.00	-57.715	-99.244	
116.00	-56.980	-57.177	
117.00	-55.168	-29.398	
118.00	-53.134	-6.143	
119.00	-53.822	10.642	
120.00	-54.145	27.867	
121.00	-56.893	36.172	
122.00	-60.690	46.430	
123.00	-70.476	62.814	
124.00	-73.946	-158.578	
125.00	-67.247	-142.396	
126.00	-66.003	-127.775	
127.00	-65.293	-149.457	
128.00	-64.963	-157.671	
129.00	-62.601	-157.973	
130.00	-61.785	-136.007	
131.00	-60.509	-100.065	
132.00	-58.739	-65.417	
133.00	-55.376	-33.514	
134.00	-51.774	-6.862	
135.00	-49.637	9.287	
136.00	-47.883	28.656	
137.00	-47.142	43.604	
138.00	-47.178	61.152	
139.00	-47.805	73.216	
140.00	-49.242	90.578	
141.00	-52.196	104.411	
142.00	-58.920	149.414	
143.00	-60.231	-100.892	
144.00	-53.168	-64.868	
145.00	-50.366	-48.885	
146.00	-48.583	-32.754	
147.00	-47.885	-15.276	
148.00	-48.404	-4.145	
149.00	-48.950	8.549	
150.00	-50.314	23.084	
151.00	-52.754	30.567	
152.00	-59.061	41.230	
153.00	-78.836	96.555	
154.00	-61.658	-149.971	
155.00	-55.810	-139.445	
156.00	-53.032	-133.790	
157.00	-51.465	-128.168	
158.00	-50.953	-119.480	
159.00	-50.775	-111.453	
160.00	-50.813	-99.306	
161.00	-51.407	-80.880	
162.00	-51.752	-61.770	
163.00	-51.821	-45.520	
164.00	-52.748	-34.083	
165.00	-55.246	-24.458	
166.00	-60.348	-22.423	
167.00	-73.326	163.560	
168.00	-56.171	167.988	
169.00	-51.265	171.883	
170.00	-49.179	171.825	
171.00	-48.323	176.254	
172.00	-49.066	174.163	
173.00	-51.585	177.184	
174.00	-56.637	168.898	
175.00	-74.233	-115.735	
176.00	-56.119	-41.575	
177.00	-50.586	-53.663	
178.00	-46.806	-71.824	
179.00	-43.590	-89.760	
180.00	-40.774	-103.388	
181.00	-38.350	-114.918	
182.00	-36.451	-123.489	
183.00	-35.216	-130.607	
184.00	-34.589	-136.040	
185.00	-34.602	-140.892	
186.00	-35.260	-144.852	
187.00	-36.717	-149.027	
188.00	-39.189	-151.835	
189.00	-42.624	-152.352	
190.00	-48.091	-145.878	
191.00	-53.994	-106.357	
192.00	-52.762	-56.729	
193.00	-51.514	-51.373	
194.00	-52.081	-52.856	
195.00	-54.312	-69.662	
196.00	-56.677	-91.514	
197.00	-60.382	-145.493	
198.00	-62.183	-176.709	
199.00	-66.428	173.789	
200.00	-75.292	-128.565	
201.00	-58.608	-72.090	
202.00	-51.999	-71.391	
203.00	-48.463	-88.096	
204.00	-46.428	-95.911	
205.00	-45.654	-107.520	
206.00	-45.837	-117.842	
207.00	-47.822	-128.049	
208.00	-51.378	-142.933	
209.00	-60.106	-171.374	
210.00	-60.442	58.445	
211.00	-51.499	23.863	
212.00	-49.343	11.643	
213.00	-48.278	0.301	
214.00	-48.363	-7.658	
215.00	-50.223	-21.126	
216.00	-53.492	-28.990	
217.00	-58.853	-47.712	
218.00	-83.757	108.613	
219.00	-60.407	110.636	
220.00	-55.636	94.331	
221.00	-53.641	75.963	
222.00	-53.711	62.690	
223.00	-54.109	44.243	
224.00	-54.369	23.973	
225.00	-54.087	2.930	
226.00	-54.071	-17.591	
227.00	-53.504	-37.890	
228.00	-52.963	-55.855	
229.00	-52.540	-71.164	
230.00	-52.188	-88.046	
231.00	-51.939	-101.685	
232.00	-51.227	-119.379	
233.00	-51.242	-138.233	
234.00	-51.520	-152.768	
235.00	-52.867	-167.378	
236.00	-54.280	169.469	
237.00	-55.422	163.006	
238.00	-57.727	147.258	
239.00	-62.416	140.752	
240.00	-66.717	179.056	
241.00	-64.926	-145.208	
242.00	-62.153	-165.566	
243.00	-61.941	-168.579	
244.00	-59.668	166.670	
245.00	-57.310	152.032	
246.00	-55.957	129.954	
247.00	-54.931	112.762	
248.00	-56.050	92.450	
249.00	-57.015	72.501	
250.00	-57.526	50.906	
251.00	-58.447	32.163	
252.00	-60.248	5.275	
253.00	-61.679	-18.096	
254.00	-63.478	-49.535	
255.00	-65.602	-74.189	
256.00	-67.759	-105.533	
257.00	-75.013	-121.279	
258.00	-74.122	178.069	
259.00	-79.030	116.918	
260.00	-83.811	77.053	
261.00	-75.507	2.495	
262.00	-73.883	-74.796	
263.00	-70.841	-87.352	
264.00	-67.915	-101.421	
265.00	-67.177	-136.413	
266.00	-67.246	-173.204	
267.00	-66.757	164.855	
268.00	-66.779	134.752	
269.00	-66.157	109.879	
270.00	-65.038	93.684	
271.00	-65.174	72.505	
272.00	-65.844	56.035	
273.00	-66.605	31.984	
274.00	-67.944	24.691	
275.00	-69.925	-2.854	
276.00	-71.501	-19.742	
277.00	-74.749	-8.219	
278.00	-76.318	-64.691	
279.00	-82.003	5.632	
280.00	-74.383	-10.619	
281.00	-71.813	11.212	
282.00	-68.384	-9.425	
283.00	-66.032	-17.524	
284.00	-67.825	-44.453	
285.00	-70.659	-74.042	
286.00	-69.383	-72.123	
287.00	-70.367	-113.681	
288.00	-67.685	-129.166	
289.00	-70.249	-155.532	
290.00	-73.126	159.123	
291.00	-77.948	170.540	
292.00	-82.658	116.740	
293.00	-87.982	-69.676	
294.00	-75.971	7.880	
295.00	-76.430	28.103	
296.00	-76.140	4.483	
297.00	-71.279	-13.424	
298.00	-78.939	-39.338	
299.00	-70.485	-29.878	
300.00	-72.121	-25.377	
301.00	-69.274	-83.584	
302.00	-67.499	-94.032	
303.00	-66.107	-97.576	
304.00	-68.487	-113.990	
305.00	-66.990	-136.361	
306.00	-72.421	-166.000	
307.00	-73.889	-178.238	
308.00	-78.540	159.735	
309.00	-89.139	66.947	
310.00	-74.984	-21.841	
311.00	-73.176	-56.575	
312.00	-70.295	-72.632	
313.00	-69.166	-68.192	
314.00	-68.748	-84.249	
315.00	-71.540	-90.806	
316.00	-67.615	-65.223	
317.00	-67.054	-69.707	
318.00	-66.071	-68.988	
319.00	-66.592	-64.928	
320.00	-65.262	-66.573	
321.00	-63.643	-92.468	
322.00	-64.518	-98.933	
323.00	-63.869	-112.550	
324.00	-64.440	-144.801	
325.00	-68.707	-152.929	
326.00	-68.805	160.936	
327.00	-70.374	142.184	
328.00	-69.616	136.069	
329.00	-77.750	103.433	
330.00	-77.149	-136.796	
331.00	-70.549	-140.745	
332.00	-67.406	-147.446	
333.00	-65.339	-154.168	
334.00	-65.325	-168.162	
335.00	-64.511	169.465	
336.00	-66.397	158.233	
337.00	-64.955	160.234	
338.00	-72.706	141.949	
339.00	-80.170	125.936	
340.00	-84.631	-125.660	
341.00	-74.629	-76.563	
342.00	-79.969	50.481	
343.00	-74.137	74.614	
344.00	-69.136	73.224	
345.00	-68.145	74.218	
346.00	-66.151	79.894	
347.00	-65.687	62.744	
348.00	-64.511	78.450	
349.00	-65.426	87.866	
350.00	-66.760	107.366	
351.00	-66.845	138.087	
352.00	-65.376	159.896	
353.00	-67.562	165.914	
354.00	-63.710	-172.667	
355.00	-64.037	-178.236	
356.00	-64.800	-147.795	
357.00	-67.292	-165.123	
358.00	-66.727	-108.356	
359.00	-62.838	-129.408	
