Test Title:	Alpha Wireless Indoor Range						
Date:	03/11/2017						
Time:	09:34						
Operator Name:	FL						
Comment:	Version 2 Run 2
Cable length changed						
Caib. File Name:	C:\Program Files\Midas 2.01d\Calibration Files\test sigma 180900.cal						
							
[Scan Axis] Name: 	Azimuth  [deg]Start: 	0.000000	Stop	359.000000	Increment	1.000000[Step Axis] Name: 	Start: 	0.000000	Stop	0.000000	Increment	0.000000[Tert] Name: 	None [Forth] Name: 	None  [ Freq.]  (List) 	MHz.	1694.000000	1710.000000	1800.000000	1850.000000	1950.000000	2050.000000	2170.000000	2300.000000	2350.000000	2400.000000	2450.000000	2496.000000	2550.000000	2600.000000	2650.000000	2700.000000
 [Switch]  	None [Channel]  	test			 [ Beam] 	None			
Database:			
First Question			
2nd			
3rd			
4th			
			
Frequency	1694.00	MHz	
Channel	test		
Scan Axis name	Azimuth  [deg]		
Scan Axis	Amplitude	Phase	
			
0.00	-60.802	-126.336	
1.00	-60.523	-125.513	
2.00	-61.430	-112.570	
3.00	-62.207	-107.935	
4.00	-62.153	-102.625	
5.00	-63.719	-76.179	
6.00	-61.920	-60.055	
7.00	-60.971	-59.140	
8.00	-61.120	-48.070	
9.00	-59.433	-28.447	
10.00	-58.007	-17.571	
11.00	-57.811	-15.525	
12.00	-56.754	-0.207	
13.00	-54.906	6.860	
14.00	-54.581	12.143	
15.00	-53.555	14.480	
16.00	-53.496	25.243	
17.00	-52.971	24.714	
18.00	-51.982	34.501	
19.00	-52.384	38.881	
20.00	-51.336	51.530	
21.00	-51.783	51.267	
22.00	-51.086	64.970	
23.00	-51.086	69.656	
24.00	-50.852	79.652	
25.00	-50.486	88.003	
26.00	-50.526	98.518	
27.00	-50.451	104.472	
28.00	-50.572	113.421	
29.00	-50.969	122.889	
30.00	-51.113	136.302	
31.00	-51.588	147.053	
32.00	-52.058	160.249	
33.00	-52.452	174.739	
34.00	-52.065	-169.695	
35.00	-51.341	-149.428	
36.00	-50.858	-138.787	
37.00	-50.147	-126.467	
38.00	-49.272	-115.169	
39.00	-48.552	-105.778	
40.00	-47.694	-95.108	
41.00	-47.551	-85.711	
42.00	-47.185	-79.403	
43.00	-46.882	-69.422	
44.00	-46.929	-62.245	
45.00	-46.599	-53.186	
46.00	-47.113	-43.716	
47.00	-47.982	-34.417	
48.00	-48.233	-22.288	
49.00	-48.980	-10.714	
50.00	-49.928	1.791	
51.00	-50.587	16.978	
52.00	-51.292	31.282	
53.00	-51.076	57.319	
54.00	-51.508	71.229	
55.00	-52.051	87.609	
56.00	-51.327	106.342	
57.00	-51.257	121.185	
58.00	-51.303	135.396	
59.00	-51.693	149.415	
60.00	-51.670	166.498	
61.00	-51.995	177.295	
62.00	-52.347	-158.566	
63.00	-52.399	-138.705	
64.00	-52.258	-121.845	
65.00	-51.810	-104.043	
66.00	-50.802	-84.124	
67.00	-51.110	-71.658	
68.00	-49.609	-57.381	
69.00	-49.194	-46.985	
70.00	-48.835	-39.304	
71.00	-48.874	-24.764	
72.00	-49.168	-12.909	
73.00	-49.287	-4.122	
74.00	-49.821	7.320	
75.00	-49.802	24.212	
76.00	-51.032	33.365	
77.00	-51.841	49.799	
78.00	-52.184	67.149	
79.00	-52.553	93.755	
80.00	-52.396	112.696	
81.00	-52.245	140.520	
82.00	-51.548	154.063	
83.00	-52.370	176.150	
84.00	-50.359	-177.221	
85.00	-49.884	-156.834	
86.00	-48.943	-148.140	
87.00	-48.878	-131.672	
88.00	-48.348	-123.986	
89.00	-48.229	-107.754	
90.00	-47.928	-96.610	
91.00	-47.773	-83.669	
92.00	-47.341	-65.626	
93.00	-47.527	-53.922	
94.00	-47.399	-38.493	
95.00	-47.164	-29.806	
96.00	-47.814	-18.315	
97.00	-47.260	-2.027	
98.00	-47.117	15.865	
99.00	-46.645	32.181	
100.00	-46.459	42.602	
101.00	-46.516	59.785	
102.00	-46.448	72.576	
103.00	-46.257	87.346	
104.00	-45.668	98.897	
105.00	-45.569	113.915	
106.00	-45.337	120.902	
107.00	-44.924	137.080	
108.00	-45.062	148.264	
109.00	-44.702	161.770	
110.00	-44.689	176.087	
111.00	-44.439	-173.078	
112.00	-44.532	-160.003	
113.00	-44.381	-146.166	
114.00	-44.172	-137.512	
115.00	-43.878	-122.458	
116.00	-43.697	-112.006	
117.00	-43.722	-97.317	
118.00	-43.496	-87.544	
119.00	-43.312	-75.876	
120.00	-42.934	-67.571	
121.00	-42.490	-58.339	
122.00	-42.816	-47.395	
123.00	-42.617	-32.737	
124.00	-42.507	-27.030	
125.00	-42.649	-10.489	
126.00	-42.599	-5.855	
127.00	-42.648	8.043	
128.00	-42.755	18.588	
129.00	-42.746	28.651	
130.00	-43.094	36.949	
131.00	-42.999	49.359	
132.00	-43.073	58.075	
133.00	-43.383	70.089	
134.00	-43.664	75.098	
135.00	-44.063	85.266	
136.00	-44.307	94.292	
137.00	-44.633	103.587	
138.00	-45.207	112.570	
139.00	-45.598	120.575	
140.00	-46.060	128.637	
141.00	-46.742	139.855	
142.00	-47.015	146.773	
143.00	-47.728	159.767	
144.00	-48.248	162.166	
145.00	-49.462	177.685	
146.00	-49.670	-176.559	
147.00	-50.774	-165.514	
148.00	-51.642	-164.040	
149.00	-53.326	-152.654	
150.00	-55.100	-156.060	
151.00	-57.874	-150.222	
152.00	-62.479	-159.911	
153.00	-65.274	177.549	
154.00	-66.892	103.801	
155.00	-58.967	81.166	
156.00	-55.434	84.687	
157.00	-52.458	85.432	
158.00	-49.921	85.002	
159.00	-48.525	84.454	
160.00	-47.102	90.015	
161.00	-45.884	87.842	
162.00	-44.995	91.544	
163.00	-44.065	91.003	
164.00	-43.348	96.141	
165.00	-42.852	95.944	
166.00	-42.336	99.431	
167.00	-41.826	100.027	
168.00	-41.405	102.075	
169.00	-41.115	104.121	
170.00	-40.856	101.615	
171.00	-40.595	102.121	
172.00	-40.460	98.285	
173.00	-40.180	103.910	
174.00	-40.053	99.909	
175.00	-39.897	101.820	
176.00	-39.809	96.648	
177.00	-39.637	97.182	
178.00	-39.551	92.554	
179.00	-39.325	93.242	
180.00	-39.268	87.407	
181.00	-39.077	86.760	
182.00	-38.927	83.252	
183.00	-38.735	79.512	
184.00	-38.485	76.114	
185.00	-38.304	68.909	
186.00	-38.113	66.221	
187.00	-37.881	60.171	
188.00	-37.763	56.848	
189.00	-37.442	49.789	
190.00	-37.237	48.108	
191.00	-36.978	39.233	
192.00	-36.721	36.455	
193.00	-36.510	30.366	
194.00	-36.265	25.455	
195.00	-36.061	18.028	
196.00	-35.845	14.686	
197.00	-35.629	7.127	
198.00	-35.407	3.080	
199.00	-35.241	-4.348	
200.00	-35.085	-10.509	
201.00	-34.887	-15.736	
202.00	-34.781	-24.598	
203.00	-34.610	-29.817	
204.00	-34.543	-38.681	
205.00	-34.523	-43.334	
206.00	-34.442	-51.768	
207.00	-34.410	-58.702	
208.00	-34.419	-63.882	
209.00	-34.457	-75.002	
210.00	-34.479	-79.939	
211.00	-34.503	-87.576	
212.00	-34.569	-97.418	
213.00	-34.682	-106.773	
214.00	-34.824	-115.511	
215.00	-34.955	-123.735	
216.00	-35.119	-133.132	
217.00	-35.297	-141.921	
218.00	-35.474	-153.081	
219.00	-35.667	-162.437	
220.00	-35.949	-169.547	
221.00	-36.143	179.176	
222.00	-36.423	170.227	
223.00	-36.614	158.545	
224.00	-36.883	147.961	
225.00	-37.043	138.584	
226.00	-37.311	125.211	
227.00	-37.481	114.943	
228.00	-37.820	103.464	
229.00	-38.047	93.559	
230.00	-38.275	82.014	
231.00	-38.583	70.954	
232.00	-38.885	58.158	
233.00	-39.242	49.306	
234.00	-39.619	36.388	
235.00	-39.989	25.318	
236.00	-40.493	12.093	
237.00	-40.921	0.632	
238.00	-41.474	-10.562	
239.00	-42.031	-20.551	
240.00	-42.597	-36.650	
241.00	-43.203	-48.111	
242.00	-43.788	-58.364	
243.00	-44.588	-77.022	
244.00	-45.424	-84.036	
245.00	-46.043	-103.581	
246.00	-46.441	-113.766	
247.00	-47.729	-130.678	
248.00	-48.427	-141.449	
249.00	-49.377	-163.308	
250.00	-50.272	-174.558	
251.00	-50.625	167.241	
252.00	-51.149	154.858	
253.00	-52.356	140.952	
254.00	-51.538	118.688	
255.00	-52.716	111.327	
256.00	-52.923	102.076	
257.00	-54.290	89.943	
258.00	-54.928	79.275	
259.00	-56.919	66.590	
260.00	-58.031	59.782	
261.00	-59.495	48.890	
262.00	-61.499	44.951	
263.00	-65.444	45.696	
264.00	-71.388	39.171	
265.00	-77.425	55.742	
266.00	-78.520	124.440	
267.00	-71.440	132.295	
268.00	-67.885	123.230	
269.00	-66.595	109.713	
270.00	-64.617	107.992	
271.00	-62.665	86.661	
272.00	-61.151	85.594	
273.00	-61.377	72.623	
274.00	-61.426	58.365	
275.00	-62.259	48.022	
276.00	-61.676	34.973	
277.00	-60.965	11.870	
278.00	-61.342	0.179	
279.00	-58.978	-21.293	
280.00	-59.655	-36.350	
281.00	-59.291	-45.296	
282.00	-57.830	-50.983	
283.00	-58.143	-73.240	
284.00	-57.491	-82.684	
285.00	-56.966	-96.337	
286.00	-56.608	-108.781	
287.00	-56.220	-113.828	
288.00	-56.452	-125.114	
289.00	-56.666	-135.683	
290.00	-56.764	-146.140	
291.00	-57.186	-153.529	
292.00	-58.770	-169.616	
293.00	-58.696	-179.262	
294.00	-59.723	168.679	
295.00	-60.108	154.808	
296.00	-59.717	137.375	
297.00	-59.696	122.704	
298.00	-60.316	98.188	
299.00	-59.672	86.202	
300.00	-60.439	69.623	
301.00	-58.548	60.162	
302.00	-58.750	41.418	
303.00	-58.165	30.773	
304.00	-57.535	16.874	
305.00	-57.242	16.049	
306.00	-56.866	5.704	
307.00	-57.248	-5.417	
308.00	-57.007	-14.548	
309.00	-56.561	-12.037	
310.00	-57.743	-20.633	
311.00	-57.940	-22.332	
312.00	-58.847	-31.545	
313.00	-62.264	-37.603	
314.00	-62.661	-37.886	
315.00	-66.948	-39.143	
316.00	-72.660	-43.369	
317.00	-75.707	128.608	
318.00	-69.945	88.310	
319.00	-63.851	117.332	
320.00	-61.059	112.440	
321.00	-58.952	106.170	
322.00	-57.586	104.419	
323.00	-55.601	102.122	
324.00	-55.252	100.936	
325.00	-54.578	95.802	
326.00	-54.506	89.416	
327.00	-54.190	86.169	
328.00	-53.562	79.271	
329.00	-53.887	73.063	
330.00	-53.535	69.286	
331.00	-54.018	62.969	
332.00	-53.832	53.968	
333.00	-53.869	47.920	
334.00	-54.082	41.149	
335.00	-54.052	35.212	
336.00	-53.944	29.805	
337.00	-53.975	25.385	
338.00	-54.226	16.954	
339.00	-53.943	7.699	
340.00	-54.385	0.884	
341.00	-54.150	-2.906	
342.00	-54.040	-11.572	
343.00	-55.006	-16.681	
344.00	-55.786	-23.148	
345.00	-55.872	-31.040	
346.00	-56.568	-35.174	
347.00	-56.848	-44.607	
348.00	-58.067	-49.425	
349.00	-58.622	-67.995	
350.00	-59.571	-66.855	
351.00	-59.566	-76.341	
352.00	-59.447	-84.831	
353.00	-59.333	-99.009	
354.00	-61.125	-95.731	
355.00	-60.637	-108.394	
356.00	-60.992	-119.703	
357.00	-61.320	-116.844	
358.00	-60.332	-111.307	
359.00	-61.843	-112.413	
Frequency	1710.00	MHz	
Channel	test		
Scan Axis name	Azimuth  [deg]		
Scan Axis	Amplitude	Phase	
			
0.00	-59.832	-128.279	
1.00	-59.892	-129.743	
2.00	-60.129	-130.840	
3.00	-59.231	-92.645	
4.00	-59.086	-97.330	
5.00	-57.412	-91.993	
6.00	-56.855	-79.552	
7.00	-55.088	-71.785	
8.00	-55.701	-67.464	
9.00	-55.894	-58.221	
10.00	-56.024	-46.112	
11.00	-54.981	-36.487	
12.00	-54.055	-23.492	
13.00	-54.097	-18.918	
14.00	-53.326	-4.801	
15.00	-53.218	3.512	
16.00	-52.226	17.846	
17.00	-51.435	19.861	
18.00	-49.633	37.329	
19.00	-49.547	35.584	
20.00	-48.158	46.957	
21.00	-48.069	47.319	
22.00	-46.779	56.510	
23.00	-46.945	61.711	
24.00	-46.193	67.143	
25.00	-46.013	72.880	
26.00	-45.925	78.172	
27.00	-45.959	83.301	
28.00	-46.433	89.046	
29.00	-46.880	98.410	
30.00	-47.367	107.331	
31.00	-48.218	118.161	
32.00	-48.589	128.542	
33.00	-49.212	141.736	
34.00	-49.476	159.473	
35.00	-49.556	177.179	
36.00	-49.350	-172.523	
37.00	-49.252	-158.770	
38.00	-48.756	-146.523	
39.00	-48.827	-132.590	
40.00	-48.087	-120.995	
41.00	-48.002	-108.705	
42.00	-47.741	-101.949	
43.00	-47.709	-87.879	
44.00	-47.840	-77.577	
45.00	-47.954	-64.236	
46.00	-48.001	-54.614	
47.00	-48.328	-42.886	
48.00	-48.754	-27.593	
49.00	-48.974	-16.106	
50.00	-49.455	-5.750	
51.00	-50.116	13.864	
52.00	-50.381	28.130	
53.00	-50.862	47.337	
54.00	-51.678	62.531	
55.00	-51.524	84.783	
56.00	-51.126	100.059	
57.00	-51.202	118.863	
58.00	-50.663	140.900	
59.00	-50.142	149.868	
60.00	-49.595	164.285	
61.00	-50.116	175.306	
62.00	-49.761	-167.770	
63.00	-50.130	-160.902	
64.00	-50.450	-145.522	
65.00	-51.127	-131.098	
66.00	-51.245	-112.928	
67.00	-53.031	-98.488	
68.00	-51.623	-74.771	
69.00	-52.112	-56.088	
70.00	-52.426	-37.199	
71.00	-53.771	-24.969	
72.00	-53.145	-1.626	
73.00	-52.516	11.961	
74.00	-51.522	34.774	
75.00	-52.168	45.829	
76.00	-50.829	65.174	
77.00	-51.161	79.584	
78.00	-50.479	96.721	
79.00	-50.157	111.509	
80.00	-50.179	125.208	
81.00	-49.718	143.344	
82.00	-48.427	151.476	
83.00	-48.496	165.989	
84.00	-48.258	176.126	
85.00	-47.276	-163.311	
86.00	-47.833	-163.094	
87.00	-47.338	-146.403	
88.00	-47.837	-138.796	
89.00	-48.606	-127.166	
90.00	-48.649	-114.029	
91.00	-47.978	-106.071	
92.00	-48.414	-82.993	
93.00	-49.158	-70.192	
94.00	-49.438	-55.661	
95.00	-48.926	-41.321	
96.00	-48.825	-27.316	
97.00	-47.731	-14.176	
98.00	-47.309	1.664	
99.00	-47.324	12.359	
100.00	-46.921	25.690	
101.00	-46.970	38.946	
102.00	-46.532	47.864	
103.00	-46.024	61.147	
104.00	-46.193	69.364	
105.00	-45.599	80.889	
106.00	-45.317	89.133	
107.00	-44.925	103.555	
108.00	-44.633	113.446	
109.00	-44.509	124.094	
110.00	-43.909	140.255	
111.00	-43.881	145.951	
112.00	-43.562	155.577	
113.00	-43.426	169.855	
114.00	-43.026	177.967	
115.00	-42.737	-170.043	
116.00	-42.787	-163.497	
117.00	-42.987	-151.494	
118.00	-43.060	-141.604	
119.00	-43.091	-128.664	
120.00	-42.978	-120.402	
121.00	-43.226	-108.642	
122.00	-43.048	-99.150	
123.00	-43.132	-80.788	
124.00	-43.074	-76.290	
125.00	-43.173	-58.706	
126.00	-42.976	-51.751	
127.00	-42.865	-36.155	
128.00	-42.907	-24.967	
129.00	-43.243	-14.726	
130.00	-42.778	-5.187	
131.00	-43.070	11.126	
132.00	-42.970	18.135	
133.00	-42.974	30.949	
134.00	-43.154	37.675	
135.00	-43.382	43.467	
136.00	-43.504	54.662	
137.00	-43.846	63.460	
138.00	-43.370	74.087	
139.00	-44.001	78.277	
140.00	-44.514	85.899	
141.00	-44.450	94.441	
142.00	-45.739	99.835	
143.00	-45.922	108.174	
144.00	-46.949	108.250	
145.00	-47.828	119.910	
146.00	-49.013	124.144	
147.00	-50.046	132.185	
148.00	-51.474	126.894	
149.00	-53.103	129.089	
150.00	-54.181	121.322	
151.00	-56.256	114.075	
152.00	-57.216	99.668	
153.00	-57.874	79.892	
154.00	-55.078	64.846	
155.00	-51.734	70.466	
156.00	-51.561	61.193	
157.00	-49.380	62.190	
158.00	-48.384	61.868	
159.00	-47.073	65.606	
160.00	-46.298	70.296	
161.00	-45.451	67.605	
162.00	-44.226	71.784	
163.00	-43.557	71.624	
164.00	-42.799	77.507	
165.00	-42.242	78.572	
166.00	-41.585	81.427	
167.00	-41.188	81.843	
168.00	-40.725	83.230	
169.00	-40.349	86.915	
170.00	-40.063	84.034	
171.00	-39.679	86.364	
172.00	-39.561	81.649	
173.00	-39.211	87.005	
174.00	-39.143	82.293	
175.00	-38.948	85.644	
176.00	-38.880	79.806	
177.00	-38.787	80.216	
178.00	-38.603	76.132	
179.00	-38.694	76.804	
180.00	-38.710	71.240	
181.00	-38.517	68.551	
182.00	-38.629	65.334	
183.00	-38.514	61.589	
184.00	-38.493	57.145	
185.00	-38.500	49.639	
186.00	-38.463	46.059	
187.00	-38.359	39.663	
188.00	-38.130	35.650	
189.00	-38.090	27.044	
190.00	-37.786	24.142	
191.00	-37.540	13.554	
192.00	-37.336	10.349	
193.00	-37.064	3.080	
194.00	-36.766	-2.573	
195.00	-36.378	-11.705	
196.00	-36.196	-15.027	
197.00	-35.839	-23.148	
198.00	-35.575	-28.274	
199.00	-35.208	-35.420	
200.00	-34.856	-43.083	
201.00	-34.703	-48.145	
202.00	-34.375	-57.987	
203.00	-34.158	-61.783	
204.00	-33.956	-72.198	
205.00	-33.749	-76.270	
206.00	-33.532	-84.490	
207.00	-33.465	-91.628	
208.00	-33.280	-96.284	
209.00	-33.124	-107.077	
210.00	-33.143	-111.476	
211.00	-33.032	-118.772	
212.00	-32.992	-127.643	
213.00	-33.045	-136.003	
214.00	-33.026	-143.981	
215.00	-33.154	-151.380	
216.00	-33.220	-159.578	
217.00	-33.377	-167.805	
218.00	-33.506	-178.106	
219.00	-33.793	173.208	
220.00	-33.940	165.985	
221.00	-34.199	156.227	
222.00	-34.504	147.548	
223.00	-34.882	136.507	
224.00	-35.149	126.293	
225.00	-35.395	117.652	
226.00	-35.769	103.921	
227.00	-36.004	93.227	
228.00	-36.354	81.083	
229.00	-36.533	70.532	
230.00	-36.832	58.653	
231.00	-37.117	46.281	
232.00	-37.341	33.765	
233.00	-37.551	24.548	
234.00	-37.839	10.965	
235.00	-38.091	-0.465	
236.00	-38.266	-13.230	
237.00	-38.576	-25.553	
238.00	-38.854	-36.196	
239.00	-39.493	-46.525	
240.00	-39.815	-61.064	
241.00	-40.009	-73.753	
242.00	-40.573	-85.199	
243.00	-41.001	-100.345	
244.00	-41.410	-108.846	
245.00	-42.138	-125.612	
246.00	-42.537	-133.536	
247.00	-43.313	-150.275	
248.00	-43.903	-162.139	
249.00	-44.250	178.213	
250.00	-45.425	170.895	
251.00	-45.958	149.950	
252.00	-46.282	142.859	
253.00	-47.131	117.891	
254.00	-47.513	101.762	
255.00	-47.067	90.638	
256.00	-47.889	73.304	
257.00	-47.047	54.995	
258.00	-47.843	47.350	
259.00	-47.815	29.092	
260.00	-48.781	19.486	
261.00	-48.546	8.371	
262.00	-49.397	-3.391	
263.00	-49.489	-18.016	
264.00	-50.092	-26.971	
265.00	-50.889	-40.926	
266.00	-51.709	-51.539	
267.00	-51.895	-69.425	
268.00	-53.216	-77.275	
269.00	-54.292	-91.558	
270.00	-55.274	-103.548	
271.00	-56.175	-127.789	
272.00	-57.602	-143.351	
273.00	-57.926	-168.785	
274.00	-59.043	175.416	
275.00	-58.374	155.818	
276.00	-59.090	131.974	
277.00	-57.667	115.602	
278.00	-57.090	102.614	
279.00	-57.454	92.829	
280.00	-57.082	81.742	
281.00	-57.073	67.602	
282.00	-58.004	54.874	
283.00	-59.873	44.845	
284.00	-60.431	21.751	
285.00	-63.176	3.951	
286.00	-61.816	-58.745	
287.00	-60.900	-88.075	
288.00	-57.584	-108.551	
289.00	-57.298	-117.905	
290.00	-54.293	-127.770	
291.00	-53.144	-144.163	
292.00	-53.004	-143.876	
293.00	-52.271	-156.525	
294.00	-51.006	-162.725	
295.00	-51.563	-173.553	
296.00	-51.374	179.448	
297.00	-50.824	172.096	
298.00	-51.802	168.749	
299.00	-52.537	157.596	
300.00	-52.950	151.234	
301.00	-53.134	134.985	
302.00	-55.146	124.591	
303.00	-55.815	112.326	
304.00	-57.569	92.040	
305.00	-58.270	78.965	
306.00	-60.042	50.897	
307.00	-61.366	44.149	
308.00	-60.699	9.771	
309.00	-60.393	-19.388	
310.00	-59.376	-34.648	
311.00	-62.061	-47.694	
312.00	-61.057	-57.818	
313.00	-59.501	-76.215	
314.00	-59.475	-89.891	
315.00	-59.363	-96.527	
316.00	-59.032	-111.359	
317.00	-57.734	-118.285	
318.00	-57.697	-130.451	
319.00	-57.635	-142.064	
320.00	-58.576	-154.256	
321.00	-59.504	-167.238	
322.00	-59.737	176.671	
323.00	-60.477	176.126	
324.00	-62.608	155.939	
325.00	-63.460	145.914	
326.00	-63.431	129.696	
327.00	-64.514	115.574	
328.00	-63.554	81.235	
329.00	-68.232	71.118	
330.00	-64.979	37.505	
331.00	-63.718	23.275	
332.00	-62.000	27.911	
333.00	-61.983	12.486	
334.00	-60.095	3.638	
335.00	-61.403	-0.710	
336.00	-61.505	-15.138	
337.00	-61.879	-10.476	
338.00	-63.057	-17.434	
339.00	-64.608	-53.632	
340.00	-64.888	-39.250	
341.00	-66.479	-62.113	
342.00	-68.837	-76.106	
343.00	-66.677	-105.495	
344.00	-62.170	-122.399	
345.00	-59.927	-125.175	
346.00	-60.166	-142.941	
347.00	-60.519	-164.456	
348.00	-59.222	-158.209	
349.00	-58.885	-160.328	
350.00	-58.103	-159.267	
351.00	-57.907	-154.273	
352.00	-58.171	-163.123	
353.00	-57.794	-156.611	
354.00	-57.069	-153.947	
355.00	-59.128	-151.972	
356.00	-59.711	-141.895	
357.00	-60.071	-139.304	
358.00	-59.080	-132.016	
359.00	-60.052	-124.961	
Frequency	1800.00	MHz	
Channel	test		
Scan Axis name	Azimuth  [deg]		
Scan Axis	Amplitude	Phase	
			
0.00	-66.804	3.059	
1.00	-65.905	-7.860	
2.00	-62.037	-11.237	
3.00	-61.089	-10.952	
4.00	-58.955	-10.885	
5.00	-58.275	-11.947	
6.00	-55.804	-7.432	
7.00	-55.474	-8.665	
8.00	-53.882	-10.520	
9.00	-53.299	-9.037	
10.00	-52.983	-10.503	
11.00	-52.091	-8.036	
12.00	-51.521	-5.805	
13.00	-51.542	-6.083	
14.00	-51.189	-5.606	
15.00	-50.882	-3.871	
16.00	-51.859	3.877	
17.00	-51.420	3.879	
18.00	-52.134	13.638	
19.00	-52.313	14.716	
20.00	-52.714	28.002	
21.00	-52.821	29.056	
22.00	-53.451	44.698	
23.00	-53.768	52.628	
24.00	-54.174	68.739	
25.00	-54.520	78.671	
26.00	-54.008	90.569	
27.00	-54.672	104.929	
28.00	-54.441	117.829	
29.00	-54.476	133.645	
30.00	-55.777	149.383	
31.00	-55.666	162.972	
32.00	-55.169	-177.414	
33.00	-54.451	-155.961	
34.00	-53.699	-143.254	
35.00	-52.499	-123.927	
36.00	-51.308	-117.807	
37.00	-50.374	-105.589	
38.00	-49.511	-96.626	
39.00	-48.847	-90.851	
40.00	-48.336	-80.158	
41.00	-48.525	-74.403	
42.00	-47.996	-66.452	
43.00	-48.551	-56.879	
44.00	-48.743	-50.588	
45.00	-49.301	-37.567	
46.00	-50.305	-27.804	
47.00	-51.159	-14.520	
48.00	-52.104	0.355	
49.00	-53.711	16.501	
50.00	-54.775	39.718	
51.00	-54.799	63.249	
52.00	-55.196	86.041	
53.00	-53.715	116.082	
54.00	-52.734	133.359	
55.00	-51.639	149.299	
56.00	-50.506	162.964	
57.00	-49.814	178.731	
58.00	-49.672	-170.380	
59.00	-48.902	-156.509	
60.00	-48.535	-143.785	
61.00	-48.417	-134.292	
62.00	-48.512	-121.609	
63.00	-48.297	-111.541	
64.00	-48.757	-96.796	
65.00	-49.497	-82.268	
66.00	-49.482	-69.588	
67.00	-50.407	-54.179	
68.00	-50.845	-36.384	
69.00	-51.508	-20.253	
70.00	-51.391	-3.836	
71.00	-51.716	16.194	
72.00	-51.543	32.343	
73.00	-51.938	52.929	
74.00	-51.647	68.565	
75.00	-51.642	85.654	
76.00	-51.353	102.765	
77.00	-51.374	122.494	
78.00	-51.276	138.428	
79.00	-51.167	155.300	
80.00	-50.685	172.858	
81.00	-50.916	-170.100	
82.00	-50.718	-157.724	
83.00	-50.696	-142.143	
84.00	-50.767	-128.804	
85.00	-50.993	-108.032	
86.00	-51.338	-94.272	
87.00	-51.826	-67.400	
88.00	-51.999	-52.407	
89.00	-51.548	-31.821	
90.00	-50.580	-9.857	
91.00	-49.707	6.681	
92.00	-48.939	30.543	
93.00	-48.469	45.520	
94.00	-47.678	60.719	
95.00	-47.259	71.650	
96.00	-47.246	82.627	
97.00	-47.216	94.957	
98.00	-47.587	110.982	
99.00	-47.861	126.934	
100.00	-48.008	142.093	
101.00	-48.586	161.212	
102.00	-48.895	176.175	
103.00	-48.709	-164.498	
104.00	-48.907	-149.254	
105.00	-48.537	-128.669	
106.00	-47.691	-115.832	
107.00	-47.786	-95.576	
108.00	-47.248	-84.099	
109.00	-46.681	-66.561	
110.00	-46.451	-51.185	
111.00	-46.119	-39.845	
112.00	-45.961	-27.196	
113.00	-45.639	-12.862	
114.00	-45.181	0.947	
115.00	-44.721	16.227	
116.00	-44.877	22.279	
117.00	-44.977	35.258	
118.00	-44.788	44.527	
119.00	-44.892	57.806	
120.00	-44.965	65.714	
121.00	-44.678	77.240	
122.00	-44.901	84.154	
123.00	-44.985	100.520	
124.00	-45.216	106.110	
125.00	-45.235	123.728	
126.00	-45.544	127.001	
127.00	-45.614	141.743	
128.00	-46.052	151.616	
129.00	-46.317	163.306	
130.00	-46.808	171.966	
131.00	-47.007	-173.981	
132.00	-47.724	-163.768	
133.00	-47.995	-151.301	
134.00	-48.221	-141.232	
135.00	-48.687	-132.536	
136.00	-48.707	-120.925	
137.00	-49.109	-109.995	
138.00	-49.126	-97.285	
139.00	-49.261	-85.452	
140.00	-49.363	-74.963	
141.00	-48.919	-64.955	
142.00	-48.750	-53.301	
143.00	-48.239	-41.519	
144.00	-47.892	-38.610	
145.00	-47.755	-26.971	
146.00	-47.631	-21.106	
147.00	-47.408	-10.244	
148.00	-47.306	-9.111	
149.00	-47.199	0.310	
150.00	-47.401	1.698	
151.00	-47.545	11.069	
152.00	-47.759	14.216	
153.00	-48.159	20.106	
154.00	-48.249	25.709	
155.00	-49.087	31.945	
156.00	-49.042	40.454	
157.00	-49.313	47.801	
158.00	-49.478	51.387	
159.00	-49.736	60.927	
160.00	-50.002	70.872	
161.00	-50.265	75.625	
162.00	-50.261	86.508	
163.00	-49.956	92.773	
164.00	-49.852	105.150	
165.00	-49.564	109.947	
166.00	-49.121	116.764	
167.00	-48.790	121.583	
168.00	-48.900	127.005	
169.00	-48.354	133.441	
170.00	-48.047	133.731	
171.00	-48.088	137.832	
172.00	-47.881	135.948	
173.00	-47.823	144.539	
174.00	-47.718	142.007	
175.00	-47.728	148.042	
176.00	-47.718	144.262	
177.00	-47.735	146.278	
178.00	-47.814	145.021	
179.00	-47.912	149.217	
180.00	-47.995	145.017	
181.00	-48.181	144.796	
182.00	-48.046	144.913	
183.00	-48.050	142.646	
184.00	-48.254	141.218	
185.00	-48.214	135.122	
186.00	-48.296	134.320	
187.00	-48.107	128.353	
188.00	-47.880	126.940	
189.00	-47.887	118.908	
190.00	-47.668	116.884	
191.00	-47.301	107.195	
192.00	-47.399	104.264	
193.00	-46.982	99.019	
194.00	-46.626	91.386	
195.00	-46.224	83.545	
196.00	-46.243	79.931	
197.00	-45.795	71.536	
198.00	-45.483	66.274	
199.00	-45.219	58.796	
200.00	-45.097	51.056	
201.00	-44.859	44.926	
202.00	-44.540	34.751	
203.00	-44.364	29.998	
204.00	-44.175	18.269	
205.00	-44.106	14.048	
206.00	-44.017	3.799	
207.00	-43.848	-3.917	
208.00	-43.717	-10.414	
209.00	-43.524	-22.222	
210.00	-43.546	-27.978	
211.00	-43.557	-36.549	
212.00	-43.408	-47.226	
213.00	-43.431	-56.656	
214.00	-43.411	-66.284	
215.00	-43.409	-75.016	
216.00	-43.447	-84.580	
217.00	-43.568	-93.120	
218.00	-43.511	-104.745	
219.00	-43.737	-113.213	
220.00	-43.893	-121.028	
221.00	-44.107	-130.759	
222.00	-44.432	-140.440	
223.00	-44.683	-151.937	
224.00	-45.125	-163.302	
225.00	-45.559	-173.076	
226.00	-45.953	172.540	
227.00	-46.385	160.087	
228.00	-46.918	145.404	
229.00	-47.103	132.125	
230.00	-47.098	118.152	
231.00	-47.123	104.237	
232.00	-47.439	88.568	
233.00	-47.416	77.793	
234.00	-47.521	62.508	
235.00	-47.727	51.073	
236.00	-48.114	36.788	
237.00	-48.587	23.727	
238.00	-49.004	11.399	
239.00	-49.539	-0.348	
240.00	-50.213	-18.470	
241.00	-50.922	-36.501	
242.00	-51.344	-51.932	
243.00	-51.502	-76.076	
244.00	-51.707	-91.483	
245.00	-51.810	-113.536	
246.00	-50.163	-126.244	
247.00	-50.498	-147.402	
248.00	-50.411	-161.525	
249.00	-50.644	-174.324	
250.00	-50.195	173.790	
251.00	-50.580	158.981	
252.00	-50.750	148.820	
253.00	-51.014	132.088	
254.00	-51.640	116.439	
255.00	-51.415	102.135	
256.00	-52.283	82.548	
257.00	-51.973	66.968	
258.00	-51.838	52.173	
259.00	-52.023	34.247	
260.00	-51.791	18.305	
261.00	-51.702	6.007	
262.00	-51.709	-8.010	
263.00	-51.354	-23.821	
264.00	-51.422	-39.085	
265.00	-51.970	-48.645	
266.00	-51.935	-63.096	
267.00	-52.195	-77.513	
268.00	-52.741	-91.845	
269.00	-52.695	-107.413	
270.00	-52.731	-117.283	
271.00	-53.098	-138.135	
272.00	-52.787	-148.885	
273.00	-52.840	-162.826	
274.00	-52.188	-178.605	
275.00	-52.667	173.979	
276.00	-52.287	159.271	
277.00	-53.174	151.729	
278.00	-52.921	145.582	
279.00	-53.570	130.226	
280.00	-53.931	123.776	
281.00	-54.504	110.525	
282.00	-54.825	103.739	
283.00	-55.479	94.396	
284.00	-57.816	83.351	
285.00	-57.745	62.332	
286.00	-59.807	44.712	
287.00	-60.755	21.340	
288.00	-61.388	14.565	
289.00	-61.977	0.480	
290.00	-62.048	-17.563	
291.00	-60.476	-30.699	
292.00	-59.963	-43.533	
293.00	-60.693	-49.650	
294.00	-59.910	-46.994	
295.00	-59.642	-56.965	
296.00	-58.931	-61.310	
297.00	-58.346	-62.999	
298.00	-59.276	-62.711	
299.00	-59.561	-63.953	
300.00	-60.386	-65.417	
301.00	-61.844	-64.444	
302.00	-62.781	-65.023	
303.00	-63.644	-81.611	
304.00	-65.341	-63.948	
305.00	-68.016	-89.575	
306.00	-69.939	-61.464	
307.00	-69.393	-67.827	
308.00	-77.173	-144.014	
309.00	-76.337	-14.831	
310.00	-81.926	28.095	
311.00	-80.215	104.526	
312.00	-71.940	38.756	
313.00	-69.654	30.085	
314.00	-67.719	24.596	
315.00	-64.694	20.804	
316.00	-62.784	8.734	
317.00	-61.794	3.765	
318.00	-60.424	-2.314	
319.00	-58.468	-9.909	
320.00	-58.099	-14.076	
321.00	-57.547	-13.720	
322.00	-55.924	-15.447	
323.00	-54.851	-22.772	
324.00	-54.511	-23.261	
325.00	-54.217	-26.509	
326.00	-54.393	-30.544	
327.00	-53.903	-29.373	
328.00	-53.866	-32.861	
329.00	-54.148	-34.421	
330.00	-54.909	-38.598	
331.00	-55.006	-36.203	
332.00	-56.114	-39.350	
333.00	-56.471	-36.879	
334.00	-57.612	-42.341	
335.00	-58.766	-38.913	
336.00	-60.151	-39.243	
337.00	-61.321	-36.759	
338.00	-64.810	-30.534	
339.00	-67.371	-15.965	
340.00	-70.334	0.522	
341.00	-73.122	29.022	
342.00	-72.081	49.658	
343.00	-69.467	96.903	
344.00	-70.524	94.691	
345.00	-67.339	118.898	
346.00	-65.835	118.702	
347.00	-65.551	126.164	
348.00	-64.744	125.202	
349.00	-63.392	135.674	
350.00	-63.427	134.504	
351.00	-63.209	136.964	
352.00	-64.703	130.805	
353.00	-64.440	136.413	
354.00	-66.067	132.800	
355.00	-66.207	128.627	
356.00	-72.248	102.111	
357.00	-72.297	89.114	
358.00	-71.670	23.808	
359.00	-72.104	43.020	
Frequency	1850.00	MHz	
Channel	test		
Scan Axis name	Azimuth  [deg]		
Scan Axis	Amplitude	Phase	
			
0.00	-56.050	-25.857	
1.00	-56.079	-19.945	
2.00	-55.195	-12.488	
3.00	-54.449	-1.006	
4.00	-53.605	1.812	
5.00	-53.036	5.588	
6.00	-52.474	9.869	
7.00	-52.400	12.418	
8.00	-52.067	20.951	
9.00	-51.547	22.937	
10.00	-51.570	26.469	
11.00	-51.930	31.829	
12.00	-51.371	40.847	
13.00	-51.958	44.303	
14.00	-51.536	51.380	
15.00	-51.881	56.451	
16.00	-52.153	68.324	
17.00	-51.614	72.963	
18.00	-52.087	85.720	
19.00	-51.484	86.354	
20.00	-52.234	96.835	
21.00	-51.720	98.701	
22.00	-52.528	110.197	
23.00	-52.711	116.035	
24.00	-53.661	125.689	
25.00	-54.367	135.452	
26.00	-56.024	149.041	
27.00	-56.843	161.247	
28.00	-57.785	176.054	
29.00	-59.317	-162.652	
30.00	-59.200	-133.421	
31.00	-59.056	-111.250	
32.00	-58.153	-94.901	
33.00	-56.705	-76.552	
34.00	-56.208	-59.229	
35.00	-55.746	-45.376	
36.00	-55.007	-35.174	
37.00	-54.178	-24.074	
38.00	-53.949	-11.370	
39.00	-53.716	-2.701	
40.00	-53.882	12.798	
41.00	-53.405	27.559	
42.00	-53.498	38.903	
43.00	-53.908	56.968	
44.00	-53.971	67.662	
45.00	-53.409	91.778	
46.00	-53.412	104.073	
47.00	-53.100	120.424	
48.00	-52.368	135.090	
49.00	-51.960	150.517	
50.00	-52.158	165.870	
51.00	-51.955	177.684	
52.00	-51.873	-166.944	
53.00	-52.383	-148.049	
54.00	-51.906	-131.010	
55.00	-52.075	-115.099	
56.00	-51.880	-97.147	
57.00	-51.079	-82.327	
58.00	-51.236	-62.212	
59.00	-50.684	-46.624	
60.00	-50.101	-29.705	
61.00	-49.619	-17.798	
62.00	-49.220	-2.251	
63.00	-49.163	8.588	
64.00	-49.384	23.212	
65.00	-49.827	35.419	
66.00	-50.242	50.149	
67.00	-52.203	66.585	
68.00	-51.624	88.396	
69.00	-51.959	109.414	
70.00	-51.792	130.665	
71.00	-51.263	151.248	
72.00	-50.577	170.554	
73.00	-49.890	-173.236	
74.00	-48.809	-157.752	
75.00	-48.031	-140.651	
76.00	-47.384	-127.853	
77.00	-46.963	-114.236	
78.00	-46.843	-103.030	
79.00	-46.695	-88.249	
80.00	-46.584	-73.184	
81.00	-46.556	-58.239	
82.00	-46.493	-43.388	
83.00	-46.734	-30.212	
84.00	-46.835	-17.534	
85.00	-46.911	4.727	
86.00	-46.727	14.568	
87.00	-46.656	37.433	
88.00	-46.353	49.042	
89.00	-46.677	66.811	
90.00	-46.579	81.858	
91.00	-46.311	96.602	
92.00	-46.719	118.019	
93.00	-46.550	133.741	
94.00	-46.189	149.728	
95.00	-46.105	164.326	
96.00	-46.044	179.748	
97.00	-45.861	-164.089	
98.00	-45.430	-147.582	
99.00	-45.700	-132.353	
100.00	-45.873	-116.495	
101.00	-45.956	-99.962	
102.00	-46.054	-86.493	
103.00	-46.443	-71.704	
104.00	-46.478	-57.554	
105.00	-47.284	-40.897	
106.00	-47.545	-27.388	
107.00	-48.026	-8.539	
108.00	-48.219	8.975	
109.00	-48.216	28.760	
110.00	-48.022	52.043	
111.00	-48.051	65.969	
112.00	-47.254	83.566	
113.00	-46.746	100.505	
114.00	-46.307	112.249	
115.00	-46.185	127.951	
116.00	-45.715	133.709	
117.00	-45.222	152.066	
118.00	-45.137	162.619	
119.00	-44.930	176.817	
120.00	-45.083	-175.935	
121.00	-44.835	-162.372	
122.00	-44.963	-154.750	
123.00	-45.175	-137.681	
124.00	-45.171	-130.488	
125.00	-45.164	-111.386	
126.00	-45.652	-106.518	
127.00	-45.798	-93.042	
128.00	-46.063	-77.839	
129.00	-46.261	-66.105	
130.00	-46.229	-54.938	
131.00	-46.244	-39.998	
132.00	-46.276	-29.953	
133.00	-46.341	-17.575	
134.00	-46.342	-8.454	
135.00	-46.532	-0.090	
136.00	-46.339	9.575	
137.00	-46.149	16.506	
138.00	-46.350	26.521	
139.00	-46.451	31.482	
140.00	-46.794	38.856	
141.00	-47.110	44.067	
142.00	-47.608	52.302	
143.00	-48.214	61.986	
144.00	-49.064	64.599	
145.00	-49.505	76.805	
146.00	-50.565	83.745	
147.00	-52.106	100.161	
148.00	-52.836	104.760	
149.00	-53.846	126.933	
150.00	-54.444	137.000	
151.00	-54.358	162.530	
152.00	-53.493	174.755	
153.00	-52.929	-173.532	
154.00	-51.831	-164.011	
155.00	-51.047	-154.961	
156.00	-49.821	-145.644	
157.00	-49.170	-138.525	
158.00	-48.586	-136.973	
159.00	-48.275	-134.464	
160.00	-47.568	-126.003	
161.00	-47.082	-127.249	
162.00	-46.806	-122.359	
163.00	-46.705	-120.538	
164.00	-46.546	-112.260	
165.00	-46.421	-109.925	
166.00	-46.174	-104.313	
167.00	-46.033	-101.285	
168.00	-45.968	-96.529	
169.00	-45.761	-90.971	
170.00	-45.630	-91.280	
171.00	-45.212	-86.593	
172.00	-45.071	-87.530	
173.00	-44.793	-77.948	
174.00	-44.484	-79.978	
175.00	-44.257	-74.181	
176.00	-43.992	-78.095	
177.00	-43.764	-74.511	
178.00	-43.417	-76.151	
179.00	-43.237	-74.004	
180.00	-43.024	-76.732	
181.00	-42.799	-76.197	
182.00	-42.615	-75.430	
183.00	-42.378	-78.862	
184.00	-42.330	-80.021	
185.00	-42.019	-85.255	
186.00	-41.938	-86.111	
187.00	-41.810	-90.579	
188.00	-41.683	-91.980	
189.00	-41.635	-98.264	
190.00	-41.580	-98.499	
191.00	-41.548	-106.161	
192.00	-41.545	-108.063	
193.00	-41.544	-113.082	
194.00	-41.603	-116.855	
195.00	-41.588	-124.664	
196.00	-41.665	-127.714	
197.00	-41.697	-135.693	
198.00	-41.719	-140.980	
199.00	-41.865	-147.645	
200.00	-41.937	-156.257	
201.00	-41.989	-162.261	
202.00	-42.092	-173.591	
203.00	-42.080	-179.281	
204.00	-42.169	168.969	
205.00	-42.221	162.804	
206.00	-42.202	152.078	
207.00	-42.256	142.660	
208.00	-42.193	136.845	
209.00	-42.136	123.857	
210.00	-42.064	116.852	
211.00	-41.955	107.019	
212.00	-42.056	95.568	
213.00	-42.005	85.131	
214.00	-42.016	75.291	
215.00	-42.039	66.095	
216.00	-42.051	55.859	
217.00	-42.029	46.962	
218.00	-42.181	34.186	
219.00	-42.303	24.287	
220.00	-42.505	16.477	
221.00	-42.663	4.467	
222.00	-42.869	-4.891	
223.00	-43.124	-17.972	
224.00	-43.413	-29.830	
225.00	-43.627	-40.207	
226.00	-43.858	-54.936	
227.00	-44.065	-67.567	
228.00	-44.247	-80.792	
229.00	-44.391	-92.864	
230.00	-44.463	-105.814	
231.00	-44.556	-117.765	
232.00	-44.757	-132.547	
233.00	-45.001	-142.904	
234.00	-45.344	-155.631	
235.00	-45.591	-168.237	
236.00	-46.053	177.413	
237.00	-46.525	163.546	
238.00	-47.018	150.277	
239.00	-47.514	137.984	
240.00	-47.904	121.193	
241.00	-48.382	105.195	
242.00	-48.576	92.795	
243.00	-48.918	72.342	
244.00	-49.269	62.309	
245.00	-49.555	49.698	
246.00	-50.392	30.797	
247.00	-51.162	21.924	
248.00	-50.753	4.362	
249.00	-52.011	-10.874	
250.00	-53.296	-25.637	
251.00	-54.466	-44.502	
252.00	-54.651	-62.843	
253.00	-55.823	-86.167	
254.00	-56.082	-110.726	
255.00	-54.891	-137.474	
256.00	-54.844	-153.076	
257.00	-53.569	-170.031	
258.00	-52.947	177.370	
259.00	-52.666	163.822	
260.00	-52.399	153.695	
261.00	-52.306	144.044	
262.00	-52.509	132.781	
263.00	-52.688	123.670	
264.00	-53.249	112.153	
265.00	-54.017	103.847	
266.00	-54.641	93.300	
267.00	-55.659	84.610	
268.00	-56.361	74.011	
269.00	-57.351	63.562	
270.00	-58.004	54.327	
271.00	-59.534	46.353	
272.00	-60.437	34.856	
273.00	-60.871	31.979	
274.00	-61.246	27.889	
275.00	-61.957	27.926	
276.00	-62.105	28.122	
277.00	-61.244	28.591	
278.00	-60.651	33.257	
279.00	-59.534	29.589	
280.00	-59.663	27.519	
281.00	-59.104	23.169	
282.00	-58.528	19.209	
283.00	-58.089	15.360	
284.00	-57.649	9.648	
285.00	-57.797	2.380	
286.00	-58.416	-10.473	
287.00	-58.577	-14.670	
288.00	-59.523	-24.055	
289.00	-60.613	-34.467	
290.00	-61.086	-37.828	
291.00	-62.471	-43.087	
292.00	-64.159	-58.757	
293.00	-67.322	-52.576	
294.00	-70.876	-66.738	
295.00	-78.853	52.963	
296.00	-75.288	56.393	
297.00	-71.289	76.100	
298.00	-67.867	92.070	
299.00	-64.145	59.525	
300.00	-61.733	53.340	
301.00	-59.722	48.189	
302.00	-58.723	39.042	
303.00	-57.886	34.237	
304.00	-57.090	23.756	
305.00	-57.421	17.014	
306.00	-56.557	7.600	
307.00	-56.645	-1.499	
308.00	-56.406	-11.134	
309.00	-56.424	-15.977	
310.00	-56.414	-29.105	
311.00	-56.431	-39.229	
312.00	-56.666	-50.486	
313.00	-56.263	-63.646	
314.00	-56.235	-72.460	
315.00	-55.837	-80.534	
316.00	-56.055	-87.293	
317.00	-56.132	-96.865	
318.00	-56.382	-105.210	
319.00	-56.841	-112.755	
320.00	-57.363	-120.855	
321.00	-58.077	-128.410	
322.00	-59.070	-130.820	
323.00	-60.395	-141.250	
324.00	-61.371	-148.031	
325.00	-63.266	-150.458	
326.00	-65.351	-160.225	
327.00	-70.610	-165.898	
328.00	-71.316	179.953	
329.00	-80.131	-135.979	
330.00	-79.963	-14.434	
331.00	-71.003	-12.371	
332.00	-71.146	-31.550	
333.00	-67.462	-29.411	
334.00	-64.352	-39.207	
335.00	-62.195	-46.583	
336.00	-60.877	-50.890	
337.00	-59.702	-49.504	
338.00	-58.081	-56.317	
339.00	-56.852	-64.251	
340.00	-56.640	-64.435	
341.00	-55.860	-70.244	
342.00	-55.599	-75.092	
343.00	-54.971	-81.370	
344.00	-54.528	-80.834	
345.00	-54.366	-81.475	
346.00	-54.196	-83.991	
347.00	-54.396	-83.998	
348.00	-54.312	-89.230	
349.00	-54.740	-87.222	
350.00	-54.892	-83.625	
351.00	-55.279	-80.115	
352.00	-55.961	-78.370	
353.00	-56.139	-72.392	
354.00	-56.671	-67.864	
355.00	-56.820	-57.306	
356.00	-57.551	-39.803	
357.00	-57.616	-35.295	
358.00	-56.894	-25.807	
359.00	-57.071	-26.451	
Frequency	1950.00	MHz	
Channel	test		
Scan Axis name	Azimuth  [deg]		
Scan Axis	Amplitude	Phase	
			
0.00	-55.031	137.814	
1.00	-54.690	134.062	
2.00	-54.286	130.219	
3.00	-54.357	130.212	
4.00	-53.774	125.645	
5.00	-54.692	123.887	
6.00	-54.652	127.179	
7.00	-54.498	124.816	
8.00	-55.449	127.707	
9.00	-55.589	124.805	
10.00	-58.957	122.168	
11.00	-58.805	125.435	
12.00	-62.329	119.468	
13.00	-66.769	136.948	
14.00	-67.414	123.483	
15.00	-73.187	111.274	
16.00	-77.666	-95.982	
17.00	-70.688	-53.832	
18.00	-65.019	-50.757	
19.00	-63.731	-62.123	
20.00	-61.953	-60.513	
21.00	-62.250	-49.924	
22.00	-62.359	-58.429	
23.00	-61.299	-15.423	
24.00	-62.121	-34.820	
25.00	-63.059	-29.473	
26.00	-66.710	-7.247	
27.00	-70.568	29.166	
28.00	-67.183	65.548	
29.00	-63.718	93.922	
30.00	-62.363	105.646	
31.00	-59.913	123.856	
32.00	-59.006	117.084	
33.00	-58.572	124.786	
34.00	-57.222	126.257	
35.00	-57.793	134.419	
36.00	-57.767	138.320	
37.00	-58.691	141.312	
38.00	-59.874	143.596	
39.00	-62.643	156.333	
40.00	-69.660	170.544	
41.00	-77.795	-134.131	
42.00	-78.574	-40.179	
43.00	-65.801	-32.442	
44.00	-63.053	-26.472	
45.00	-60.100	-10.014	
46.00	-57.857	-11.027	
47.00	-56.910	-0.321	
48.00	-56.757	4.080	
49.00	-57.803	12.244	
50.00	-57.591	18.364	
51.00	-57.343	25.761	
52.00	-58.923	41.771	
53.00	-61.946	57.213	
54.00	-64.569	87.023	
55.00	-66.833	133.449	
56.00	-64.972	-176.047	
57.00	-62.156	-163.003	
58.00	-59.620	-138.312	
59.00	-57.624	-126.664	
60.00	-56.300	-111.495	
61.00	-55.124	-95.166	
62.00	-53.926	-85.066	
63.00	-53.238	-72.774	
64.00	-53.077	-58.538	
65.00	-52.648	-46.513	
66.00	-52.938	-29.784	
67.00	-51.854	-17.011	
68.00	-52.200	-4.136	
69.00	-52.265	7.764	
70.00	-52.350	21.836	
71.00	-52.020	36.070	
72.00	-52.400	52.669	
73.00	-52.568	67.641	
74.00	-53.252	82.646	
75.00	-53.396	102.303	
76.00	-53.047	118.644	
77.00	-53.919	140.486	
78.00	-53.171	157.291	
79.00	-53.087	178.200	
80.00	-52.168	-162.432	
81.00	-51.730	-146.255	
82.00	-51.274	-132.909	
83.00	-51.173	-114.787	
84.00	-51.387	-104.695	
85.00	-50.541	-81.092	
86.00	-49.966	-73.396	
87.00	-50.137	-50.033	
88.00	-49.880	-42.205	
89.00	-49.567	-24.298	
90.00	-49.746	-10.095	
91.00	-49.379	4.610	
92.00	-49.728	25.428	
93.00	-50.432	38.468	
94.00	-49.873	56.944	
95.00	-50.060	72.814	
96.00	-50.153	92.533	
97.00	-50.158	109.805	
98.00	-49.918	127.123	
99.00	-48.922	145.618	
100.00	-48.816	163.108	
101.00	-48.730	174.460	
102.00	-48.366	-166.957	
103.00	-48.742	-151.727	
104.00	-48.291	-139.106	
105.00	-48.473	-123.407	
106.00	-48.250	-111.991	
107.00	-48.213	-96.492	
108.00	-48.634	-84.058	
109.00	-48.588	-66.144	
110.00	-48.684	-44.590	
111.00	-48.706	-32.640	
112.00	-48.295	-18.353	
113.00	-48.182	-0.774	
114.00	-47.770	6.103	
115.00	-47.816	25.868	
116.00	-47.861	40.911	
117.00	-47.464	51.860	
118.00	-48.050	63.511	
119.00	-47.673	77.776	
120.00	-47.290	86.811	
121.00	-47.610	100.091	
122.00	-47.317	109.739	
123.00	-46.875	126.892	
124.00	-46.879	135.953	
125.00	-46.961	155.487	
126.00	-46.989	159.711	
127.00	-46.508	171.838	
128.00	-46.554	-175.903	
129.00	-46.408	-164.511	
130.00	-47.046	-154.106	
131.00	-46.843	-145.493	
132.00	-47.618	-132.520	
133.00	-47.593	-117.454	
134.00	-48.403	-110.230	
135.00	-47.952	-100.313	
136.00	-48.404	-89.630	
137.00	-48.523	-78.524	
138.00	-48.405	-66.391	
139.00	-48.819	-55.448	
140.00	-48.886	-46.803	
141.00	-49.333	-35.095	
142.00	-49.243	-22.086	
143.00	-49.909	-11.809	
144.00	-50.416	-4.050	
145.00	-50.226	12.627	
146.00	-50.086	20.806	
147.00	-50.410	38.432	
148.00	-50.400	39.244	
149.00	-50.927	57.721	
150.00	-50.734	58.432	
151.00	-51.101	70.903	
152.00	-50.848	81.520	
153.00	-49.995	94.811	
154.00	-51.654	96.157	
155.00	-50.584	102.144	
156.00	-52.978	109.700	
157.00	-52.258	120.843	
158.00	-53.422	131.301	
159.00	-53.527	140.001	
160.00	-55.354	155.224	
161.00	-53.873	160.494	
162.00	-53.681	170.114	
163.00	-54.001	-179.041	
164.00	-54.240	-171.082	
165.00	-54.105	-166.829	
166.00	-53.204	-151.427	
167.00	-53.467	-149.839	
168.00	-53.062	-137.935	
169.00	-53.330	-134.444	
170.00	-52.915	-132.744	
171.00	-52.952	-124.694	
172.00	-51.999	-131.335	
173.00	-52.981	-111.104	
174.00	-52.710	-116.046	
175.00	-52.266	-113.096	
176.00	-52.429	-112.919	
177.00	-52.863	-112.632	
178.00	-52.817	-117.514	
179.00	-50.333	-110.728	
180.00	-51.393	-112.184	
181.00	-51.144	-118.838	
182.00	-51.261	-119.976	
183.00	-51.082	-124.563	
184.00	-50.646	-127.060	
185.00	-50.362	-134.260	
186.00	-49.936	-139.736	
187.00	-49.578	-145.736	
188.00	-49.045	-150.647	
189.00	-49.074	-157.540	
190.00	-48.705	-161.351	
191.00	-47.990	-171.379	
192.00	-47.910	-173.069	
193.00	-47.189	-178.281	
194.00	-47.472	176.320	
195.00	-47.057	170.728	
196.00	-46.647	164.988	
197.00	-46.476	159.831	
198.00	-46.156	154.794	
199.00	-46.254	148.847	
200.00	-46.080	140.492	
201.00	-46.278	139.303	
202.00	-46.062	128.044	
203.00	-45.868	125.054	
204.00	-46.304	114.652	
205.00	-46.115	110.516	
206.00	-46.280	102.905	
207.00	-47.095	98.650	
208.00	-46.395	92.651	
209.00	-46.762	81.067	
210.00	-47.297	77.325	
211.00	-47.472	70.328	
212.00	-47.840	60.325	
213.00	-48.397	53.137	
214.00	-48.894	43.722	
215.00	-48.932	35.932	
216.00	-49.702	28.187	
217.00	-50.353	19.071	
218.00	-51.018	8.870	
219.00	-51.645	-0.230	
220.00	-52.163	-6.243	
221.00	-53.313	-18.294	
222.00	-53.592	-22.504	
223.00	-54.009	-33.896	
224.00	-54.899	-43.448	
225.00	-55.524	-49.751	
226.00	-55.951	-59.365	
227.00	-56.337	-65.134	
228.00	-56.361	-70.296	
229.00	-57.147	-71.587	
230.00	-57.612	-79.914	
231.00	-58.097	-80.948	
232.00	-58.467	-86.365	
233.00	-58.461	-88.675	
234.00	-58.170	-99.109	
235.00	-57.457	-99.859	
236.00	-58.476	-108.004	
237.00	-58.074	-117.030	
238.00	-57.665	-133.080	
239.00	-58.808	-137.209	
240.00	-57.830	-147.091	
241.00	-57.720	-158.759	
242.00	-57.610	-171.724	
243.00	-58.082	171.792	
244.00	-57.461	154.755	
245.00	-56.828	160.226	
246.00	-57.673	141.907	
247.00	-56.965	123.291	
248.00	-55.883	114.640	
249.00	-56.765	93.207	
250.00	-57.230	89.876	
251.00	-57.309	67.148	
252.00	-57.891	59.542	
253.00	-57.551	35.875	
254.00	-57.991	28.416	
255.00	-59.469	12.461	
256.00	-56.625	-3.707	
257.00	-57.724	-15.681	
258.00	-59.233	-30.410	
259.00	-58.252	-41.910	
260.00	-59.267	-54.556	
261.00	-59.727	-63.145	
262.00	-61.798	-70.684	
263.00	-62.461	-93.085	
264.00	-65.991	-105.426	
265.00	-66.908	-113.953	
266.00	-77.692	-94.514	
267.00	-83.522	170.340	
268.00	-72.102	79.018	
269.00	-66.593	35.260	
270.00	-66.455	35.256	
271.00	-62.694	25.276	
272.00	-61.686	12.808	
273.00	-59.757	-1.465	
274.00	-59.657	-17.427	
275.00	-58.110	-29.098	
276.00	-57.417	-31.983	
277.00	-57.027	-45.688	
278.00	-56.762	-49.950	
279.00	-56.957	-60.260	
280.00	-57.486	-67.857	
281.00	-58.590	-77.977	
282.00	-60.775	-79.187	
283.00	-62.596	-94.365	
284.00	-65.288	-113.495	
285.00	-70.426	-122.328	
286.00	-75.833	141.578	
287.00	-67.791	76.881	
288.00	-65.781	48.044	
289.00	-61.795	35.976	
290.00	-62.062	28.831	
291.00	-62.940	6.804	
292.00	-59.548	6.573	
293.00	-59.372	-9.334	
294.00	-58.493	-20.496	
295.00	-58.002	-31.510	
296.00	-55.942	-47.433	
297.00	-56.800	-57.934	
298.00	-55.060	-73.216	
299.00	-55.627	-86.133	
300.00	-55.485	-93.247	
301.00	-55.983	-101.238	
302.00	-56.123	-105.750	
303.00	-56.133	-112.303	
304.00	-57.486	-123.286	
305.00	-61.134	-132.592	
306.00	-59.767	-140.148	
307.00	-64.655	-164.836	
308.00	-67.608	164.422	
309.00	-75.269	103.694	
310.00	-65.005	69.970	
311.00	-63.989	63.252	
312.00	-60.638	58.686	
313.00	-60.039	40.138	
314.00	-57.598	35.867	
315.00	-56.448	30.741	
316.00	-56.487	18.507	
317.00	-58.033	10.180	
318.00	-56.332	3.831	
319.00	-55.955	-3.612	
320.00	-56.578	-9.682	
321.00	-56.975	-23.720	
322.00	-57.538	-26.107	
323.00	-56.869	-39.788	
324.00	-57.736	-51.834	
325.00	-57.762	-59.604	
326.00	-57.751	-69.392	
327.00	-57.585	-83.838	
328.00	-57.780	-80.724	
329.00	-58.464	-92.118	
330.00	-57.921	-101.269	
331.00	-57.836	-101.991	
332.00	-58.019	-101.268	
333.00	-57.770	-111.865	
334.00	-57.294	-120.164	
335.00	-58.034	-117.895	
336.00	-57.650	-114.285	
337.00	-58.769	-120.110	
338.00	-58.472	-114.857	
339.00	-59.665	-117.376	
340.00	-60.451	-113.099	
341.00	-60.348	-114.737	
342.00	-61.054	-113.304	
343.00	-61.009	-120.539	
344.00	-61.258	-113.755	
345.00	-61.956	-120.118	
346.00	-63.186	-123.722	
347.00	-61.966	-119.792	
348.00	-63.811	-128.127	
349.00	-62.635	-146.478	
350.00	-62.335	-162.714	
351.00	-62.539	-166.889	
352.00	-61.950	173.626	
353.00	-60.493	172.336	
354.00	-60.213	162.599	
355.00	-59.310	161.376	
356.00	-57.172	151.543	
357.00	-56.972	148.158	
358.00	-55.749	142.219	
359.00	-55.807	139.323	
Frequency	2050.00	MHz	
Channel	test		
Scan Axis name	Azimuth  [deg]		
Scan Axis	Amplitude	Phase	
			
0.00	-64.183	-115.245	
1.00	-63.163	-116.997	
2.00	-64.748	-122.716	
3.00	-67.244	-122.618	
4.00	-66.518	-134.455	
5.00	-67.120	-141.879	
6.00	-64.655	-164.036	
7.00	-63.575	-167.495	
8.00	-62.870	167.775	
9.00	-63.112	168.404	
10.00	-60.741	166.635	
11.00	-58.928	161.395	
12.00	-59.561	163.106	
13.00	-57.678	155.832	
14.00	-57.738	154.935	
15.00	-56.470	158.896	
16.00	-57.349	161.142	
17.00	-55.995	156.456	
18.00	-57.668	167.707	
19.00	-56.859	172.624	
20.00	-58.017	178.361	
21.00	-57.597	-173.183	
22.00	-57.026	-166.878	
23.00	-57.969	-147.300	
24.00	-58.596	-138.733	
25.00	-58.158	-117.493	
26.00	-58.412	-101.071	
27.00	-58.046	-84.198	
28.00	-57.155	-78.216	
29.00	-55.643	-61.150	
30.00	-55.495	-49.756	
31.00	-55.609	-33.075	
32.00	-54.925	-28.077	
33.00	-55.025	-16.543	
34.00	-55.239	-2.018	
35.00	-54.946	10.568	
36.00	-54.799	25.929	
37.00	-54.737	35.174	
38.00	-54.533	52.794	
39.00	-54.753	67.202	
40.00	-53.810	75.968	
41.00	-55.157	94.569	
42.00	-54.571	104.629	
43.00	-54.273	126.582	
44.00	-54.340	140.622	
45.00	-54.223	152.158	
46.00	-53.857	165.911	
47.00	-54.525	-178.302	
48.00	-54.193	-157.733	
49.00	-53.493	-146.279	
50.00	-53.810	-132.072	
51.00	-54.346	-120.466	
52.00	-54.620	-98.495	
53.00	-55.279	-74.143	
54.00	-53.949	-61.164	
55.00	-54.187	-49.109	
56.00	-54.991	-23.465	
57.00	-54.502	-19.483	
58.00	-55.269	1.288	
59.00	-55.847	19.996	
60.00	-56.386	40.678	
61.00	-56.760	53.726	
62.00	-56.254	82.770	
63.00	-56.891	107.851	
64.00	-55.402	128.784	
65.00	-55.284	143.756	
66.00	-55.189	159.713	
67.00	-54.614	172.991	
68.00	-54.093	-167.663	
69.00	-54.320	-155.265	
70.00	-53.693	-143.069	
71.00	-54.511	-132.499	
72.00	-55.051	-121.038	
73.00	-56.488	-107.401	
74.00	-57.520	-91.879	
75.00	-59.512	-68.550	
76.00	-61.609	-43.688	
77.00	-62.097	-8.755	
78.00	-59.115	15.515	
79.00	-59.832	36.380	
80.00	-56.031	63.828	
81.00	-57.614	85.111	
82.00	-56.680	96.098	
83.00	-56.774	112.920	
84.00	-57.716	118.652	
85.00	-58.412	144.340	
86.00	-58.225	145.562	
87.00	-58.176	-175.050	
88.00	-58.598	-158.385	
89.00	-54.986	-140.554	
90.00	-57.947	-116.581	
91.00	-57.275	-90.474	
92.00	-57.053	-64.965	
93.00	-57.628	-52.635	
94.00	-56.789	-34.528	
95.00	-56.320	-18.982	
96.00	-56.450	-2.070	
97.00	-55.725	17.975	
98.00	-54.547	40.270	
99.00	-54.072	62.456	
100.00	-53.887	83.257	
101.00	-52.801	97.536	
102.00	-54.832	109.293	
103.00	-52.654	133.364	
104.00	-51.830	147.155	
105.00	-52.398	160.922	
106.00	-52.639	167.357	
107.00	-50.393	-171.568	
108.00	-51.698	-163.696	
109.00	-50.989	-143.605	
110.00	-50.071	-129.982	
111.00	-51.949	-114.445	
112.00	-50.629	-103.729	
113.00	-52.138	-85.215	
114.00	-53.472	-66.343	
115.00	-51.292	-54.696	
116.00	-52.120	-46.765	
117.00	-52.194	-17.237	
118.00	-52.378	-3.780	
119.00	-52.251	4.045	
120.00	-51.816	18.057	
121.00	-51.532	47.925	
122.00	-51.691	48.277	
123.00	-51.182	63.672	
124.00	-50.591	76.284	
125.00	-50.415	93.328	
126.00	-49.753	101.377	
127.00	-49.014	112.225	
128.00	-49.698	126.907	
129.00	-49.995	137.078	
130.00	-49.949	147.063	
131.00	-49.381	160.433	
132.00	-49.300	170.051	
133.00	-49.912	177.468	
134.00	-50.146	-168.174	
135.00	-50.399	-161.265	
136.00	-50.486	-148.475	
137.00	-50.904	-134.317	
138.00	-50.520	-121.016	
139.00	-50.657	-108.593	
140.00	-50.296	-93.654	
141.00	-49.819	-81.413	
142.00	-49.187	-70.341	
143.00	-48.528	-54.817	
144.00	-47.435	-51.049	
145.00	-47.015	-37.929	
146.00	-46.357	-32.669	
147.00	-45.846	-16.279	
148.00	-45.708	-16.145	
149.00	-45.472	-4.334	
150.00	-45.161	-4.097	
151.00	-45.304	9.768	
152.00	-45.215	13.618	
153.00	-44.700	20.714	
154.00	-45.396	29.818	
155.00	-45.744	35.542	
156.00	-45.197	45.476	
157.00	-45.315	54.200	
158.00	-45.232	56.265	
159.00	-45.218	65.791	
160.00	-45.235	76.626	
161.00	-45.351	77.466	
162.00	-45.226	88.554	
163.00	-44.974	90.097	
164.00	-44.831	102.200	
165.00	-44.809	104.649	
166.00	-44.734	112.258	
167.00	-44.661	115.992	
168.00	-44.524	120.002	
169.00	-44.283	126.271	
170.00	-44.476	125.957	
171.00	-44.385	131.139	
172.00	-44.335	128.341	
173.00	-44.296	137.126	
174.00	-44.307	134.979	
175.00	-44.328	139.255	
176.00	-44.511	134.852	
177.00	-44.250	139.293	
178.00	-44.510	134.214	
179.00	-44.448	138.029	
180.00	-45.175	131.846	
181.00	-44.505	131.901	
182.00	-44.721	131.103	
183.00	-44.816	126.931	
184.00	-44.848	125.834	
185.00	-44.959	118.625	
186.00	-45.188	115.784	
187.00	-45.205	109.528	
188.00	-45.233	107.906	
189.00	-45.335	99.583	
190.00	-45.314	98.213	
191.00	-45.215	88.541	
192.00	-45.346	84.770	
193.00	-45.657	77.192	
194.00	-45.682	71.606	
195.00	-45.530	62.132	
196.00	-45.515	56.983	
197.00	-45.540	48.591	
198.00	-45.405	42.395	
199.00	-45.383	34.016	
200.00	-45.310	24.965	
201.00	-45.352	18.449	
202.00	-45.232	5.227	
203.00	-45.401	0.259	
204.00	-45.313	-11.448	
205.00	-45.265	-18.137	
206.00	-45.077	-29.001	
207.00	-45.457	-41.054	
208.00	-45.583	-43.422	
209.00	-45.849	-59.425	
210.00	-45.899	-65.870	
211.00	-45.987	-75.476	
212.00	-46.363	-88.186	
213.00	-46.508	-100.015	
214.00	-46.864	-111.970	
215.00	-46.768	-122.243	
216.00	-47.252	-133.842	
217.00	-47.672	-143.590	
218.00	-48.168	-157.422	
219.00	-48.568	-169.904	
220.00	-48.771	-178.579	
221.00	-49.387	166.805	
222.00	-49.545	156.498	
223.00	-49.968	143.061	
224.00	-50.482	129.306	
225.00	-51.027	118.431	
226.00	-51.368	102.643	
227.00	-51.717	90.116	
228.00	-52.245	76.388	
229.00	-53.001	63.649	
230.00	-53.402	50.100	
231.00	-54.393	36.408	
232.00	-54.847	18.021	
233.00	-55.881	7.611	
234.00	-56.818	-11.841	
235.00	-57.694	-25.625	
236.00	-58.308	-46.564	
237.00	-59.219	-62.706	
238.00	-59.791	-80.058	
239.00	-60.645	-88.138	
240.00	-61.759	-110.560	
241.00	-63.251	-129.585	
242.00	-64.097	-149.293	
243.00	-68.087	-174.772	
244.00	-63.392	142.919	
245.00	-65.340	113.677	
246.00	-64.538	109.732	
247.00	-65.790	62.971	
248.00	-62.195	72.367	
249.00	-60.945	49.612	
250.00	-62.606	39.496	
251.00	-61.491	34.549	
252.00	-62.522	27.874	
253.00	-60.351	7.113	
254.00	-61.341	7.216	
255.00	-63.197	-4.085	
256.00	-63.702	-19.600	
257.00	-65.207	-31.813	
258.00	-66.965	-49.468	
259.00	-65.922	-54.913	
260.00	-68.208	-70.516	
261.00	-67.232	-97.042	
262.00	-67.523	-103.769	
263.00	-67.092	-116.617	
264.00	-67.443	-138.777	
265.00	-66.804	-142.649	
266.00	-65.184	-152.236	
267.00	-64.803	-153.885	
268.00	-63.856	-166.951	
269.00	-63.597	-164.437	
270.00	-62.091	-170.891	
271.00	-61.301	179.397	
272.00	-60.660	175.940	
273.00	-59.859	170.279	
274.00	-59.747	161.857	
275.00	-59.627	158.101	
276.00	-59.382	150.807	
277.00	-59.657	145.229	
278.00	-60.247	136.039	
279.00	-61.224	132.233	
280.00	-61.097	125.682	
281.00	-64.477	115.798	
282.00	-66.858	108.384	
283.00	-70.563	94.132	
284.00	-72.896	57.107	
285.00	-73.804	-57.270	
286.00	-72.195	-72.545	
287.00	-67.501	-92.317	
288.00	-64.744	-115.113	
289.00	-61.364	-124.076	
290.00	-60.189	-137.279	
291.00	-58.811	-156.606	
292.00	-58.405	-152.707	
293.00	-58.282	-159.909	
294.00	-58.581	-170.740	
295.00	-58.118	-176.288	
296.00	-59.498	174.230	
297.00	-60.684	153.699	
298.00	-62.271	148.408	
299.00	-63.702	126.844	
300.00	-67.954	102.611	
301.00	-70.976	46.231	
302.00	-67.438	14.022	
303.00	-63.521	-33.655	
304.00	-60.816	-51.708	
305.00	-58.445	-66.505	
306.00	-57.171	-77.650	
307.00	-55.491	-85.627	
308.00	-54.429	-93.498	
309.00	-53.627	-97.690	
310.00	-53.588	-107.768	
311.00	-53.494	-115.661	
312.00	-53.258	-126.774	
313.00	-53.665	-133.369	
314.00	-53.890	-141.590	
315.00	-54.729	-149.181	
316.00	-55.433	-157.153	
317.00	-56.703	-166.986	
318.00	-58.161	-167.722	
319.00	-59.439	173.886	
320.00	-61.028	157.011	
321.00	-63.010	130.738	
322.00	-64.204	110.452	
323.00	-64.794	83.274	
324.00	-63.574	63.591	
325.00	-61.891	48.378	
326.00	-61.860	36.696	
327.00	-60.330	26.503	
328.00	-61.776	24.438	
329.00	-60.596	7.760	
330.00	-61.376	-0.536	
331.00	-61.793	-11.410	
332.00	-63.260	-10.638	
333.00	-63.432	-34.068	
334.00	-64.358	-29.780	
335.00	-66.657	-48.674	
336.00	-67.610	-46.982	
337.00	-66.834	-51.077	
338.00	-68.133	-61.343	
339.00	-67.389	-71.278	
340.00	-70.039	-56.945	
341.00	-68.056	-70.708	
342.00	-68.361	-82.999	
343.00	-69.566	-80.286	
344.00	-66.719	-70.702	
345.00	-66.158	-64.312	
346.00	-66.744	-69.453	
347.00	-66.507	-68.861	
348.00	-67.183	-70.785	
349.00	-66.571	-66.254	
350.00	-64.976	-64.546	
351.00	-63.080	-76.881	
352.00	-64.209	-80.085	
353.00	-64.726	-81.924	
354.00	-66.154	-82.914	
355.00	-65.777	-77.169	
356.00	-66.781	-89.027	
357.00	-64.109	-96.550	
358.00	-65.163	-94.233	
359.00	-67.687	-85.195	
Frequency	2170.00	MHz	
Channel	test		
Scan Axis name	Azimuth  [deg]		
Scan Axis	Amplitude	Phase	
			
0.00	-63.059	30.868	
1.00	-62.766	43.157	
2.00	-68.195	19.933	
3.00	-74.443	27.910	
4.00	-81.232	-14.215	
5.00	-81.188	-117.509	
6.00	-65.493	-123.369	
7.00	-64.586	-131.784	
8.00	-63.302	-114.050	
9.00	-59.227	-124.942	
10.00	-57.675	-124.860	
11.00	-58.685	-109.864	
12.00	-55.368	-101.976	
13.00	-55.423	-98.145	
14.00	-55.172	-100.906	
15.00	-54.701	-93.922	
16.00	-53.809	-89.431	
17.00	-53.201	-81.655	
18.00	-52.711	-72.789	
19.00	-52.888	-71.088	
20.00	-53.115	-59.951	
21.00	-53.838	-56.703	
22.00	-54.164	-43.828	
23.00	-54.464	-41.546	
24.00	-54.808	-29.786	
25.00	-55.563	-13.805	
26.00	-56.528	-1.402	
27.00	-57.320	13.804	
28.00	-57.666	33.993	
29.00	-57.746	63.421	
30.00	-57.294	77.460	
31.00	-56.438	98.338	
32.00	-55.749	106.558	
33.00	-55.165	120.035	
34.00	-54.867	129.742	
35.00	-55.750	142.252	
36.00	-55.519	151.949	
37.00	-56.379	158.541	
38.00	-57.871	174.448	
39.00	-58.896	-172.417	
40.00	-62.057	-150.228	
41.00	-63.408	-125.285	
42.00	-64.747	-95.775	
43.00	-62.203	-55.285	
44.00	-60.131	-34.528	
45.00	-57.399	-18.478	
46.00	-57.349	-2.130	
47.00	-56.431	11.439	
48.00	-56.758	26.502	
49.00	-56.953	46.030	
50.00	-56.622	55.380	
51.00	-56.703	80.153	
52.00	-56.527	91.099	
53.00	-56.302	109.678	
54.00	-56.801	133.217	
55.00	-57.195	147.744	
56.00	-57.841	166.194	
57.00	-57.610	-173.560	
58.00	-58.274	-154.508	
59.00	-58.283	-135.359	
60.00	-58.353	-107.185	
61.00	-58.292	-86.932	
62.00	-56.951	-55.702	
63.00	-56.130	-38.420	
64.00	-55.308	-18.897	
65.00	-55.145	0.887	
66.00	-53.879	13.534	
67.00	-53.463	30.728	
68.00	-53.705	45.669	
69.00	-53.234	59.201	
70.00	-53.924	77.539	
71.00	-53.221	93.109	
72.00	-54.837	107.261	
73.00	-54.267	124.827	
74.00	-54.210	143.094	
75.00	-54.586	155.705	
76.00	-54.679	177.345	
77.00	-55.228	-164.942	
78.00	-56.488	-146.154	
79.00	-56.648	-123.812	
80.00	-58.642	-97.372	
81.00	-56.481	-77.517	
82.00	-56.898	-63.567	
83.00	-55.469	-38.666	
84.00	-55.374	-24.962	
85.00	-55.512	-7.830	
86.00	-55.940	13.584	
87.00	-54.478	45.990	
88.00	-53.397	53.386	
89.00	-54.235	69.638	
90.00	-54.643	92.662	
91.00	-55.031	101.562	
92.00	-54.227	127.289	
93.00	-53.495	147.941	
94.00	-54.692	168.641	
95.00	-53.408	-177.588	
96.00	-55.230	-160.994	
97.00	-55.484	-136.705	
98.00	-54.193	-113.016	
99.00	-53.285	-90.927	
100.00	-53.925	-70.151	
101.00	-53.020	-50.166	
102.00	-53.532	-26.852	
103.00	-52.807	-4.966	
104.00	-52.650	9.046	
105.00	-52.615	27.186	
106.00	-51.846	42.489	
107.00	-51.285	59.973	
108.00	-51.018	76.519	
109.00	-50.905	91.223	
110.00	-50.316	110.181	
111.00	-50.556	128.347	
112.00	-50.687	139.584	
113.00	-50.510	161.207	
114.00	-50.617	166.938	
115.00	-50.765	-170.144	
116.00	-49.826	-148.804	
117.00	-50.197	-133.881	
118.00	-49.749	-117.864	
119.00	-50.207	-101.667	
120.00	-50.039	-88.954	
121.00	-49.575	-73.432	
122.00	-49.934	-60.633	
123.00	-49.781	-42.709	
124.00	-49.647	-29.434	
125.00	-49.903	-5.236	
126.00	-49.083	0.742	
127.00	-49.046	20.792	
128.00	-48.981	34.566	
129.00	-48.650	48.781	
130.00	-48.398	62.583	
131.00	-47.782	77.838	
132.00	-47.513	88.621	
133.00	-46.781	101.425	
134.00	-46.651	111.093	
135.00	-46.432	118.150	
136.00	-45.986	128.217	
137.00	-45.537	133.904	
138.00	-45.659	144.815	
139.00	-45.540	152.857	
140.00	-45.297	159.732	
141.00	-45.323	167.016	
142.00	-45.215	178.919	
143.00	-45.307	-170.249	
144.00	-45.371	-167.561	
145.00	-45.041	-154.166	
146.00	-44.884	-146.001	
147.00	-44.913	-128.592	
148.00	-44.418	-129.483	
149.00	-44.173	-115.895	
150.00	-43.950	-113.163	
151.00	-43.609	-100.069	
152.00	-43.270	-93.829	
153.00	-43.028	-92.940	
154.00	-42.398	-81.573	
155.00	-42.055	-76.109	
156.00	-41.612	-69.514	
157.00	-41.698	-62.851	
158.00	-41.386	-60.999	
159.00	-41.226	-57.195	
160.00	-41.116	-48.348	
161.00	-40.944	-49.703	
162.00	-40.903	-41.826	
163.00	-40.904	-42.040	
164.00	-40.925	-33.179	
165.00	-40.941	-30.587	
166.00	-40.945	-23.080	
167.00	-40.975	-21.885	
168.00	-40.958	-17.595	
169.00	-41.002	-12.577	
170.00	-41.070	-14.541	
171.00	-41.125	-9.479	
172.00	-41.104	-13.361	
173.00	-41.135	-3.480	
174.00	-41.149	-8.097	
175.00	-41.325	-1.989	
176.00	-41.242	-7.762	
177.00	-41.410	-4.239	
178.00	-41.519	-8.183	
179.00	-41.729	-5.697	
180.00	-41.805	-9.671	
181.00	-42.141	-10.586	
182.00	-42.227	-10.653	
183.00	-42.412	-15.135	
184.00	-42.525	-15.073	
185.00	-42.745	-22.566	
186.00	-43.038	-24.708	
187.00	-43.362	-30.352	
188.00	-43.480	-32.324	
189.00	-43.737	-40.733	
190.00	-43.954	-42.035	
191.00	-43.992	-51.067	
192.00	-44.395	-54.485	
193.00	-44.288	-61.653	
194.00	-44.428	-67.423	
195.00	-44.472	-73.459	
196.00	-44.751	-80.549	
197.00	-44.901	-88.765	
198.00	-45.032	-94.677	
199.00	-45.222	-102.162	
200.00	-45.249	-112.010	
201.00	-45.521	-117.533	
202.00	-45.661	-129.311	
203.00	-46.016	-135.156	
204.00	-46.178	-147.468	
205.00	-46.592	-154.047	
206.00	-46.481	-166.105	
207.00	-46.660	-175.986	
208.00	-47.200	175.467	
209.00	-47.585	161.654	
210.00	-47.725	153.405	
211.00	-48.212	144.347	
212.00	-48.406	130.495	
213.00	-48.544	117.545	
214.00	-49.200	107.180	
215.00	-49.698	94.653	
216.00	-49.932	86.681	
217.00	-50.287	77.062	
218.00	-50.901	62.089	
219.00	-52.130	50.048	
220.00	-52.361	43.948	
221.00	-53.018	31.807	
222.00	-54.677	17.268	
223.00	-56.186	4.235	
224.00	-57.653	-8.492	
225.00	-57.798	-12.057	
226.00	-61.930	-29.832	
227.00	-63.784	-58.543	
228.00	-64.693	-74.856	
229.00	-68.182	-121.232	
230.00	-66.369	-159.448	
231.00	-66.654	-178.600	
232.00	-64.168	156.846	
233.00	-63.574	143.887	
234.00	-65.561	135.847	
235.00	-62.222	129.708	
236.00	-64.720	111.943	
237.00	-66.743	98.286	
238.00	-68.959	129.479	
239.00	-77.250	160.606	
240.00	-89.643	41.617	
241.00	-74.664	-78.638	
242.00	-69.087	-118.087	
243.00	-63.858	-135.890	
244.00	-63.246	-133.087	
245.00	-62.885	-143.586	
246.00	-61.722	-154.342	
247.00	-62.355	-152.748	
248.00	-60.247	-156.168	
249.00	-59.649	-166.115	
250.00	-63.526	-159.426	
251.00	-65.553	-152.802	
252.00	-66.968	-139.586	
253.00	-70.011	-152.834	
254.00	-72.325	-105.451	
255.00	-69.762	-113.842	
256.00	-76.991	-87.306	
257.00	-71.321	-58.310	
258.00	-65.028	-74.624	
259.00	-68.359	-71.821	
260.00	-67.441	-77.280	
261.00	-66.604	-70.785	
262.00	-69.543	-81.780	
263.00	-68.438	-65.312	
264.00	-71.965	-83.571	
265.00	-70.771	-111.984	
266.00	-68.891	-106.977	
267.00	-69.444	-121.742	
268.00	-85.739	168.107	
269.00	-84.265	179.135	
270.00	-75.329	174.942	
271.00	-76.507	90.788	
272.00	-77.062	79.279	
273.00	-73.691	46.234	
274.00	-70.453	34.298	
275.00	-69.256	-7.735	
276.00	-68.537	4.316	
277.00	-66.939	-3.050	
278.00	-65.480	-37.266	
279.00	-64.955	-48.353	
280.00	-63.585	-69.798	
281.00	-63.197	-84.975	
282.00	-64.285	-95.886	
283.00	-63.165	-115.211	
284.00	-63.838	-133.775	
285.00	-61.901	-159.912	
286.00	-60.856	-177.980	
287.00	-62.654	165.447	
288.00	-60.775	157.324	
289.00	-60.349	137.125	
290.00	-60.497	128.146	
291.00	-63.356	96.239	
292.00	-61.742	97.618	
293.00	-62.386	70.381	
294.00	-61.564	51.612	
295.00	-61.696	29.097	
296.00	-62.867	19.900	
297.00	-63.336	-10.554	
298.00	-64.466	-22.374	
299.00	-62.107	-44.572	
300.00	-62.100	-74.529	
301.00	-61.693	-101.342	
302.00	-60.242	-117.845	
303.00	-59.787	-131.650	
304.00	-58.914	-150.138	
305.00	-57.864	-158.773	
306.00	-58.899	-161.745	
307.00	-57.865	-169.987	
308.00	-57.050	179.256	
309.00	-57.416	176.777	
310.00	-58.327	171.470	
311.00	-58.421	168.397	
312.00	-58.781	158.741	
313.00	-58.692	157.328	
314.00	-59.761	151.012	
315.00	-60.041	150.120	
316.00	-60.071	148.821	
317.00	-59.050	154.196	
318.00	-59.832	148.349	
319.00	-59.495	148.089	
320.00	-59.293	145.807	
321.00	-58.760	141.095	
322.00	-57.390	136.808	
323.00	-57.974	131.284	
324.00	-57.636	122.190	
325.00	-57.719	115.955	
326.00	-58.047	113.942	
327.00	-58.032	105.431	
328.00	-58.521	102.749	
329.00	-58.801	95.587	
330.00	-60.305	89.894	
331.00	-60.467	87.823	
332.00	-62.929	75.388	
333.00	-65.042	72.060	
334.00	-64.541	66.556	
335.00	-66.649	60.740	
336.00	-69.283	49.879	
337.00	-70.527	30.366	
338.00	-76.133	-25.761	
339.00	-70.279	-62.970	
340.00	-71.203	-60.985	
341.00	-68.278	-85.794	
342.00	-68.845	-65.006	
343.00	-68.455	-93.451	
344.00	-72.738	-55.222	
345.00	-72.232	-41.896	
346.00	-68.132	-0.165	
347.00	-75.555	13.061	
348.00	-64.663	-1.069	
349.00	-63.517	26.732	
350.00	-62.874	25.353	
351.00	-61.600	18.305	
352.00	-60.386	29.664	
353.00	-58.885	26.251	
354.00	-58.983	28.730	
355.00	-59.771	25.980	
356.00	-58.838	23.452	
357.00	-59.669	27.512	
358.00	-60.207	40.576	
359.00	-59.991	33.663	
Frequency	2300.00	MHz	
Channel	test		
Scan Axis name	Azimuth  [deg]		
Scan Axis	Amplitude	Phase	
			
0.00	-70.738	-5.983	
1.00	-73.462	-22.666	
2.00	-79.473	-101.159	
3.00	-77.022	161.518	
4.00	-69.125	174.666	
5.00	-69.650	178.978	
6.00	-66.298	-164.586	
7.00	-62.585	-167.106	
8.00	-62.032	-160.112	
9.00	-62.062	-153.770	
10.00	-62.039	-142.719	
11.00	-59.758	-142.817	
12.00	-61.253	-128.186	
13.00	-59.820	-125.941	
14.00	-59.613	-115.808	
15.00	-58.998	-109.926	
16.00	-59.344	-97.482	
17.00	-57.649	-96.019	
18.00	-58.080	-72.531	
19.00	-56.538	-71.011	
20.00	-56.501	-57.327	
21.00	-55.749	-52.285	
22.00	-54.977	-38.842	
23.00	-54.768	-31.664	
24.00	-54.868	-27.320	
25.00	-54.866	-11.805	
26.00	-54.367	-2.894	
27.00	-54.144	8.052	
28.00	-54.562	15.259	
29.00	-54.352	30.180	
30.00	-54.683	37.682	
31.00	-55.292	48.091	
32.00	-54.983	55.296	
33.00	-55.718	65.758	
34.00	-56.853	68.831	
35.00	-58.635	82.975	
36.00	-60.398	100.557	
37.00	-63.462	102.763	
38.00	-67.501	114.233	
39.00	-69.573	-175.817	
40.00	-71.155	-127.922	
41.00	-67.744	-97.627	
42.00	-61.542	-93.608	
43.00	-60.028	-68.109	
44.00	-59.004	-65.135	
45.00	-59.301	-62.890	
46.00	-58.468	-46.826	
47.00	-58.249	-34.353	
48.00	-57.975	-19.925	
49.00	-59.060	-13.379	
50.00	-60.906	5.147	
51.00	-61.556	24.875	
52.00	-62.784	47.351	
53.00	-64.378	65.982	
54.00	-62.791	79.160	
55.00	-59.651	100.237	
56.00	-60.762	110.146	
57.00	-59.663	119.752	
58.00	-60.503	138.375	
59.00	-62.844	138.208	
60.00	-61.581	155.064	
61.00	-62.765	163.759	
62.00	-69.679	169.243	
63.00	-68.761	161.303	
64.00	-72.993	77.009	
65.00	-73.758	-14.293	
66.00	-78.434	28.019	
67.00	-68.731	14.608	
68.00	-66.689	30.889	
69.00	-67.934	25.288	
70.00	-64.480	1.307	
71.00	-67.025	8.279	
72.00	-62.742	17.071	
73.00	-67.885	-11.044	
74.00	-68.122	12.728	
75.00	-64.751	4.543	
76.00	-64.139	-3.817	
77.00	-59.462	4.199	
78.00	-62.076	16.387	
79.00	-63.747	14.930	
80.00	-69.406	44.988	
81.00	-73.399	45.405	
82.00	-77.754	-41.698	
83.00	-65.625	65.484	
84.00	-64.654	73.069	
85.00	-68.702	50.528	
86.00	-70.662	67.072	
87.00	-68.620	153.159	
88.00	-73.941	154.286	
89.00	-70.298	167.664	
90.00	-71.046	171.989	
91.00	-63.736	-171.256	
92.00	-66.267	-108.139	
93.00	-66.831	-108.064	
94.00	-67.800	-35.799	
95.00	-64.764	-88.451	
96.00	-62.442	-73.525	
97.00	-60.306	-64.718	
98.00	-61.255	-65.195	
99.00	-59.386	-63.038	
100.00	-60.318	-50.557	
101.00	-61.687	-13.312	
102.00	-67.004	-40.520	
103.00	-65.700	28.432	
104.00	-65.551	95.558	
105.00	-63.281	102.357	
106.00	-64.056	130.094	
107.00	-61.126	139.519	
108.00	-60.561	-167.470	
109.00	-55.766	174.635	
110.00	-56.395	-167.161	
111.00	-54.411	-150.889	
112.00	-53.992	-138.957	
113.00	-52.522	-115.972	
114.00	-53.666	-119.116	
115.00	-52.183	-97.803	
116.00	-51.213	-79.879	
117.00	-50.049	-57.063	
118.00	-51.109	-54.597	
119.00	-50.571	-38.938	
120.00	-49.640	-31.150	
121.00	-50.702	-11.643	
122.00	-49.285	-3.814	
123.00	-50.664	10.371	
124.00	-49.514	17.903	
125.00	-50.620	37.512	
126.00	-50.922	48.541	
127.00	-50.279	65.648	
128.00	-51.124	76.609	
129.00	-51.057	95.767	
130.00	-50.807	102.714	
131.00	-51.148	125.707	
132.00	-51.202	139.104	
133.00	-51.762	157.251	
134.00	-50.572	161.944	
135.00	-50.907	173.064	
136.00	-49.824	-170.933	
137.00	-50.194	-164.982	
138.00	-49.579	-157.373	
139.00	-49.669	-147.800	
140.00	-49.382	-145.031	
141.00	-48.781	-130.879	
142.00	-49.048	-120.908	
143.00	-48.024	-112.614	
144.00	-48.297	-107.160	
145.00	-48.011	-94.802	
146.00	-47.500	-91.374	
147.00	-47.221	-74.366	
148.00	-46.946	-75.047	
149.00	-46.269	-59.951	
150.00	-46.325	-58.895	
151.00	-46.142	-44.908	
152.00	-45.606	-40.335	
153.00	-45.494	-35.425	
154.00	-45.113	-26.110	
155.00	-44.348	-21.155	
156.00	-44.474	-11.766	
157.00	-44.398	-2.145	
158.00	-43.928	-0.266	
159.00	-43.895	5.996	
160.00	-43.885	16.133	
161.00	-43.591	15.982	
162.00	-43.580	26.611	
163.00	-43.508	27.158	
164.00	-43.451	37.874	
165.00	-43.186	41.281	
166.00	-43.272	48.023	
167.00	-43.257	52.062	
168.00	-43.180	56.765	
169.00	-43.118	62.821	
170.00	-43.141	61.433	
171.00	-43.158	66.250	
172.00	-43.153	61.488	
173.00	-43.234	71.581	
174.00	-43.293	67.864	
175.00	-43.448	72.432	
176.00	-43.526	67.267	
177.00	-43.675	69.378	
178.00	-43.782	65.267	
179.00	-43.801	67.179	
180.00	-44.036	62.572	
181.00	-43.974	60.625	
182.00	-44.411	60.498	
183.00	-44.258	53.772	
184.00	-44.427	52.135	
185.00	-44.528	43.803	
186.00	-44.513	40.867	
187.00	-44.462	33.316	
188.00	-44.428	31.180	
189.00	-44.452	21.590	
190.00	-44.486	20.028	
191.00	-44.536	8.086	
192.00	-44.457	5.719	
193.00	-44.467	-1.874	
194.00	-44.521	-7.020	
195.00	-44.429	-16.163	
196.00	-44.322	-21.736	
197.00	-44.492	-30.166	
198.00	-44.511	-37.041	
199.00	-44.712	-45.251	
200.00	-44.679	-54.867	
201.00	-44.883	-62.006	
202.00	-44.841	-75.221	
203.00	-45.086	-80.785	
204.00	-45.231	-93.265	
205.00	-45.619	-100.769	
206.00	-45.770	-113.620	
207.00	-45.994	-123.125	
208.00	-46.369	-130.495	
209.00	-46.878	-146.194	
210.00	-47.075	-154.944	
211.00	-47.577	-165.667	
212.00	-47.935	179.550	
213.00	-48.591	166.771	
214.00	-49.067	150.220	
215.00	-49.525	140.692	
216.00	-50.157	124.349	
217.00	-50.472	109.890	
218.00	-51.443	91.010	
219.00	-51.897	75.995	
220.00	-52.135	62.006	
221.00	-52.500	45.739	
222.00	-52.893	28.201	
223.00	-53.568	11.015	
224.00	-54.104	-8.039	
225.00	-53.983	-22.091	
226.00	-54.742	-42.086	
227.00	-54.773	-59.612	
228.00	-55.053	-80.159	
229.00	-55.061	-97.346	
230.00	-55.363	-110.460	
231.00	-55.594	-125.865	
232.00	-56.243	-146.301	
233.00	-56.364	-155.403	
234.00	-57.149	-171.985	
235.00	-57.749	176.292	
236.00	-58.887	162.149	
237.00	-60.489	151.522	
238.00	-63.075	138.544	
239.00	-65.903	129.230	
240.00	-70.138	106.758	
241.00	-81.354	102.982	
242.00	-77.956	-120.957	
243.00	-71.160	-107.715	
244.00	-68.780	-134.867	
245.00	-65.482	-125.637	
246.00	-64.938	-147.543	
247.00	-62.493	-154.184	
248.00	-63.621	-168.206	
249.00	-62.998	163.817	
250.00	-63.514	157.232	
251.00	-63.587	128.853	
252.00	-64.044	117.283	
253.00	-63.194	90.868	
254.00	-62.202	68.458	
255.00	-61.703	53.810	
256.00	-60.660	32.589	
257.00	-59.813	19.947	
258.00	-59.967	8.251	
259.00	-59.721	-6.226	
260.00	-60.097	-18.531	
261.00	-59.800	-29.027	
262.00	-60.839	-44.346	
263.00	-61.487	-54.689	
264.00	-62.078	-68.809	
265.00	-62.539	-83.863	
266.00	-64.360	-102.055	
267.00	-65.473	-116.849	
268.00	-67.661	-144.888	
269.00	-67.154	-172.849	
270.00	-67.545	147.640	
271.00	-66.069	133.208	
272.00	-67.128	110.446	
273.00	-62.425	89.725	
274.00	-61.292	75.950	
275.00	-60.799	62.698	
276.00	-59.690	49.976	
277.00	-59.809	32.118	
278.00	-60.630	23.564	
279.00	-60.537	12.212	
280.00	-62.656	-9.840	
281.00	-62.993	-24.053	
282.00	-65.052	-47.965	
283.00	-69.192	-53.258	
284.00	-70.094	-96.394	
285.00	-70.739	-172.049	
286.00	-68.073	169.566	
287.00	-66.215	140.667	
288.00	-64.762	126.566	
289.00	-63.216	97.898	
290.00	-63.712	67.966	
291.00	-62.115	45.701	
292.00	-60.671	25.298	
293.00	-59.179	10.306	
294.00	-58.596	-11.284	
295.00	-58.258	-22.116	
296.00	-57.849	-35.895	
297.00	-57.289	-46.787	
298.00	-57.369	-63.798	
299.00	-58.401	-80.249	
300.00	-58.849	-92.645	
301.00	-59.923	-102.971	
302.00	-61.969	-121.560	
303.00	-64.795	-138.752	
304.00	-69.348	168.859	
305.00	-66.583	132.474	
306.00	-63.889	87.958	
307.00	-61.152	61.919	
308.00	-58.540	59.233	
309.00	-57.181	46.089	
310.00	-55.576	29.840	
311.00	-55.441	22.934	
312.00	-55.006	9.884	
313.00	-55.429	1.970	
314.00	-54.985	-5.761	
315.00	-55.197	-16.821	
316.00	-55.415	-28.454	
317.00	-57.016	-36.648	
318.00	-56.850	-42.638	
319.00	-57.386	-51.076	
320.00	-58.630	-62.929	
321.00	-60.355	-78.666	
322.00	-61.148	-83.394	
323.00	-63.815	-92.343	
324.00	-66.685	-87.286	
325.00	-74.774	-63.002	
326.00	-72.800	-31.008	
327.00	-71.560	-1.936	
328.00	-67.617	-25.027	
329.00	-65.243	-14.583	
330.00	-65.246	-10.940	
331.00	-62.782	-17.632	
332.00	-60.703	-18.510	
333.00	-58.582	-25.414	
334.00	-58.341	-33.611	
335.00	-57.669	-32.584	
336.00	-57.564	-28.984	
337.00	-57.695	-32.823	
338.00	-57.162	-34.123	
339.00	-56.781	-35.298	
340.00	-56.410	-37.128	
341.00	-56.846	-34.778	
342.00	-56.561	-34.215	
343.00	-55.712	-32.182	
344.00	-55.663	-28.397	
345.00	-56.410	-27.404	
346.00	-56.424	-24.486	
347.00	-57.395	-17.295	
348.00	-57.140	-19.551	
349.00	-57.343	-12.003	
350.00	-58.064	-2.455	
351.00	-58.702	-6.919	
352.00	-59.336	0.269	
353.00	-59.839	-1.707	
354.00	-59.812	3.538	
355.00	-61.700	8.815	
356.00	-63.716	9.966	
357.00	-65.311	-2.270	
358.00	-66.142	-1.978	
359.00	-67.483	-2.134	
Frequency	2350.00	MHz	
Channel	test		
Scan Axis name	Azimuth  [deg]		
Scan Axis	Amplitude	Phase	
			
0.00	-64.131	-176.938	
1.00	-64.193	179.900	
2.00	-64.034	179.571	
3.00	-64.364	177.979	
4.00	-65.725	-179.766	
5.00	-65.911	177.659	
6.00	-66.604	173.220	
7.00	-69.126	-168.820	
8.00	-71.284	-154.342	
9.00	-69.786	-151.020	
10.00	-72.428	-124.771	
11.00	-71.493	-90.327	
12.00	-71.978	-84.012	
13.00	-69.870	-46.582	
14.00	-68.075	-44.064	
15.00	-66.159	-26.034	
16.00	-66.312	-16.920	
17.00	-66.088	-8.376	
18.00	-63.696	12.190	
19.00	-64.056	29.903	
20.00	-61.778	36.595	
21.00	-61.574	42.923	
22.00	-60.343	61.808	
23.00	-60.322	62.864	
24.00	-59.046	72.113	
25.00	-59.800	77.762	
26.00	-59.184	82.859	
27.00	-59.978	89.506	
28.00	-60.806	100.128	
29.00	-62.420	109.374	
30.00	-64.550	124.847	
31.00	-68.615	138.184	
32.00	-70.877	149.224	
33.00	-72.388	-148.288	
34.00	-69.022	-104.928	
35.00	-66.511	-95.352	
36.00	-64.306	-67.358	
37.00	-62.439	-49.238	
38.00	-61.908	-44.968	
39.00	-62.154	-29.494	
40.00	-60.612	-14.675	
41.00	-61.213	-10.888	
42.00	-61.031	3.086	
43.00	-64.507	16.198	
44.00	-64.302	38.948	
45.00	-66.147	46.255	
46.00	-67.223	87.780	
47.00	-66.665	112.438	
48.00	-67.489	175.028	
49.00	-63.900	-179.337	
50.00	-63.970	-149.270	
51.00	-62.190	-142.593	
52.00	-61.412	-121.654	
53.00	-59.914	-109.482	
54.00	-58.029	-87.503	
55.00	-58.034	-77.089	
56.00	-58.504	-65.173	
57.00	-57.599	-57.287	
58.00	-58.640	-40.898	
59.00	-60.203	-22.265	
60.00	-59.404	2.194	
61.00	-60.516	9.543	
62.00	-59.318	31.294	
63.00	-60.181	50.851	
64.00	-60.059	68.548	
65.00	-61.064	94.053	
66.00	-62.158	96.697	
67.00	-64.868	115.280	
68.00	-65.369	141.042	
69.00	-63.048	145.138	
70.00	-67.141	-176.571	
71.00	-61.413	-143.300	
72.00	-65.192	-129.647	
73.00	-64.056	-114.811	
74.00	-61.780	-90.616	
75.00	-62.270	-68.316	
76.00	-61.159	-68.044	
77.00	-61.098	-55.853	
78.00	-61.269	-48.025	
79.00	-62.453	-29.747	
80.00	-61.969	-19.863	
81.00	-64.590	-20.111	
82.00	-67.119	-8.711	
83.00	-64.161	8.626	
84.00	-66.793	38.309	
85.00	-69.908	51.596	
86.00	-72.347	19.099	
87.00	-82.424	64.301	
88.00	-82.661	-146.016	
89.00	-71.470	-148.211	
90.00	-76.156	-115.702	
91.00	-65.775	-82.385	
92.00	-63.449	-73.009	
93.00	-62.257	-49.806	
94.00	-61.646	-41.052	
95.00	-60.301	-20.611	
96.00	-61.076	-16.799	
97.00	-59.106	8.597	
98.00	-59.851	33.509	
99.00	-58.291	41.721	
100.00	-57.234	56.273	
101.00	-59.831	79.580	
102.00	-57.966	92.481	
103.00	-58.260	111.000	
104.00	-58.864	128.039	
105.00	-61.110	149.828	
106.00	-61.178	-173.647	
107.00	-62.860	-147.442	
108.00	-61.945	-124.421	
109.00	-60.532	-86.989	
110.00	-57.433	-62.961	
111.00	-57.142	-47.194	
112.00	-55.599	-29.660	
113.00	-54.864	-3.318	
114.00	-53.703	9.962	
115.00	-53.350	25.931	
116.00	-52.758	43.080	
117.00	-52.720	58.609	
118.00	-51.995	69.351	
119.00	-51.697	91.008	
120.00	-51.709	97.659	
121.00	-51.437	117.449	
122.00	-51.577	126.879	
123.00	-51.177	148.389	
124.00	-51.717	159.768	
125.00	-51.743	-175.221	
126.00	-52.035	-162.011	
127.00	-51.838	-142.065	
128.00	-51.723	-121.731	
129.00	-51.517	-104.746	
130.00	-50.945	-88.589	
131.00	-50.660	-73.720	
132.00	-50.347	-56.953	
133.00	-49.941	-42.783	
134.00	-49.475	-29.345	
135.00	-49.300	-20.670	
136.00	-49.113	-8.491	
137.00	-48.603	1.802	
138.00	-48.412	15.811	
139.00	-48.210	24.257	
140.00	-48.196	32.083	
141.00	-48.006	43.448	
142.00	-47.899	54.585	
143.00	-47.859	67.110	
144.00	-47.824	71.708	
145.00	-47.715	83.949	
146.00	-47.651	90.748	
147.00	-47.708	107.827	
148.00	-47.534	107.431	
149.00	-47.536	120.878	
150.00	-47.259	122.048	
151.00	-47.235	134.687	
152.00	-46.892	141.997	
153.00	-46.698	144.844	
154.00	-46.420	155.703	
155.00	-45.947	159.853	
156.00	-45.780	166.038	
157.00	-45.490	174.403	
158.00	-45.274	176.508	
159.00	-44.959	-179.657	
160.00	-44.761	-169.597	
161.00	-44.472	-171.968	
162.00	-44.288	-163.405	
163.00	-44.023	-163.908	
164.00	-43.734	-154.893	
165.00	-43.645	-152.870	
166.00	-43.400	-147.091	
167.00	-43.230	-145.240	
168.00	-43.054	-142.473	
169.00	-42.839	-136.492	
170.00	-42.689	-140.310	
171.00	-42.592	-135.190	
172.00	-42.386	-141.984	
173.00	-42.263	-132.138	
174.00	-42.119	-137.168	
175.00	-42.091	-132.094	
176.00	-42.006	-139.127	
177.00	-41.937	-137.089	
178.00	-41.914	-141.303	
179.00	-41.889	-138.950	
180.00	-41.838	-142.934	
181.00	-41.881	-145.958	
182.00	-41.867	-145.049	
183.00	-41.838	-151.386	
184.00	-41.876	-151.818	
185.00	-41.888	-160.193	
186.00	-41.988	-162.400	
187.00	-42.070	-169.085	
188.00	-42.200	-171.391	
189.00	-42.360	-179.534	
190.00	-42.423	178.873	
191.00	-42.612	167.815	
192.00	-42.826	165.134	
193.00	-42.992	158.106	
194.00	-43.229	152.038	
195.00	-43.413	142.522	
196.00	-43.725	135.761	
197.00	-43.945	127.378	
198.00	-44.198	119.943	
199.00	-44.503	111.828	
200.00	-44.783	100.007	
201.00	-45.087	92.803	
202.00	-45.349	78.509	
203.00	-45.712	71.952	
204.00	-46.013	58.496	
205.00	-46.337	49.645	
206.00	-46.691	37.084	
207.00	-47.090	25.238	
208.00	-47.340	17.821	
209.00	-47.707	1.002	
210.00	-48.047	-8.099	
211.00	-48.537	-20.803	
212.00	-49.021	-35.495	
213.00	-49.625	-48.516	
214.00	-50.080	-64.336	
215.00	-50.665	-76.754	
216.00	-51.292	-91.334	
217.00	-51.681	-104.995	
218.00	-52.315	-123.124	
219.00	-52.952	-137.928	
220.00	-53.500	-151.687	
221.00	-54.223	-167.686	
222.00	-55.114	176.094	
223.00	-55.944	158.113	
224.00	-56.608	137.413	
225.00	-57.549	122.076	
226.00	-58.133	100.530	
227.00	-58.594	81.381	
228.00	-59.052	62.212	
229.00	-59.547	45.697	
230.00	-60.259	24.431	
231.00	-61.580	9.406	
232.00	-62.618	-14.784	
233.00	-64.225	-34.971	
234.00	-66.423	-64.960	
235.00	-67.105	-101.760	
236.00	-66.135	-138.070	
237.00	-65.260	-168.292	
238.00	-63.921	170.498	
239.00	-62.695	152.910	
240.00	-63.010	131.509	
241.00	-62.623	111.464	
242.00	-62.418	96.647	
243.00	-62.600	68.990	
244.00	-63.451	61.037	
245.00	-63.463	30.356	
246.00	-63.532	13.886	
247.00	-63.567	-9.325	
248.00	-63.668	-43.488	
249.00	-65.151	-48.130	
250.00	-64.409	-65.187	
251.00	-63.772	-88.592	
252.00	-63.645	-101.944	
253.00	-63.545	-115.245	
254.00	-63.208	-131.312	
255.00	-63.701	-143.391	
256.00	-63.642	-159.073	
257.00	-64.668	-167.591	
258.00	-65.136	-174.768	
259.00	-66.510	165.644	
260.00	-67.610	158.952	
261.00	-69.117	137.814	
262.00	-69.398	126.387	
263.00	-70.529	105.866	
264.00	-69.975	87.231	
265.00	-70.062	81.383	
266.00	-72.635	61.310	
267.00	-74.190	32.154	
268.00	-72.468	18.805	
269.00	-73.150	-5.530	
270.00	-71.001	-23.884	
271.00	-73.534	-55.325	
272.00	-73.640	-61.202	
273.00	-75.607	-73.927	
274.00	-75.213	-101.312	
275.00	-79.482	-135.933	
276.00	-80.990	132.135	
277.00	-75.145	57.114	
278.00	-69.965	52.258	
279.00	-66.843	48.522	
280.00	-65.035	31.229	
281.00	-64.049	18.263	
282.00	-63.007	4.654	
283.00	-62.838	-5.720	
284.00	-63.628	-26.388	
285.00	-64.249	-50.046	
286.00	-65.538	-85.576	
287.00	-65.481	-108.370	
288.00	-64.964	-145.759	
289.00	-64.049	-176.370	
290.00	-62.503	163.983	
291.00	-60.408	137.005	
292.00	-58.499	129.559	
293.00	-57.455	111.314	
294.00	-56.650	97.153	
295.00	-56.582	78.655	
296.00	-56.582	67.060	
297.00	-56.400	53.288	
298.00	-56.433	42.079	
299.00	-57.564	27.613	
300.00	-57.810	14.386	
301.00	-58.709	-4.638	
302.00	-59.873	-23.330	
303.00	-61.673	-48.595	
304.00	-63.120	-81.335	
305.00	-62.714	-117.504	
306.00	-61.359	-144.530	
307.00	-59.488	-166.339	
308.00	-59.134	175.609	
309.00	-58.285	163.375	
310.00	-57.151	148.930	
311.00	-56.820	131.302	
312.00	-56.538	119.708	
313.00	-56.817	103.100	
314.00	-57.469	95.546	
315.00	-57.536	77.922	
316.00	-58.281	62.788	
317.00	-58.826	46.983	
318.00	-58.455	33.184	
319.00	-58.683	23.544	
320.00	-58.512	9.090	
321.00	-58.971	-4.251	
322.00	-58.570	-18.079	
323.00	-58.503	-24.016	
324.00	-59.402	-33.050	
325.00	-61.123	-36.860	
326.00	-61.527	-45.459	
327.00	-62.804	-47.752	
328.00	-63.756	-51.066	
329.00	-66.723	-49.626	
330.00	-69.329	-51.640	
331.00	-74.394	-26.531	
332.00	-78.542	18.385	
333.00	-73.840	43.666	
334.00	-72.496	59.802	
335.00	-69.135	63.729	
336.00	-68.086	76.192	
337.00	-68.785	66.338	
338.00	-69.133	63.486	
339.00	-69.484	58.921	
340.00	-69.139	58.753	
341.00	-69.185	67.592	
342.00	-70.706	70.704	
343.00	-72.080	60.846	
344.00	-72.627	81.061	
345.00	-73.017	107.369	
346.00	-75.818	104.585	
347.00	-74.083	138.289	
348.00	-73.107	154.082	
349.00	-71.153	-175.883	
350.00	-70.867	-174.302	
351.00	-67.986	-173.554	
352.00	-68.298	-172.083	
353.00	-66.023	-161.874	
354.00	-65.296	-162.879	
355.00	-64.092	-160.492	
356.00	-62.614	-165.385	
357.00	-62.239	-168.405	
358.00	-62.178	-166.541	
359.00	-62.010	-176.964	
Frequency	2400.00	MHz	
Channel	test		
Scan Axis name	Azimuth  [deg]		
Scan Axis	Amplitude	Phase	
			
0.00	-67.096	-152.035	
1.00	-68.723	-144.528	
2.00	-72.663	-129.320	
3.00	-77.240	-95.361	
4.00	-74.157	-53.987	
5.00	-70.130	-36.796	
6.00	-66.747	-21.031	
7.00	-64.646	-31.694	
8.00	-64.465	-17.086	
9.00	-63.602	-17.596	
10.00	-63.735	-17.967	
11.00	-63.212	-9.896	
12.00	-63.479	-7.582	
13.00	-63.993	-4.645	
14.00	-64.348	-5.301	
15.00	-65.395	2.823	
16.00	-68.811	0.240	
17.00	-72.971	5.260	
18.00	-77.462	38.162	
19.00	-78.742	-162.365	
20.00	-72.352	178.531	
21.00	-69.470	-161.756	
22.00	-66.164	-148.848	
23.00	-64.417	-142.251	
24.00	-62.887	-134.663	
25.00	-61.654	-124.399	
26.00	-59.399	-119.133	
27.00	-58.660	-113.941	
28.00	-58.315	-107.598	
29.00	-57.906	-96.719	
30.00	-57.308	-88.813	
31.00	-57.885	-84.977	
32.00	-58.528	-82.003	
33.00	-59.754	-67.383	
34.00	-60.810	-68.296	
35.00	-65.339	-51.322	
36.00	-66.225	-45.398	
37.00	-74.583	-27.138	
38.00	-75.985	86.583	
39.00	-79.587	113.365	
40.00	-66.682	140.017	
41.00	-64.337	149.132	
42.00	-63.310	163.203	
43.00	-62.531	172.852	
44.00	-62.081	-167.649	
45.00	-61.907	-150.395	
46.00	-61.096	-135.497	
47.00	-60.403	-116.525	
48.00	-60.828	-102.249	
49.00	-60.251	-84.260	
50.00	-60.215	-70.895	
51.00	-61.168	-52.831	
52.00	-60.513	-36.958	
53.00	-62.655	-17.124	
54.00	-61.970	14.265	
55.00	-63.360	34.578	
56.00	-61.560	74.895	
57.00	-59.150	87.578	
58.00	-58.164	99.610	
59.00	-57.264	117.313	
60.00	-57.783	125.286	
61.00	-56.920	140.012	
62.00	-58.021	153.540	
63.00	-59.326	169.082	
64.00	-61.643	-178.197	
65.00	-62.697	-153.908	
66.00	-65.676	-133.285	
67.00	-65.569	-91.329	
68.00	-64.441	-61.861	
69.00	-62.622	-44.291	
70.00	-62.021	-21.392	
71.00	-62.630	-15.744	
72.00	-60.948	3.251	
73.00	-61.355	-1.301	
74.00	-60.469	15.374	
75.00	-62.031	32.154	
76.00	-62.194	30.146	
77.00	-66.236	53.856	
78.00	-67.084	69.069	
79.00	-66.183	80.161	
80.00	-66.792	128.985	
81.00	-68.594	115.721	
82.00	-66.319	168.978	
83.00	-70.140	177.379	
84.00	-68.807	-168.048	
85.00	-67.181	-105.773	
86.00	-65.890	-119.474	
87.00	-65.613	-88.977	
88.00	-63.297	-69.370	
89.00	-61.907	-48.955	
90.00	-62.501	-29.571	
91.00	-60.738	-18.630	
92.00	-60.217	0.809	
93.00	-59.581	16.210	
94.00	-59.442	34.213	
95.00	-59.301	35.135	
96.00	-59.201	56.211	
97.00	-60.713	74.296	
98.00	-59.722	89.636	
99.00	-60.677	106.867	
100.00	-61.547	131.346	
101.00	-63.283	158.989	
102.00	-65.652	-179.817	
103.00	-64.863	-150.760	
104.00	-68.338	-124.075	
105.00	-68.916	-107.912	
106.00	-66.063	-59.371	
107.00	-64.047	-22.755	
108.00	-63.107	-3.704	
109.00	-60.280	23.170	
110.00	-59.287	43.196	
111.00	-58.168	56.226	
112.00	-58.486	67.882	
113.00	-58.227	87.072	
114.00	-57.360	96.815	
115.00	-58.441	120.506	
116.00	-58.948	135.083	
117.00	-60.358	156.661	
118.00	-60.207	176.178	
119.00	-60.597	-155.484	
120.00	-60.022	-131.376	
121.00	-58.907	-107.407	
122.00	-58.301	-89.110	
123.00	-56.657	-67.732	
124.00	-55.823	-55.167	
125.00	-54.962	-32.113	
126.00	-54.923	-26.557	
127.00	-54.696	-11.141	
128.00	-54.897	3.623	
129.00	-54.788	16.957	
130.00	-55.000	32.241	
131.00	-55.386	49.639	
132.00	-55.699	61.076	
133.00	-55.893	80.985	
134.00	-55.348	98.547	
135.00	-56.135	110.294	
136.00	-55.569	129.995	
137.00	-55.353	142.004	
138.00	-54.651	161.357	
139.00	-54.015	170.457	
140.00	-53.219	178.539	
141.00	-52.604	-171.369	
142.00	-52.402	-158.026	
143.00	-52.165	-148.785	
144.00	-51.826	-147.154	
145.00	-51.556	-136.197	
146.00	-51.347	-132.211	
147.00	-51.757	-115.776	
148.00	-51.713	-117.665	
149.00	-51.762	-105.230	
150.00	-51.812	-102.995	
151.00	-51.783	-91.560	
152.00	-52.054	-82.587	
153.00	-51.834	-80.004	
154.00	-51.549	-66.608	
155.00	-51.723	-57.447	
156.00	-50.607	-48.501	
157.00	-50.528	-38.545	
158.00	-49.965	-36.241	
159.00	-49.564	-31.226	
160.00	-49.052	-19.970	
161.00	-48.445	-22.731	
162.00	-47.985	-13.314	
163.00	-47.722	-14.920	
164.00	-47.208	-5.367	
165.00	-47.019	-2.981	
166.00	-46.687	2.919	
167.00	-46.514	5.200	
168.00	-46.250	6.926	
169.00	-46.007	12.829	
170.00	-45.851	9.105	
171.00	-45.675	14.576	
172.00	-45.554	8.425	
173.00	-45.496	18.368	
174.00	-45.347	13.920	
175.00	-45.332	19.880	
176.00	-45.298	12.998	
177.00	-45.211	15.821	
178.00	-45.192	11.689	
179.00	-45.223	14.208	
180.00	-45.184	10.843	
181.00	-45.311	7.250	
182.00	-45.310	8.307	
183.00	-45.357	0.729	
184.00	-45.310	1.395	
185.00	-45.408	-7.558	
186.00	-45.459	-10.101	
187.00	-45.583	-17.524	
188.00	-45.701	-19.458	
189.00	-45.735	-27.943	
190.00	-45.914	-29.227	
191.00	-46.019	-40.865	
192.00	-46.168	-44.129	
193.00	-46.421	-50.942	
194.00	-46.543	-57.228	
195.00	-46.782	-66.936	
196.00	-47.009	-74.614	
197.00	-47.228	-82.769	
198.00	-47.546	-90.407	
199.00	-47.766	-99.191	
200.00	-48.032	-111.018	
201.00	-48.345	-119.178	
202.00	-48.597	-134.335	
203.00	-48.879	-140.987	
204.00	-49.150	-155.890	
205.00	-49.307	-164.749	
206.00	-49.693	-178.553	
207.00	-49.690	171.663	
208.00	-50.063	163.046	
209.00	-50.261	146.857	
210.00	-50.507	138.371	
211.00	-51.005	127.113	
212.00	-51.449	111.716	
213.00	-51.943	101.482	
214.00	-52.582	88.750	
215.00	-53.669	77.474	
216.00	-54.692	63.103	
217.00	-55.910	50.463	
218.00	-57.385	30.751	
219.00	-58.713	14.313	
220.00	-60.122	-2.980	
221.00	-61.705	-23.739	
222.00	-63.108	-45.252	
223.00	-63.570	-70.844	
224.00	-64.482	-99.445	
225.00	-65.294	-121.747	
226.00	-65.845	-149.977	
227.00	-64.417	-176.625	
228.00	-64.588	161.286	
229.00	-64.874	138.080	
230.00	-64.316	114.884	
231.00	-64.678	95.383	
232.00	-64.354	71.249	
233.00	-64.648	52.013	
234.00	-64.520	30.212	
235.00	-64.178	3.878	
236.00	-64.506	-19.260	
237.00	-64.423	-44.861	
238.00	-64.122	-68.702	
239.00	-63.946	-88.504	
240.00	-63.403	-110.809	
241.00	-62.778	-138.718	
242.00	-62.713	-152.959	
243.00	-62.267	-179.858	
244.00	-63.183	166.707	
245.00	-62.970	141.043	
246.00	-63.466	125.226	
247.00	-63.014	103.604	
248.00	-63.088	98.363	
249.00	-63.373	59.493	
250.00	-63.286	44.662	
251.00	-62.793	26.460	
252.00	-62.588	16.006	
253.00	-62.149	-4.729	
254.00	-62.810	-11.022	
255.00	-63.296	-20.429	
256.00	-64.852	-31.186	
257.00	-67.562	-44.700	
258.00	-69.757	-52.456	
259.00	-76.418	-73.975	
260.00	-80.401	-114.485	
261.00	-77.804	150.396	
262.00	-73.397	124.261	
263.00	-71.195	108.679	
264.00	-68.269	102.827	
265.00	-67.635	91.320	
266.00	-66.420	80.795	
267.00	-65.439	69.727	
268.00	-64.420	63.671	
269.00	-65.651	44.012	
270.00	-65.316	34.339	
271.00	-64.880	20.442	
272.00	-65.208	5.435	
273.00	-65.058	-13.782	
274.00	-65.328	-25.802	
275.00	-65.349	-39.648	
276.00	-67.344	-62.707	
277.00	-68.202	-96.688	
278.00	-68.398	-124.434	
279.00	-68.530	-155.944	
280.00	-66.092	164.642	
281.00	-63.447	144.829	
282.00	-61.989	127.201	
283.00	-60.326	109.018	
284.00	-58.694	98.045	
285.00	-57.863	85.311	
286.00	-57.486	72.207	
287.00	-57.712	61.785	
288.00	-58.522	48.328	
289.00	-59.777	36.638	
290.00	-61.835	24.786	
291.00	-65.833	3.023	
292.00	-70.938	-28.566	
293.00	-69.119	-94.155	
294.00	-65.670	-135.271	
295.00	-62.524	-156.075	
296.00	-60.073	-172.894	
297.00	-59.184	178.828	
298.00	-57.896	164.158	
299.00	-57.198	152.293	
300.00	-57.542	145.974	
301.00	-57.627	133.703	
302.00	-58.088	122.113	
303.00	-59.020	111.335	
304.00	-60.271	101.935	
305.00	-61.654	87.983	
306.00	-64.095	73.422	
307.00	-68.513	53.174	
308.00	-73.645	20.237	
309.00	-73.518	-21.660	
310.00	-69.905	-68.283	
311.00	-67.252	-96.471	
312.00	-64.922	-111.405	
313.00	-62.711	-120.857	
314.00	-62.372	-135.817	
315.00	-61.856	-140.782	
316.00	-62.036	-151.160	
317.00	-62.524	-163.482	
318.00	-61.722	-168.475	
319.00	-63.146	-176.903	
320.00	-63.017	175.534	
321.00	-63.287	165.151	
322.00	-65.188	161.375	
323.00	-65.848	146.961	
324.00	-66.043	135.668	
325.00	-67.178	127.777	
326.00	-68.932	111.373	
327.00	-70.496	94.952	
328.00	-70.505	84.969	
329.00	-73.310	85.161	
330.00	-72.491	65.161	
331.00	-75.883	35.000	
332.00	-79.816	51.281	
333.00	-78.760	53.214	
334.00	-77.329	65.715	
335.00	-83.026	22.795	
336.00	-86.400	55.349	
337.00	-88.550	-162.667	
338.00	-80.470	163.083	
339.00	-74.630	167.605	
340.00	-73.915	175.176	
341.00	-71.557	172.807	
342.00	-69.755	-172.546	
343.00	-67.876	-178.190	
344.00	-67.325	-177.284	
345.00	-66.438	174.023	
346.00	-65.337	175.019	
347.00	-63.965	-179.245	
348.00	-63.774	-174.682	
349.00	-63.104	178.076	
350.00	-63.036	176.399	
351.00	-62.616	179.737	
352.00	-62.919	-179.928	
353.00	-63.395	-173.458	
354.00	-63.007	-176.067	
355.00	-64.134	-173.765	
356.00	-65.677	-165.720	
357.00	-65.313	-168.676	
358.00	-68.314	-163.422	
359.00	-68.079	-164.350	
Frequency	2450.00	MHz	
Channel	test		
Scan Axis name	Azimuth  [deg]		
Scan Axis	Amplitude	Phase	
			
0.00	-67.409	-178.858	
1.00	-65.272	148.405	
2.00	-65.665	146.784	
3.00	-64.495	127.936	
4.00	-62.882	120.402	
5.00	-62.533	121.273	
6.00	-61.213	112.556	
7.00	-60.048	108.691	
8.00	-60.198	114.976	
9.00	-59.100	114.315	
10.00	-58.387	115.560	
11.00	-59.078	115.785	
12.00	-58.362	123.710	
13.00	-58.668	131.908	
14.00	-58.857	133.327	
15.00	-59.553	139.033	
16.00	-59.853	146.357	
17.00	-60.473	155.611	
18.00	-60.257	172.290	
19.00	-61.542	174.703	
20.00	-61.953	-164.307	
21.00	-62.283	-162.994	
22.00	-62.555	-135.677	
23.00	-62.789	-121.417	
24.00	-63.105	-106.129	
25.00	-62.665	-92.637	
26.00	-64.434	-77.562	
27.00	-65.626	-51.308	
28.00	-65.940	-15.384	
29.00	-64.690	17.996	
30.00	-61.974	37.103	
31.00	-60.338	53.058	
32.00	-58.907	66.991	
33.00	-57.930	79.005	
34.00	-57.151	87.253	
35.00	-56.716	96.774	
36.00	-56.084	103.399	
37.00	-56.404	112.669	
38.00	-56.488	119.839	
39.00	-56.623	125.403	
40.00	-57.526	133.185	
41.00	-58.911	142.505	
42.00	-60.245	148.909	
43.00	-62.970	155.157	
44.00	-67.329	161.412	
45.00	-75.790	-175.842	
46.00	-79.215	-65.042	
47.00	-71.449	-6.342	
48.00	-68.379	-2.914	
49.00	-68.469	3.420	
50.00	-67.566	15.277	
51.00	-69.156	11.464	
52.00	-71.947	33.788	
53.00	-75.889	-6.064	
54.00	-76.496	-128.523	
55.00	-70.119	-111.322	
56.00	-69.573	-117.357	
57.00	-65.114	-107.303	
58.00	-66.930	-114.489	
59.00	-64.646	-83.012	
60.00	-72.658	-74.493	
61.00	-70.849	-97.379	
62.00	-66.803	-22.539	
63.00	-70.625	4.991	
64.00	-65.293	59.243	
65.00	-64.189	63.559	
66.00	-63.701	93.386	
67.00	-62.911	93.292	
68.00	-66.114	101.638	
69.00	-66.138	103.109	
70.00	-67.681	163.939	
71.00	-67.043	-173.010	
72.00	-74.116	-133.444	
73.00	-69.021	-113.822	
74.00	-68.904	-95.090	
75.00	-71.175	-64.558	
76.00	-66.161	-63.267	
77.00	-66.299	-14.386	
78.00	-70.184	-9.153	
79.00	-67.442	24.192	
80.00	-66.945	73.186	
81.00	-66.591	72.707	
82.00	-66.349	102.596	
83.00	-64.318	141.844	
84.00	-63.213	128.030	
85.00	-65.151	129.152	
86.00	-67.375	134.404	
87.00	-65.285	142.736	
88.00	-67.293	115.778	
89.00	-73.543	141.400	
90.00	-82.730	100.980	
91.00	-67.659	123.851	
92.00	-70.412	132.441	
93.00	-66.063	151.181	
94.00	-66.043	151.632	
95.00	-65.158	175.623	
96.00	-68.159	179.817	
97.00	-65.669	-178.947	
98.00	-64.460	-166.643	
99.00	-66.178	-145.654	
100.00	-70.056	-87.431	
101.00	-78.407	-67.225	
102.00	-68.000	-8.641	
103.00	-66.103	31.018	
104.00	-62.805	73.657	
105.00	-60.098	78.973	
106.00	-59.063	95.382	
107.00	-57.236	111.082	
108.00	-56.388	124.324	
109.00	-55.857	137.385	
110.00	-54.755	151.421	
111.00	-55.008	169.590	
112.00	-54.410	-175.484	
113.00	-54.676	-156.206	
114.00	-54.878	-148.780	
115.00	-55.192	-118.100	
116.00	-55.790	-109.587	
117.00	-56.038	-87.610	
118.00	-57.014	-70.403	
119.00	-57.783	-42.517	
120.00	-58.172	-25.831	
121.00	-59.031	3.442	
122.00	-57.815	27.304	
123.00	-56.534	55.223	
124.00	-55.808	65.373	
125.00	-55.276	93.158	
126.00	-54.866	103.572	
127.00	-54.509	114.864	
128.00	-54.357	136.761	
129.00	-54.451	151.448	
130.00	-55.275	170.104	
131.00	-55.197	-173.242	
132.00	-54.640	-157.621	
133.00	-53.740	-138.502	
134.00	-54.207	-123.629	
135.00	-53.355	-113.983	
136.00	-53.037	-102.589	
137.00	-52.962	-93.617	
138.00	-52.841	-83.567	
139.00	-52.551	-72.496	
140.00	-52.684	-64.799	
141.00	-52.818	-58.849	
142.00	-52.810	-45.061	
143.00	-53.431	-33.550	
144.00	-53.466	-26.733	
145.00	-53.290	-13.671	
146.00	-53.728	-7.289	
147.00	-53.933	7.728	
148.00	-53.172	12.934	
149.00	-53.141	25.818	
150.00	-52.738	29.129	
151.00	-51.900	41.759	
152.00	-51.186	51.568	
153.00	-50.832	53.371	
154.00	-50.368	65.679	
155.00	-49.715	68.743	
156.00	-49.202	77.010	
157.00	-48.746	86.618	
158.00	-48.062	89.264	
159.00	-47.484	92.795	
160.00	-47.002	104.269	
161.00	-46.492	102.917	
162.00	-45.970	111.942	
163.00	-45.591	111.531	
164.00	-45.089	119.837	
165.00	-44.676	123.816	
166.00	-44.259	129.092	
167.00	-43.976	131.174	
168.00	-43.713	133.062	
169.00	-43.646	139.141	
170.00	-43.411	135.195	
171.00	-43.242	140.480	
172.00	-43.170	134.261	
173.00	-43.111	143.458	
174.00	-43.109	139.334	
175.00	-43.008	144.913	
176.00	-43.024	137.795	
177.00	-43.114	141.192	
178.00	-43.044	136.503	
179.00	-43.116	138.575	
180.00	-43.212	136.692	
181.00	-43.219	132.170	
182.00	-43.174	133.968	
183.00	-43.149	126.777	
184.00	-43.220	127.235	
185.00	-43.251	118.264	
186.00	-43.175	116.503	
187.00	-43.304	108.479	
188.00	-43.265	106.284	
189.00	-43.421	97.103	
190.00	-43.481	96.417	
191.00	-43.471	83.254	
192.00	-43.720	80.047	
193.00	-43.708	72.469	
194.00	-43.762	66.453	
195.00	-43.920	56.979	
196.00	-44.080	49.835	
197.00	-44.314	42.377	
198.00	-44.524	33.171	
199.00	-44.685	26.226	
200.00	-44.948	13.428	
201.00	-45.290	6.878	
202.00	-45.553	-8.016	
203.00	-45.836	-15.124	
204.00	-46.228	-29.627	
205.00	-46.589	-38.132	
206.00	-47.121	-51.465	
207.00	-47.414	-63.300	
208.00	-47.964	-71.527	
209.00	-48.357	-88.555	
210.00	-48.971	-98.581	
211.00	-49.425	-110.916	
212.00	-50.284	-127.838	
213.00	-50.513	-142.422	
214.00	-51.464	-156.474	
215.00	-52.235	-172.156	
216.00	-52.866	170.341	
217.00	-53.813	157.980	
218.00	-54.873	133.565	
219.00	-56.121	115.039	
220.00	-57.244	94.291	
221.00	-57.328	67.775	
222.00	-57.802	47.560	
223.00	-57.398	23.027	
224.00	-57.315	-1.700	
225.00	-57.160	-19.818	
226.00	-56.632	-39.140	
227.00	-56.643	-59.511	
228.00	-57.392	-73.943	
229.00	-57.962	-91.097	
230.00	-59.406	-111.633	
231.00	-60.334	-148.580	
232.00	-60.921	-171.352	
233.00	-60.453	162.063	
234.00	-59.183	138.653	
235.00	-58.757	112.881	
236.00	-57.441	91.689	
237.00	-56.617	68.727	
238.00	-56.067	52.803	
239.00	-55.769	38.416	
240.00	-55.809	19.891	
241.00	-55.386	-1.578	
242.00	-55.510	-11.985	
243.00	-56.427	-36.514	
244.00	-57.188	-49.814	
245.00	-57.710	-72.128	
246.00	-58.667	-82.944	
247.00	-59.519	-104.337	
248.00	-60.865	-129.059	
249.00	-61.173	-148.039	
250.00	-61.250	-169.875	
251.00	-62.837	160.815	
252.00	-62.820	147.889	
253.00	-63.909	115.371	
254.00	-64.037	98.585	
255.00	-64.625	81.456	
256.00	-63.379	51.128	
257.00	-62.431	30.300	
258.00	-63.249	28.424	
259.00	-63.030	18.078	
260.00	-62.724	11.502	
261.00	-62.827	6.169	
262.00	-63.608	4.796	
263.00	-64.246	-0.768	
264.00	-64.788	6.608	
265.00	-65.466	12.573	
266.00	-65.620	3.295	
267.00	-64.983	6.963	
268.00	-66.439	-1.516	
269.00	-67.855	6.811	
270.00	-68.052	13.652	
271.00	-68.150	21.673	
272.00	-68.032	25.059	
273.00	-68.389	31.653	
274.00	-68.258	19.449	
275.00	-66.688	30.955	
276.00	-64.824	17.249	
277.00	-65.669	-1.509	
278.00	-65.301	-2.613	
279.00	-64.172	-15.215	
280.00	-64.647	-25.562	
281.00	-65.325	-35.571	
282.00	-65.842	-53.220	
283.00	-66.379	-68.426	
284.00	-65.321	-87.709	
285.00	-66.250	-111.185	
286.00	-67.175	-127.922	
287.00	-70.948	-143.258	
288.00	-72.849	-161.558	
289.00	-89.743	113.646	
290.00	-80.570	137.076	
291.00	-72.200	31.226	
292.00	-67.283	-0.486	
293.00	-65.778	-6.958	
294.00	-65.979	-8.862	
295.00	-65.772	-30.747	
296.00	-64.013	-51.361	
297.00	-63.264	-56.884	
298.00	-64.729	-84.955	
299.00	-63.602	-115.859	
300.00	-65.115	-119.975	
301.00	-64.130	-143.320	
302.00	-65.262	-165.098	
303.00	-63.593	174.730	
304.00	-64.316	163.755	
305.00	-63.534	155.116	
306.00	-64.829	141.488	
307.00	-66.275	134.209	
308.00	-70.523	124.740	
309.00	-68.979	120.801	
310.00	-73.130	113.012	
311.00	-70.680	142.422	
312.00	-72.868	137.941	
313.00	-70.856	161.264	
314.00	-69.323	174.091	
315.00	-69.267	167.688	
316.00	-67.680	176.902	
317.00	-67.176	159.448	
318.00	-68.233	161.637	
319.00	-70.192	153.418	
320.00	-71.678	146.767	
321.00	-72.764	106.455	
322.00	-78.631	144.932	
323.00	-81.982	-161.306	
324.00	-89.731	106.939	
325.00	-90.422	-79.317	
326.00	-80.472	-51.999	
327.00	-73.689	-64.873	
328.00	-73.510	-81.181	
329.00	-68.815	-107.420	
330.00	-68.851	-101.516	
331.00	-67.203	-129.730	
332.00	-66.159	-128.790	
333.00	-65.176	-159.201	
334.00	-64.150	-156.389	
335.00	-64.239	-169.810	
336.00	-63.533	-173.250	
337.00	-63.827	-167.215	
338.00	-64.484	-174.052	
339.00	-64.284	-177.922	
340.00	-64.569	-178.700	
341.00	-64.409	-178.150	
342.00	-64.955	-178.713	
343.00	-65.368	178.083	
344.00	-66.990	179.786	
345.00	-65.737	-165.549	
346.00	-64.952	-149.338	
347.00	-66.002	-142.808	
348.00	-64.513	-143.769	
349.00	-65.010	-136.901	
350.00	-63.390	-136.645	
351.00	-63.829	-133.621	
352.00	-64.871	-130.958	
353.00	-63.456	-135.753	
354.00	-63.976	-141.155	
355.00	-64.931	-138.250	
356.00	-65.501	-172.762	
357.00	-65.534	-174.363	
358.00	-65.591	178.404	
359.00	-66.410	171.233	
Frequency	2496.00	MHz	
Channel	test		
Scan Axis name	Azimuth  [deg]		
Scan Axis	Amplitude	Phase	
			
0.00	-63.763	75.741	
1.00	-65.582	70.897	
2.00	-67.306	63.183	
3.00	-69.336	71.461	
4.00	-76.480	30.542	
5.00	-80.939	-31.060	
6.00	-71.883	-46.271	
7.00	-70.272	-84.481	
8.00	-68.451	-82.884	
9.00	-64.752	-106.400	
10.00	-61.051	-93.792	
11.00	-61.192	-104.273	
12.00	-60.183	-103.059	
13.00	-59.733	-105.474	
14.00	-59.826	-123.312	
15.00	-60.928	-107.935	
16.00	-58.933	-117.176	
17.00	-62.754	-113.582	
18.00	-61.397	-115.544	
19.00	-65.096	-120.426	
20.00	-64.485	-127.305	
21.00	-68.866	-142.677	
22.00	-69.109	154.226	
23.00	-73.139	151.403	
24.00	-65.110	167.186	
25.00	-65.303	140.748	
26.00	-66.278	140.201	
27.00	-62.584	130.652	
28.00	-63.642	152.168	
29.00	-65.154	152.091	
30.00	-64.368	175.501	
31.00	-60.657	-176.192	
32.00	-61.745	-149.872	
33.00	-60.297	-136.792	
34.00	-60.344	-112.011	
35.00	-62.570	-89.422	
36.00	-59.777	-98.923	
37.00	-60.669	-65.118	
38.00	-61.129	-62.971	
39.00	-59.120	-40.343	
40.00	-59.880	-23.275	
41.00	-60.672	-9.647	
42.00	-60.808	-6.728	
43.00	-60.404	10.229	
44.00	-60.484	30.795	
45.00	-59.345	43.934	
46.00	-60.821	65.974	
47.00	-59.886	73.629	
48.00	-63.254	98.590	
49.00	-60.848	118.399	
50.00	-65.976	114.250	
51.00	-66.837	170.388	
52.00	-66.288	-163.072	
53.00	-68.041	-103.833	
54.00	-63.070	-104.128	
55.00	-63.836	-58.587	
56.00	-61.146	-44.077	
57.00	-63.110	-36.763	
58.00	-60.875	-16.372	
59.00	-61.643	9.697	
60.00	-60.752	21.561	
61.00	-62.585	58.714	
62.00	-62.079	57.766	
63.00	-62.378	81.491	
64.00	-65.057	116.409	
65.00	-64.310	138.137	
66.00	-67.066	160.174	
67.00	-64.507	-160.162	
68.00	-64.235	-155.843	
69.00	-67.317	-113.159	
70.00	-66.058	-88.010	
71.00	-62.184	-71.135	
72.00	-62.309	-43.125	
73.00	-61.841	-37.191	
74.00	-63.282	-12.553	
75.00	-63.608	7.957	
76.00	-64.604	22.570	
77.00	-63.594	57.323	
78.00	-67.234	57.606	
79.00	-67.694	102.178	
80.00	-72.258	118.562	
81.00	-71.663	156.074	
82.00	-68.826	147.401	
83.00	-66.967	-152.958	
84.00	-69.320	-144.213	
85.00	-72.932	-123.697	
86.00	-82.569	-149.221	
87.00	-70.784	-106.167	
88.00	-72.601	-137.053	
89.00	-71.646	172.529	
90.00	-74.211	-139.938	
91.00	-64.196	-160.100	
92.00	-67.908	-116.284	
93.00	-64.436	-113.479	
94.00	-63.546	-94.165	
95.00	-59.256	-74.785	
96.00	-59.599	-53.813	
97.00	-59.730	-43.691	
98.00	-59.112	-21.255	
99.00	-57.884	2.308	
100.00	-57.249	20.109	
101.00	-56.778	38.913	
102.00	-58.304	54.822	
103.00	-56.467	75.879	
104.00	-57.456	91.483	
105.00	-58.091	115.392	
106.00	-58.736	130.557	
107.00	-60.877	152.205	
108.00	-60.255	-159.506	
109.00	-61.894	-148.057	
110.00	-61.255	-115.872	
111.00	-61.399	-86.286	
112.00	-60.671	-69.968	
113.00	-60.206	-34.940	
114.00	-57.556	-19.944	
115.00	-58.499	5.773	
116.00	-58.940	17.355	
117.00	-58.597	48.923	
118.00	-58.726	62.202	
119.00	-56.911	87.328	
120.00	-57.267	93.293	
121.00	-56.682	124.713	
122.00	-56.085	140.710	
123.00	-57.278	162.238	
124.00	-56.185	-175.624	
125.00	-56.034	-142.714	
126.00	-55.527	-137.003	
127.00	-54.729	-117.921	
128.00	-54.597	-96.341	
129.00	-53.690	-79.771	
130.00	-53.342	-73.250	
131.00	-53.916	-48.608	
132.00	-53.730	-36.524	
133.00	-53.640	-19.492	
134.00	-53.631	-4.075	
135.00	-53.819	8.938	
136.00	-53.875	26.272	
137.00	-53.657	39.082	
138.00	-53.369	57.308	
139.00	-52.821	68.762	
140.00	-51.898	78.291	
141.00	-51.409	89.395	
142.00	-50.978	98.888	
143.00	-50.517	111.461	
144.00	-50.213	116.019	
145.00	-49.624	127.097	
146.00	-49.424	131.330	
147.00	-48.986	148.635	
148.00	-48.731	147.866	
149.00	-48.344	161.064	
150.00	-48.036	162.359	
151.00	-47.700	173.439	
152.00	-47.160	-178.367	
153.00	-46.824	-175.849	
154.00	-46.455	-164.100	
155.00	-45.702	-159.574	
156.00	-45.543	-151.234	
157.00	-45.090	-143.127	
158.00	-44.734	-140.722	
159.00	-44.388	-136.949	
160.00	-44.070	-126.688	
161.00	-43.761	-128.411	
162.00	-43.408	-117.370	
163.00	-43.147	-118.113	
164.00	-42.910	-109.024	
165.00	-42.729	-105.166	
166.00	-42.423	-99.322	
167.00	-42.360	-96.063	
168.00	-42.111	-93.964	
169.00	-41.937	-87.226	
170.00	-41.740	-91.576	
171.00	-41.715	-85.051	
172.00	-41.630	-92.450	
173.00	-41.469	-82.838	
174.00	-41.449	-86.492	
175.00	-41.470	-81.196	
176.00	-41.530	-88.987	
177.00	-41.622	-86.471	
178.00	-41.585	-91.640	
179.00	-41.500	-88.750	
180.00	-41.612	-91.724	
181.00	-41.406	-96.551	
182.00	-41.622	-94.714	
183.00	-41.614	-103.505	
184.00	-41.539	-102.630	
185.00	-41.431	-111.831	
186.00	-41.519	-114.817	
187.00	-41.575	-122.698	
188.00	-41.522	-123.962	
189.00	-41.622	-132.030	
190.00	-41.551	-134.568	
191.00	-41.635	-147.037	
192.00	-41.643	-148.744	
193.00	-41.722	-157.338	
194.00	-41.745	-162.620	
195.00	-41.992	-172.712	
196.00	-42.114	-179.533	
197.00	-42.113	172.427	
198.00	-42.305	163.779	
199.00	-42.662	156.941	
200.00	-42.748	144.074	
201.00	-42.966	136.579	
202.00	-43.292	123.184	
203.00	-43.540	116.631	
204.00	-43.948	102.658	
205.00	-44.330	93.538	
206.00	-44.708	80.980	
207.00	-45.240	68.707	
208.00	-45.591	61.820	
209.00	-46.119	42.780	
210.00	-46.660	35.149	
211.00	-47.180	20.992	
212.00	-47.818	4.298	
213.00	-48.426	-7.510	
214.00	-49.126	-24.535	
215.00	-50.123	-39.531	
216.00	-50.851	-55.993	
217.00	-51.772	-69.509	
218.00	-52.769	-88.930	
219.00	-53.805	-110.404	
220.00	-55.248	-129.629	
221.00	-56.015	-149.900	
222.00	-56.964	-177.100	
223.00	-57.789	158.229	
224.00	-57.588	133.051	
225.00	-58.149	112.229	
226.00	-57.674	86.130	
227.00	-57.000	60.549	
228.00	-56.959	38.072	
229.00	-56.303	18.151	
230.00	-56.042	-2.747	
231.00	-56.012	-20.119	
232.00	-56.023	-44.603	
233.00	-55.952	-64.112	
234.00	-55.983	-83.210	
235.00	-56.042	-106.293	
236.00	-56.040	-128.786	
237.00	-56.266	-151.487	
238.00	-56.273	-172.705	
239.00	-56.056	169.452	
240.00	-55.687	149.192	
241.00	-55.871	123.710	
242.00	-56.072	112.247	
243.00	-57.012	89.090	
244.00	-57.702	74.892	
245.00	-58.711	47.864	
246.00	-58.642	38.104	
247.00	-60.605	9.327	
248.00	-62.113	3.090	
249.00	-64.097	-38.075	
250.00	-64.640	-67.502	
251.00	-67.351	-106.191	
252.00	-68.723	-129.884	
253.00	-67.102	-175.602	
254.00	-65.756	150.732	
255.00	-65.022	120.852	
256.00	-63.544	96.516	
257.00	-62.929	79.433	
258.00	-61.485	59.621	
259.00	-61.384	38.196	
260.00	-61.746	22.391	
261.00	-62.018	0.547	
262.00	-63.076	-16.597	
263.00	-63.882	-39.361	
264.00	-62.594	-68.035	
265.00	-64.168	-89.509	
266.00	-62.657	-114.553	
267.00	-61.463	-124.575	
268.00	-60.339	-139.492	
269.00	-61.153	-150.181	
270.00	-60.437	-155.983	
271.00	-61.447	-164.706	
272.00	-62.787	179.044	
273.00	-62.362	175.248	
274.00	-62.862	164.057	
275.00	-64.265	147.374	
276.00	-65.723	142.529	
277.00	-65.770	116.918	
278.00	-66.318	107.492	
279.00	-67.730	80.059	
280.00	-68.178	75.973	
281.00	-65.849	64.356	
282.00	-71.816	38.191	
283.00	-72.489	22.666	
284.00	-70.802	1.454	
285.00	-69.679	-42.024	
286.00	-72.856	-44.440	
287.00	-77.459	-74.655	
288.00	-91.684	-107.396	
289.00	-76.871	163.021	
290.00	-69.585	146.159	
291.00	-67.527	102.995	
292.00	-64.593	112.943	
293.00	-66.976	85.960	
294.00	-65.011	83.550	
295.00	-66.960	75.297	
296.00	-67.006	33.555	
297.00	-68.173	47.580	
298.00	-69.647	-12.496	
299.00	-69.904	-24.663	
300.00	-69.798	-40.760	
301.00	-77.549	-57.666	
302.00	-70.352	-129.053	
303.00	-69.066	-171.183	
304.00	-64.945	-179.203	
305.00	-67.616	145.248	
306.00	-62.429	147.227	
307.00	-63.741	122.318	
308.00	-63.537	104.344	
309.00	-62.855	95.898	
310.00	-64.943	70.807	
311.00	-66.940	57.825	
312.00	-65.379	33.134	
313.00	-66.391	-2.485	
314.00	-62.846	-5.330	
315.00	-62.829	-31.386	
316.00	-64.654	-47.762	
317.00	-64.607	-49.192	
318.00	-65.114	-73.651	
319.00	-67.250	-85.179	
320.00	-65.484	-129.514	
321.00	-65.814	-128.461	
322.00	-65.282	-172.469	
323.00	-64.097	165.149	
324.00	-64.093	144.633	
325.00	-63.964	143.837	
326.00	-60.457	123.238	
327.00	-63.316	112.950	
328.00	-60.891	103.610	
329.00	-61.766	97.601	
330.00	-61.556	83.425	
331.00	-60.829	77.865	
332.00	-62.071	65.393	
333.00	-62.124	57.733	
334.00	-62.336	45.081	
335.00	-63.409	36.896	
336.00	-63.473	36.557	
337.00	-64.997	24.895	
338.00	-65.721	26.264	
339.00	-65.469	15.681	
340.00	-65.001	30.736	
341.00	-63.994	32.643	
342.00	-64.674	25.444	
343.00	-63.941	31.774	
344.00	-65.140	38.817	
345.00	-66.190	47.093	
346.00	-65.363	45.781	
347.00	-64.037	53.727	
348.00	-64.030	55.532	
349.00	-63.478	62.621	
350.00	-64.318	68.560	
351.00	-61.548	69.480	
352.00	-61.216	78.400	
353.00	-61.857	74.643	
354.00	-61.735	82.118	
355.00	-60.655	81.272	
356.00	-60.940	83.206	
357.00	-60.811	78.116	
358.00	-61.420	89.119	
359.00	-63.182	71.711	
Frequency	2550.00	MHz	
Channel	test		
Scan Axis name	Azimuth  [deg]		
Scan Axis	Amplitude	Phase	
			
0.00	-76.133	167.340	
1.00	-75.129	163.441	
2.00	-84.372	133.227	
3.00	-81.086	162.601	
4.00	-88.482	89.277	
5.00	-86.231	-51.964	
6.00	-72.336	-51.700	
7.00	-71.608	-49.404	
8.00	-71.305	-58.035	
9.00	-68.099	-63.256	
10.00	-65.679	-47.994	
11.00	-64.477	-60.387	
12.00	-64.766	-48.072	
13.00	-63.193	-51.362	
14.00	-63.060	-44.354	
15.00	-61.772	-46.910	
16.00	-61.654	-41.987	
17.00	-61.787	-37.626	
18.00	-61.160	-31.734	
19.00	-62.590	-34.026	
20.00	-61.336	-29.063	
21.00	-62.003	-36.177	
22.00	-62.464	-29.428	
23.00	-63.895	-29.726	
24.00	-66.178	-38.779	
25.00	-63.791	-35.633	
26.00	-64.313	-50.629	
27.00	-65.099	-65.266	
28.00	-66.239	-62.027	
29.00	-64.704	-76.197	
30.00	-65.422	-79.687	
31.00	-64.189	-68.225	
32.00	-63.934	-67.665	
33.00	-67.111	-59.227	
34.00	-66.253	-39.921	
35.00	-67.395	-17.413	
36.00	-67.722	5.087	
37.00	-67.525	21.960	
38.00	-65.873	54.784	
39.00	-64.708	61.687	
40.00	-64.243	92.333	
41.00	-63.357	87.873	
42.00	-63.656	116.442	
43.00	-62.787	123.237	
44.00	-61.795	126.888	
45.00	-64.669	145.095	
46.00	-65.290	160.549	
47.00	-65.129	-178.493	
48.00	-65.919	-148.085	
49.00	-64.018	-129.211	
50.00	-65.103	-108.054	
51.00	-64.317	-83.644	
52.00	-63.008	-80.062	
53.00	-64.756	-52.202	
54.00	-66.227	-55.148	
55.00	-66.508	-29.589	
56.00	-68.442	-40.621	
57.00	-69.550	-91.164	
58.00	-75.202	-101.617	
59.00	-64.829	-139.928	
60.00	-64.962	-114.860	
61.00	-63.985	-90.962	
62.00	-58.813	-78.864	
63.00	-63.558	-66.387	
64.00	-61.199	-51.471	
65.00	-62.325	-28.677	
66.00	-61.774	-0.633	
67.00	-60.470	-15.700	
68.00	-60.881	20.407	
69.00	-61.209	33.000	
70.00	-60.025	52.397	
71.00	-61.071	86.838	
72.00	-61.040	103.930	
73.00	-60.452	135.280	
74.00	-60.609	153.782	
75.00	-59.752	-172.283	
76.00	-59.125	-156.359	
77.00	-59.108	-138.897	
78.00	-59.018	-118.893	
79.00	-59.855	-96.404	
80.00	-59.744	-70.651	
81.00	-59.001	-44.662	
82.00	-58.972	-17.495	
83.00	-59.752	-0.471	
84.00	-56.985	18.708	
85.00	-55.443	41.170	
86.00	-58.283	53.346	
87.00	-59.663	90.263	
88.00	-60.382	108.104	
89.00	-60.108	122.565	
90.00	-60.034	146.090	
91.00	-67.657	127.636	
92.00	-61.775	-150.209	
93.00	-62.595	-145.428	
94.00	-63.477	-117.242	
95.00	-63.919	-108.074	
96.00	-68.286	-105.684	
97.00	-69.901	-100.272	
98.00	-70.645	125.400	
99.00	-72.620	162.016	
100.00	-71.573	123.356	
101.00	-66.459	175.390	
102.00	-63.933	-175.344	
103.00	-63.400	-166.464	
104.00	-63.823	-160.760	
105.00	-65.370	-113.576	
106.00	-61.705	-86.644	
107.00	-62.138	-61.751	
108.00	-60.898	-44.202	
109.00	-62.895	5.906	
110.00	-59.124	18.030	
111.00	-59.327	37.708	
112.00	-58.252	67.045	
113.00	-57.863	78.205	
114.00	-58.491	91.137	
115.00	-58.537	137.680	
116.00	-56.414	138.880	
117.00	-55.641	165.125	
118.00	-56.716	-176.436	
119.00	-55.940	-160.249	
120.00	-54.929	-149.226	
121.00	-57.539	-123.051	
122.00	-56.974	-106.326	
123.00	-55.956	-84.645	
124.00	-56.376	-72.558	
125.00	-55.318	-40.708	
126.00	-56.606	-16.140	
127.00	-55.580	-0.632	
128.00	-56.578	34.736	
129.00	-56.095	34.958	
130.00	-56.802	53.542	
131.00	-55.084	73.095	
132.00	-55.053	93.190	
133.00	-55.219	113.761	
134.00	-54.652	132.333	
135.00	-54.647	144.140	
136.00	-54.111	157.044	
137.00	-53.232	169.822	
138.00	-53.283	-174.766	
139.00	-52.878	-163.351	
140.00	-52.195	-151.388	
141.00	-52.087	-145.415	
142.00	-51.813	-133.376	
143.00	-52.086	-123.049	
144.00	-51.780	-114.984	
145.00	-52.026	-105.778	
146.00	-51.849	-98.502	
147.00	-51.862	-79.659	
148.00	-52.718	-79.957	
149.00	-51.560	-65.543	
150.00	-51.394	-64.112	
151.00	-50.889	-51.412	
152.00	-51.024	-40.559	
153.00	-49.484	-40.710	
154.00	-50.035	-27.389	
155.00	-49.401	-23.715	
156.00	-48.942	-14.894	
157.00	-48.376	-7.340	
158.00	-48.021	-4.576	
159.00	-47.327	-1.064	
160.00	-46.759	10.045	
161.00	-46.294	6.848	
162.00	-46.001	17.685	
163.00	-45.497	17.080	
164.00	-45.297	25.298	
165.00	-44.852	29.042	
166.00	-44.461	35.579	
167.00	-44.215	39.395	
168.00	-43.918	40.525	
169.00	-43.639	47.709	
170.00	-43.477	43.401	
171.00	-43.388	50.576	
172.00	-43.235	43.663	
173.00	-43.059	53.785	
174.00	-42.987	50.225	
175.00	-42.864	56.119	
176.00	-42.929	49.031	
177.00	-42.893	51.895	
178.00	-42.823	47.940	
179.00	-42.878	50.200	
180.00	-42.863	48.887	
181.00	-42.786	43.325	
182.00	-42.931	45.374	
183.00	-42.883	37.632	
184.00	-42.948	39.182	
185.00	-43.049	29.578	
186.00	-43.180	27.120	
187.00	-43.268	18.421	
188.00	-43.310	16.526	
189.00	-43.439	7.347	
190.00	-43.566	5.681	
191.00	-43.707	-7.034	
192.00	-43.847	-11.206	
193.00	-44.103	-18.504	
194.00	-44.287	-25.566	
195.00	-44.509	-35.436	
196.00	-44.885	-44.124	
197.00	-45.091	-53.699	
198.00	-45.347	-63.605	
199.00	-45.624	-71.539	
200.00	-45.853	-86.213	
201.00	-46.238	-94.914	
202.00	-46.497	-110.804	
203.00	-46.843	-119.078	
204.00	-47.120	-133.684	
205.00	-47.579	-144.106	
206.00	-47.889	-159.296	
207.00	-48.171	-171.871	
208.00	-48.495	178.910	
209.00	-48.870	160.932	
210.00	-49.246	149.368	
211.00	-49.825	135.486	
212.00	-50.357	118.522	
213.00	-50.899	103.633	
214.00	-51.571	85.663	
215.00	-52.359	71.090	
216.00	-53.016	51.393	
217.00	-53.934	34.379	
218.00	-54.633	12.859	
219.00	-55.282	-7.313	
220.00	-55.726	-26.094	
221.00	-56.216	-46.537	
222.00	-56.791	-69.191	
223.00	-57.520	-88.516	
224.00	-58.046	-113.190	
225.00	-58.109	-134.870	
226.00	-58.055	-162.377	
227.00	-58.010	170.467	
228.00	-57.863	148.062	
229.00	-57.708	125.179	
230.00	-57.524	103.008	
231.00	-57.537	83.122	
232.00	-57.741	58.932	
233.00	-57.106	35.173	
234.00	-56.877	12.226	
235.00	-56.491	-9.812	
236.00	-56.561	-34.082	
237.00	-56.220	-58.987	
238.00	-55.997	-80.111	
239.00	-55.992	-97.301	
240.00	-56.026	-119.669	
241.00	-55.698	-146.641	
242.00	-55.512	-161.789	
243.00	-55.156	169.393	
244.00	-55.132	156.607	
245.00	-55.934	134.917	
246.00	-55.829	114.089	
247.00	-56.638	94.643	
248.00	-57.881	77.111	
249.00	-58.020	51.136	
250.00	-59.177	29.443	
251.00	-59.751	0.289	
252.00	-60.052	-21.503	
253.00	-59.876	-50.271	
254.00	-59.945	-70.741	
255.00	-60.240	-95.958	
256.00	-60.935	-117.907	
257.00	-61.208	-144.890	
258.00	-62.152	-165.617	
259.00	-61.496	170.594	
260.00	-61.832	153.369	
261.00	-62.772	127.620	
262.00	-63.413	107.433	
263.00	-63.194	89.482	
264.00	-64.422	68.602	
265.00	-64.642	55.685	
266.00	-65.986	39.484	
267.00	-67.150	29.509	
268.00	-69.702	26.667	
269.00	-70.751	18.184	
270.00	-70.321	29.963	
271.00	-73.912	32.037	
272.00	-71.871	34.167	
273.00	-71.549	44.026	
274.00	-72.922	30.373	
275.00	-76.912	24.009	
276.00	-71.162	-12.702	
277.00	-72.270	-29.880	
278.00	-72.918	-34.195	
279.00	-72.859	-53.415	
280.00	-69.099	-74.721	
281.00	-72.563	-79.408	
282.00	-69.513	-98.336	
283.00	-70.755	-108.605	
284.00	-70.463	-116.630	
285.00	-71.378	-126.035	
286.00	-73.907	-132.215	
287.00	-74.393	-102.840	
288.00	-70.210	-99.343	
289.00	-68.970	-99.361	
290.00	-67.911	-95.677	
291.00	-67.230	-94.188	
292.00	-68.457	-110.171	
293.00	-69.513	-116.602	
294.00	-73.315	-134.919	
295.00	-76.115	-174.177	
296.00	-76.953	133.659	
297.00	-69.574	77.074	
298.00	-69.565	41.511	
299.00	-66.671	40.402	
300.00	-64.950	26.381	
301.00	-63.004	13.403	
302.00	-63.075	-5.218	
303.00	-63.481	-20.911	
304.00	-62.446	-42.019	
305.00	-62.312	-64.025	
306.00	-61.722	-71.179	
307.00	-62.532	-102.162	
308.00	-61.205	-123.357	
309.00	-61.660	-132.287	
310.00	-60.417	-146.918	
311.00	-60.849	-160.184	
312.00	-60.451	-172.693	
313.00	-60.587	165.897	
314.00	-60.464	154.903	
315.00	-61.570	143.097	
316.00	-60.727	133.490	
317.00	-62.422	119.837	
318.00	-62.285	110.416	
319.00	-62.869	94.004	
320.00	-62.995	84.287	
321.00	-63.929	74.018	
322.00	-63.787	66.869	
323.00	-64.487	57.672	
324.00	-64.114	47.102	
325.00	-65.496	39.248	
326.00	-67.060	45.324	
327.00	-65.968	47.185	
328.00	-67.773	51.624	
329.00	-67.236	49.011	
330.00	-66.155	49.316	
331.00	-66.364	54.742	
332.00	-65.490	51.424	
333.00	-64.325	52.227	
334.00	-65.089	50.126	
335.00	-63.422	56.002	
336.00	-64.386	41.918	
337.00	-64.347	40.638	
338.00	-65.160	42.556	
339.00	-64.503	29.127	
340.00	-64.954	27.342	
341.00	-66.667	23.388	
342.00	-67.897	6.171	
343.00	-68.193	-11.882	
344.00	-68.199	-41.365	
345.00	-70.350	-48.315	
346.00	-72.097	-64.047	
347.00	-69.425	-85.538	
348.00	-68.517	-104.316	
349.00	-67.433	-116.793	
350.00	-66.805	-128.667	
351.00	-67.010	-125.853	
352.00	-67.552	-146.609	
353.00	-66.961	-155.006	
354.00	-66.800	-150.863	
355.00	-68.030	-172.533	
356.00	-69.896	171.356	
357.00	-70.465	165.213	
358.00	-71.987	152.533	
359.00	-69.292	155.902	
Frequency	2600.00	MHz	
Channel	test		
Scan Axis name	Azimuth  [deg]		
Scan Axis	Amplitude	Phase	
			
0.00	-65.296	-51.074	
1.00	-65.383	-41.162	
2.00	-63.016	-46.082	
3.00	-61.678	-35.168	
4.00	-60.867	-32.179	
5.00	-60.402	-34.937	
6.00	-59.892	-28.908	
7.00	-60.318	-28.912	
8.00	-60.110	-19.966	
9.00	-59.462	-18.863	
10.00	-61.215	-12.982	
11.00	-60.701	-6.362	
12.00	-62.440	1.814	
13.00	-62.877	15.766	
14.00	-63.919	24.055	
15.00	-64.053	34.536	
16.00	-63.418	49.969	
17.00	-63.854	62.664	
18.00	-64.117	77.773	
19.00	-64.954	81.178	
20.00	-67.252	96.844	
21.00	-67.790	105.669	
22.00	-69.989	135.475	
23.00	-69.933	-178.687	
24.00	-69.793	-158.342	
25.00	-64.911	-133.882	
26.00	-64.604	-116.853	
27.00	-63.052	-107.846	
28.00	-62.327	-95.849	
29.00	-62.040	-84.849	
30.00	-61.996	-75.252	
31.00	-62.189	-61.790	
32.00	-62.152	-51.550	
33.00	-63.519	-40.516	
34.00	-64.244	-30.684	
35.00	-65.897	-8.512	
36.00	-66.402	15.090	
37.00	-66.933	27.788	
38.00	-67.273	48.257	
39.00	-68.199	63.243	
40.00	-69.713	105.783	
41.00	-70.780	110.546	
42.00	-70.311	144.910	
43.00	-70.629	176.026	
44.00	-71.424	-164.073	
45.00	-70.118	-130.820	
46.00	-68.701	-101.611	
47.00	-67.492	-86.571	
48.00	-66.177	-76.163	
49.00	-65.121	-64.729	
50.00	-63.849	-59.217	
51.00	-63.898	-54.965	
52.00	-63.054	-58.729	
53.00	-63.190	-61.369	
54.00	-62.427	-54.034	
55.00	-61.996	-51.603	
56.00	-61.696	-47.192	
57.00	-61.638	-48.758	
58.00	-61.520	-36.610	
59.00	-61.061	-30.062	
60.00	-60.946	-8.924	
61.00	-60.858	5.008	
62.00	-60.336	25.855	
63.00	-60.060	44.810	
64.00	-59.712	64.837	
65.00	-58.991	85.959	
66.00	-59.080	99.885	
67.00	-59.013	120.779	
68.00	-59.360	140.931	
69.00	-59.338	163.064	
70.00	-59.638	-177.336	
71.00	-59.774	-151.394	
72.00	-59.428	-125.004	
73.00	-58.613	-99.047	
74.00	-58.090	-79.169	
75.00	-57.802	-58.687	
76.00	-57.284	-41.083	
77.00	-57.659	-19.650	
78.00	-58.067	-2.092	
79.00	-58.794	22.119	
80.00	-58.610	45.928	
81.00	-59.511	70.769	
82.00	-60.606	88.846	
83.00	-60.581	116.567	
84.00	-61.227	134.636	
85.00	-62.025	179.427	
86.00	-62.962	-150.042	
87.00	-61.779	-115.407	
88.00	-61.182	-92.670	
89.00	-60.778	-67.621	
90.00	-60.140	-42.238	
91.00	-59.992	-23.020	
92.00	-59.831	10.522	
93.00	-59.553	32.881	
94.00	-59.580	61.176	
95.00	-59.289	84.902	
96.00	-58.609	104.568	
97.00	-58.645	129.724	
98.00	-58.720	157.072	
99.00	-59.279	179.211	
100.00	-58.736	-151.589	
101.00	-58.741	-127.169	
102.00	-58.595	-108.319	
103.00	-58.173	-84.218	
104.00	-58.653	-72.385	
105.00	-59.297	-50.603	
106.00	-61.568	-35.157	
107.00	-62.664	-17.419	
108.00	-66.966	5.931	
109.00	-74.043	66.964	
110.00	-71.053	161.789	
111.00	-66.152	-173.489	
112.00	-61.596	-153.725	
113.00	-60.341	-127.755	
114.00	-58.537	-115.240	
115.00	-56.674	-96.849	
116.00	-56.111	-80.148	
117.00	-55.503	-63.539	
118.00	-55.513	-52.728	
119.00	-55.315	-33.043	
120.00	-55.479	-22.354	
121.00	-55.980	3.864	
122.00	-56.583	20.620	
123.00	-56.505	48.571	
124.00	-56.117	69.262	
125.00	-55.794	98.912	
126.00	-55.163	115.720	
127.00	-54.302	132.044	
128.00	-53.592	152.605	
129.00	-53.429	168.342	
130.00	-53.126	-172.165	
131.00	-52.809	-158.444	
132.00	-52.910	-144.600	
133.00	-53.025	-128.234	
134.00	-53.310	-110.338	
135.00	-53.752	-101.594	
136.00	-54.274	-84.256	
137.00	-54.496	-69.062	
138.00	-54.399	-52.429	
139.00	-54.055	-36.379	
140.00	-54.205	-23.653	
141.00	-54.142	-8.761	
142.00	-53.716	3.786	
143.00	-53.205	19.972	
144.00	-53.367	26.088	
145.00	-52.965	37.191	
146.00	-52.996	45.254	
147.00	-52.737	62.000	
148.00	-52.319	63.497	
149.00	-52.421	73.269	
150.00	-52.196	76.664	
151.00	-52.169	87.013	
152.00	-51.822	96.016	
153.00	-51.448	96.984	
154.00	-51.001	108.630	
155.00	-50.667	109.574	
156.00	-50.087	117.404	
157.00	-49.824	126.141	
158.00	-49.253	127.843	
159.00	-48.869	129.554	
160.00	-48.570	139.999	
161.00	-48.189	137.570	
162.00	-47.808	147.996	
163.00	-47.562	147.320	
164.00	-47.412	155.509	
165.00	-47.034	159.085	
166.00	-46.817	167.780	
167.00	-46.513	171.216	
168.00	-46.384	172.644	
169.00	-46.109	-178.982	
170.00	-45.726	176.596	
171.00	-45.684	-175.701	
172.00	-45.419	177.807	
173.00	-45.361	-171.588	
174.00	-44.979	-175.060	
175.00	-45.005	-169.138	
176.00	-44.912	-176.236	
177.00	-44.906	-174.430	
178.00	-44.808	-178.631	
179.00	-44.868	-177.545	
180.00	-44.846	-177.484	
181.00	-44.885	176.027	
182.00	-44.994	178.563	
183.00	-45.073	169.001	
184.00	-45.215	170.222	
185.00	-45.317	160.636	
186.00	-45.391	158.155	
187.00	-45.507	149.633	
188.00	-45.521	146.100	
189.00	-45.783	137.382	
190.00	-45.794	133.955	
191.00	-45.861	121.264	
192.00	-45.922	117.294	
193.00	-46.066	110.128	
194.00	-46.252	103.079	
195.00	-46.357	93.902	
196.00	-46.680	84.651	
197.00	-46.736	76.883	
198.00	-47.179	66.318	
199.00	-47.446	59.122	
200.00	-47.657	45.576	
201.00	-48.135	36.369	
202.00	-48.486	20.532	
203.00	-49.096	11.427	
204.00	-49.488	-3.713	
205.00	-49.692	-15.338	
206.00	-49.934	-31.373	
207.00	-50.311	-45.016	
208.00	-50.444	-53.944	
209.00	-50.810	-73.309	
210.00	-51.248	-83.181	
211.00	-51.857	-93.726	
212.00	-52.272	-113.104	
213.00	-53.158	-125.919	
214.00	-53.669	-141.799	
215.00	-55.028	-156.794	
216.00	-55.829	-173.827	
217.00	-57.995	167.764	
218.00	-59.427	150.272	
219.00	-62.078	124.712	
220.00	-63.954	89.768	
221.00	-64.854	40.864	
222.00	-62.131	12.182	
223.00	-60.405	-18.154	
224.00	-58.700	-41.170	
225.00	-57.194	-63.000	
226.00	-56.242	-80.783	
227.00	-55.808	-98.854	
228.00	-54.847	-118.898	
229.00	-54.767	-137.452	
230.00	-54.068	-156.516	
231.00	-54.065	-171.927	
232.00	-53.719	165.351	
233.00	-53.722	146.561	
234.00	-53.549	127.552	
235.00	-53.766	107.282	
236.00	-53.631	82.114	
237.00	-53.614	62.441	
238.00	-53.228	39.319	
239.00	-53.214	20.771	
240.00	-53.161	3.022	
241.00	-53.651	-22.886	
242.00	-53.373	-37.852	
243.00	-53.787	-68.481	
244.00	-54.247	-82.889	
245.00	-54.677	-107.700	
246.00	-54.843	-126.902	
247.00	-55.141	-152.634	
248.00	-54.667	-170.707	
249.00	-56.578	164.879	
250.00	-57.245	147.007	
251.00	-57.915	122.543	
252.00	-59.111	101.782	
253.00	-60.441	71.554	
254.00	-60.975	35.789	
255.00	-61.051	9.772	
256.00	-61.260	-17.270	
257.00	-60.392	-43.433	
258.00	-60.113	-66.017	
259.00	-60.976	-90.073	
260.00	-60.868	-110.481	
261.00	-62.472	-134.466	
262.00	-62.290	-150.197	
263.00	-63.167	-168.836	
264.00	-65.286	176.266	
265.00	-67.900	158.316	
266.00	-78.173	123.631	
267.00	-85.276	-6.494	
268.00	-69.552	-40.959	
269.00	-66.494	-65.177	
270.00	-63.366	-76.636	
271.00	-62.944	-88.787	
272.00	-61.909	-103.851	
273.00	-61.325	-117.314	
274.00	-61.727	-129.160	
275.00	-63.029	-146.004	
276.00	-63.299	-164.177	
277.00	-64.056	175.370	
278.00	-66.994	152.089	
279.00	-69.997	136.185	
280.00	-73.229	97.042	
281.00	-73.542	63.115	
282.00	-74.946	16.337	
283.00	-71.886	-30.305	
284.00	-70.346	-60.378	
285.00	-68.096	-77.044	
286.00	-68.457	-106.427	
287.00	-69.026	-121.651	
288.00	-69.717	-148.922	
289.00	-70.869	-171.289	
290.00	-70.573	-178.817	
291.00	-71.541	162.761	
292.00	-69.546	130.569	
293.00	-70.522	120.257	
294.00	-68.665	106.181	
295.00	-68.739	92.364	
296.00	-68.485	81.506	
297.00	-68.319	66.342	
298.00	-67.719	74.294	
299.00	-68.484	74.736	
300.00	-71.162	79.551	
301.00	-70.437	68.188	
302.00	-73.159	50.245	
303.00	-73.516	40.858	
304.00	-69.772	10.516	
305.00	-71.606	-9.068	
306.00	-72.273	-11.569	
307.00	-72.121	-52.641	
308.00	-68.671	-66.756	
309.00	-71.062	-81.518	
310.00	-67.286	-76.373	
311.00	-65.499	-88.327	
312.00	-67.022	-96.421	
313.00	-66.750	-105.121	
314.00	-66.976	-103.145	
315.00	-71.945	-121.749	
316.00	-70.638	-91.276	
317.00	-71.097	-90.646	
318.00	-71.817	-73.821	
319.00	-73.825	-53.752	
320.00	-71.420	-42.803	
321.00	-71.620	-23.948	
322.00	-69.129	-14.264	
323.00	-66.096	11.571	
324.00	-66.464	11.451	
325.00	-66.741	-2.294	
326.00	-65.138	6.533	
327.00	-64.712	-12.291	
328.00	-64.133	0.236	
329.00	-62.374	-8.088	
330.00	-62.990	-17.553	
331.00	-61.681	-20.923	
332.00	-61.876	-23.506	
333.00	-61.832	-28.366	
334.00	-61.141	-35.907	
335.00	-60.729	-47.044	
336.00	-60.295	-47.194	
337.00	-61.101	-50.086	
338.00	-60.270	-56.219	
339.00	-60.622	-69.741	
340.00	-60.416	-77.832	
341.00	-60.701	-78.641	
342.00	-60.676	-93.273	
343.00	-60.592	-95.790	
344.00	-61.114	-102.925	
345.00	-61.658	-115.489	
346.00	-60.967	-116.324	
347.00	-62.492	-121.693	
348.00	-63.474	-124.700	
349.00	-63.574	-132.519	
350.00	-63.302	-147.389	
351.00	-65.317	-150.281	
352.00	-66.964	-151.221	
353.00	-66.867	-148.543	
354.00	-68.515	-152.794	
355.00	-71.505	-144.115	
356.00	-72.547	-99.102	
357.00	-69.522	-72.260	
358.00	-69.351	-52.083	
359.00	-68.560	-65.639	
Frequency	2650.00	MHz	
Channel	test		
Scan Axis name	Azimuth  [deg]		
Scan Axis	Amplitude	Phase	
			
0.00	-67.169	-16.407	
1.00	-69.070	-1.067	
2.00	-71.334	-25.924	
3.00	-71.767	-6.963	
4.00	-75.821	23.533	
5.00	-70.237	17.822	
6.00	-66.693	72.350	
7.00	-71.070	125.768	
8.00	-68.965	161.539	
9.00	-67.588	143.889	
10.00	-65.673	155.383	
11.00	-63.939	155.814	
12.00	-62.241	162.173	
13.00	-60.802	176.777	
14.00	-59.434	178.803	
15.00	-60.036	173.853	
16.00	-58.706	175.848	
17.00	-60.405	-167.844	
18.00	-60.477	-159.844	
19.00	-60.058	-162.876	
20.00	-60.928	-157.071	
21.00	-61.001	-159.557	
22.00	-62.604	-152.516	
23.00	-63.975	-148.827	
24.00	-64.494	-154.413	
25.00	-67.511	-143.485	
26.00	-67.031	-147.960	
27.00	-69.114	-166.812	
28.00	-67.896	177.800	
29.00	-69.781	-178.052	
30.00	-65.897	179.970	
31.00	-65.567	-171.846	
32.00	-63.266	-165.198	
33.00	-62.712	-158.274	
34.00	-61.387	-150.892	
35.00	-59.968	-134.740	
36.00	-59.432	-131.070	
37.00	-58.907	-118.192	
38.00	-58.521	-107.244	
39.00	-58.413	-100.181	
40.00	-58.369	-82.369	
41.00	-57.825	-67.362	
42.00	-58.398	-54.704	
43.00	-58.173	-35.549	
44.00	-58.190	-21.176	
45.00	-58.277	-3.478	
46.00	-58.052	13.769	
47.00	-58.339	28.590	
48.00	-58.914	42.924	
49.00	-58.629	57.880	
50.00	-59.512	66.756	
51.00	-60.550	79.670	
52.00	-62.411	90.875	
53.00	-64.903	100.014	
54.00	-69.110	111.136	
55.00	-73.295	82.956	
56.00	-78.405	11.387	
57.00	-71.840	-8.987	
58.00	-70.420	-7.368	
59.00	-68.166	8.018	
60.00	-68.872	18.381	
61.00	-70.411	22.437	
62.00	-77.661	41.740	
63.00	-77.129	95.943	
64.00	-72.477	-171.342	
65.00	-70.487	-120.900	
66.00	-67.824	-109.084	
67.00	-62.615	-86.412	
68.00	-62.603	-76.554	
69.00	-60.084	-60.513	
70.00	-59.739	-42.832	
71.00	-58.120	-15.028	
72.00	-58.095	-7.008	
73.00	-57.144	20.687	
74.00	-57.914	36.406	
75.00	-57.855	59.234	
76.00	-57.607	82.072	
77.00	-57.454	112.474	
78.00	-56.813	142.818	
79.00	-56.149	153.790	
80.00	-55.117	167.956	
81.00	-54.653	-153.234	
82.00	-55.253	-137.624	
83.00	-55.436	-116.661	
84.00	-55.773	-100.641	
85.00	-54.895	-67.385	
86.00	-57.835	-52.547	
87.00	-54.887	-21.616	
88.00	-55.742	-10.114	
89.00	-57.243	13.654	
90.00	-55.513	35.632	
91.00	-57.408	59.860	
92.00	-57.556	102.993	
93.00	-60.407	129.208	
94.00	-58.004	141.721	
95.00	-57.736	-175.211	
96.00	-58.524	-150.089	
97.00	-57.748	-127.978	
98.00	-58.285	-91.444	
99.00	-57.535	-69.828	
100.00	-58.688	-41.697	
101.00	-58.087	-10.334	
102.00	-59.435	5.799	
103.00	-58.854	39.557	
104.00	-58.658	45.194	
105.00	-58.551	71.580	
106.00	-60.136	93.068	
107.00	-59.552	122.107	
108.00	-60.679	145.103	
109.00	-61.105	167.824	
110.00	-62.674	-163.192	
111.00	-62.904	-140.401	
112.00	-65.734	-107.547	
113.00	-64.643	-58.449	
114.00	-64.894	-39.206	
115.00	-59.952	14.893	
116.00	-60.751	34.304	
117.00	-59.439	51.349	
118.00	-57.648	67.031	
119.00	-57.076	93.309	
120.00	-56.563	102.892	
121.00	-56.384	129.072	
122.00	-55.261	138.565	
123.00	-55.047	160.080	
124.00	-54.681	174.798	
125.00	-55.213	-152.979	
126.00	-55.339	-147.123	
127.00	-55.620	-129.241	
128.00	-56.147	-103.182	
129.00	-56.230	-89.774	
130.00	-56.560	-62.276	
131.00	-56.928	-45.848	
132.00	-56.057	-23.770	
133.00	-55.760	-13.817	
134.00	-55.893	10.973	
135.00	-56.071	22.240	
136.00	-55.812	33.589	
137.00	-57.389	53.224	
138.00	-56.260	79.009	
139.00	-56.494	84.105	
140.00	-56.856	94.795	
141.00	-56.569	110.762	
142.00	-56.620	132.851	
143.00	-55.964	148.071	
144.00	-57.302	158.492	
145.00	-56.063	174.696	
146.00	-55.986	-175.387	
147.00	-55.693	-155.145	
148.00	-55.305	-155.419	
149.00	-54.998	-144.245	
150.00	-54.289	-140.695	
151.00	-54.571	-130.871	
152.00	-53.885	-118.170	
153.00	-52.989	-121.967	
154.00	-52.603	-108.559	
155.00	-51.948	-107.945	
156.00	-51.248	-101.584	
157.00	-50.927	-93.361	
158.00	-50.179	-89.418	
159.00	-49.707	-89.599	
160.00	-49.067	-79.485	
161.00	-48.579	-81.677	
162.00	-48.032	-72.303	
163.00	-47.585	-73.512	
164.00	-47.164	-63.781	
165.00	-46.628	-59.757	
166.00	-46.237	-53.753	
167.00	-46.016	-50.000	
168.00	-45.754	-48.374	
169.00	-45.317	-40.851	
170.00	-45.066	-44.377	
171.00	-44.791	-36.766	
172.00	-44.622	-43.549	
173.00	-44.375	-33.753	
174.00	-44.236	-37.148	
175.00	-44.215	-31.402	
176.00	-44.246	-38.144	
177.00	-44.182	-36.412	
178.00	-44.182	-40.738	
179.00	-44.097	-38.496	
180.00	-44.347	-38.460	
181.00	-44.379	-45.899	
182.00	-44.489	-41.462	
183.00	-44.787	-51.221	
184.00	-44.864	-50.997	
185.00	-45.151	-60.514	
186.00	-45.518	-62.296	
187.00	-45.800	-72.656	
188.00	-45.998	-75.112	
189.00	-46.614	-86.233	
190.00	-46.525	-87.773	
191.00	-46.885	-102.639	
192.00	-47.532	-107.441	
193.00	-47.509	-116.062	
194.00	-47.803	-125.565	
195.00	-47.757	-136.852	
196.00	-48.135	-146.645	
197.00	-48.389	-156.317	
198.00	-48.706	-168.391	
199.00	-48.746	-177.838	
200.00	-48.809	166.730	
201.00	-48.831	158.123	
202.00	-48.868	141.840	
203.00	-49.244	134.135	
204.00	-48.828	118.926	
205.00	-49.348	111.105	
206.00	-49.508	95.880	
207.00	-49.676	86.694	
208.00	-50.068	78.534	
209.00	-50.457	60.875	
210.00	-51.062	51.189	
211.00	-52.125	39.711	
212.00	-52.243	24.729	
213.00	-52.963	15.654	
214.00	-54.409	3.580	
215.00	-55.710	-5.150	
216.00	-57.272	-22.458	
217.00	-62.495	-27.740	
218.00	-64.523	-36.634	
219.00	-69.654	-28.833	
220.00	-74.733	84.666	
221.00	-67.514	58.907	
222.00	-60.983	75.446	
223.00	-60.671	60.523	
224.00	-57.552	48.142	
225.00	-56.623	31.817	
226.00	-56.183	17.479	
227.00	-55.057	5.580	
228.00	-54.381	-13.700	
229.00	-54.397	-28.700	
230.00	-54.442	-45.698	
231.00	-54.673	-65.194	
232.00	-54.995	-91.447	
233.00	-54.410	-117.602	
234.00	-54.386	-132.816	
235.00	-52.785	-161.096	
236.00	-52.586	-178.449	
237.00	-52.622	162.418	
238.00	-52.508	139.416	
239.00	-52.393	120.877	
240.00	-52.671	102.853	
241.00	-52.806	76.101	
242.00	-53.266	58.194	
243.00	-52.917	28.640	
244.00	-52.745	19.262	
245.00	-52.766	-6.046	
246.00	-52.797	-29.485	
247.00	-54.118	-48.280	
248.00	-54.716	-72.938	
249.00	-55.319	-94.104	
250.00	-55.859	-118.524	
251.00	-57.666	-144.215	
252.00	-56.255	-174.252	
253.00	-59.026	153.293	
254.00	-57.210	125.501	
255.00	-58.179	103.488	
256.00	-55.777	81.960	
257.00	-58.391	62.054	
258.00	-57.214	37.201	
259.00	-59.219	15.168	
260.00	-59.365	-5.165	
261.00	-58.992	-33.133	
262.00	-58.759	-65.906	
263.00	-63.125	-83.576	
264.00	-60.184	-139.202	
265.00	-60.976	-170.046	
266.00	-58.836	-173.021	
267.00	-59.037	158.682	
268.00	-56.669	143.724	
269.00	-58.241	119.942	
270.00	-59.014	115.800	
271.00	-58.825	86.803	
272.00	-60.264	57.139	
273.00	-62.173	30.746	
274.00	-63.011	16.127	
275.00	-62.411	-12.522	
276.00	-64.961	-26.745	
277.00	-64.523	-67.297	
278.00	-70.045	-85.373	
279.00	-70.644	-79.107	
280.00	-80.356	1.615	
281.00	-80.253	-90.879	
282.00	-75.332	76.722	
283.00	-76.661	114.538	
284.00	-74.218	68.353	
285.00	-76.163	2.311	
286.00	-73.460	18.122	
287.00	-78.200	-8.821	
288.00	-72.911	-59.199	
289.00	-71.479	-111.209	
290.00	-72.923	-102.756	
291.00	-73.970	-119.039	
292.00	-71.148	-148.479	
293.00	-70.196	-142.185	
294.00	-69.754	-170.322	
295.00	-77.534	145.989	
296.00	-75.858	173.868	
297.00	-78.573	111.025	
298.00	-78.040	134.212	
299.00	-75.935	110.972	
300.00	-78.672	101.590	
301.00	-72.050	86.881	
302.00	-69.898	90.181	
303.00	-70.414	77.086	
304.00	-65.852	84.761	
305.00	-70.570	67.093	
306.00	-68.011	57.953	
307.00	-65.427	54.569	
308.00	-68.033	33.425	
309.00	-65.718	25.742	
310.00	-66.659	28.316	
311.00	-67.077	20.036	
312.00	-68.573	8.077	
313.00	-73.204	-10.448	
314.00	-72.509	-32.534	
315.00	-79.296	-105.588	
316.00	-78.188	-163.320	
317.00	-73.338	128.436	
318.00	-70.806	141.744	
319.00	-68.636	150.805	
320.00	-65.304	126.894	
321.00	-64.047	121.580	
322.00	-62.222	114.902	
323.00	-61.856	108.213	
324.00	-61.057	110.231	
325.00	-62.180	93.206	
326.00	-61.879	90.081	
327.00	-62.378	88.289	
328.00	-63.227	86.487	
329.00	-63.679	79.737	
330.00	-63.849	62.675	
331.00	-65.768	66.062	
332.00	-68.432	51.679	
333.00	-71.884	59.137	
334.00	-75.693	23.247	
335.00	-90.794	1.420	
336.00	-86.594	96.976	
337.00	-76.263	-89.684	
338.00	-71.344	-110.737	
339.00	-73.278	-139.314	
340.00	-68.318	-119.804	
341.00	-69.119	-110.756	
342.00	-68.813	-119.992	
343.00	-65.372	-110.300	
344.00	-68.189	-101.971	
345.00	-65.690	-96.898	
346.00	-63.362	-94.723	
347.00	-64.460	-105.406	
348.00	-63.701	-89.974	
349.00	-68.265	-91.981	
350.00	-65.775	-76.618	
351.00	-66.362	-73.649	
352.00	-62.557	-77.299	
353.00	-64.328	-64.270	
354.00	-67.949	-49.618	
355.00	-64.321	-46.968	
356.00	-64.414	-47.218	
357.00	-62.966	-49.807	
358.00	-63.531	-29.277	
359.00	-64.297	-35.726	
Frequency	2700.00	MHz	
Channel	test		
Scan Axis name	Azimuth  [deg]		
Scan Axis	Amplitude	Phase	
			
0.00	-62.129	59.648	
1.00	-61.724	64.437	
2.00	-62.216	77.840	
3.00	-62.719	80.618	
4.00	-61.505	86.232	
5.00	-61.363	89.724	
6.00	-62.520	94.634	
7.00	-62.210	102.795	
8.00	-62.296	94.408	
9.00	-63.856	100.856	
10.00	-64.767	101.002	
11.00	-65.625	93.118	
12.00	-68.258	115.978	
13.00	-73.609	74.352	
14.00	-76.603	71.472	
15.00	-82.497	-24.727	
16.00	-69.510	-20.096	
17.00	-66.553	-27.189	
18.00	-61.725	-14.999	
19.00	-61.759	-22.593	
20.00	-59.901	-20.323	
21.00	-59.737	-11.866	
22.00	-58.816	-7.128	
23.00	-57.842	0.112	
24.00	-57.454	1.029	
25.00	-57.191	8.413	
26.00	-57.314	22.620	
27.00	-57.821	19.333	
28.00	-57.174	27.619	
29.00	-57.684	33.020	
30.00	-59.341	37.529	
31.00	-58.909	48.978	
32.00	-59.106	45.477	
33.00	-61.559	55.666	
34.00	-62.873	58.881	
35.00	-66.766	80.754	
36.00	-66.710	63.372	
37.00	-68.156	75.866	
38.00	-67.185	88.184	
39.00	-70.604	95.572	
40.00	-65.828	108.651	
41.00	-66.257	143.372	
42.00	-66.343	172.493	
43.00	-65.219	174.179	
44.00	-64.136	-164.756	
45.00	-62.774	-157.653	
46.00	-63.310	-149.978	
47.00	-65.088	-133.920	
48.00	-67.191	-128.120	
49.00	-70.403	-105.462	
50.00	-71.370	-45.805	
51.00	-64.634	-1.773	
52.00	-62.774	4.394	
53.00	-59.413	23.529	
54.00	-58.736	57.071	
55.00	-57.733	65.309	
56.00	-57.630	80.251	
57.00	-59.634	98.773	
58.00	-56.895	113.962	
59.00	-56.302	133.646	
60.00	-57.235	155.293	
61.00	-57.121	174.451	
62.00	-58.236	-155.588	
63.00	-59.520	-134.193	
64.00	-57.809	-121.841	
65.00	-59.328	-89.716	
66.00	-59.854	-68.156	
67.00	-60.916	-27.001	
68.00	-61.491	-15.826	
69.00	-60.895	24.286	
70.00	-59.212	42.710	
71.00	-60.220	66.421	
72.00	-56.924	91.529	
73.00	-58.540	122.250	
74.00	-58.178	142.372	
75.00	-56.508	170.309	
76.00	-57.114	-170.198	
77.00	-57.009	-143.507	
78.00	-56.639	-121.121	
79.00	-57.418	-87.305	
80.00	-54.873	-62.932	
81.00	-54.600	-39.548	
82.00	-54.126	-23.749	
83.00	-54.877	7.761	
84.00	-53.809	7.199	
85.00	-55.717	42.786	
86.00	-54.445	58.521	
87.00	-56.673	88.216	
88.00	-55.877	112.958	
89.00	-55.366	124.407	
90.00	-56.938	157.992	
91.00	-58.375	-174.209	
92.00	-56.670	-138.053	
93.00	-60.058	-104.853	
94.00	-59.501	-71.918	
95.00	-57.852	-63.355	
96.00	-57.107	-17.133	
97.00	-58.891	22.640	
98.00	-58.514	24.857	
99.00	-56.919	80.631	
100.00	-57.041	87.857	
101.00	-58.187	125.371	
102.00	-57.444	143.852	
103.00	-57.687	164.711	
104.00	-58.128	-158.883	
105.00	-56.902	-137.464	
106.00	-57.843	-122.857	
107.00	-57.550	-92.644	
108.00	-56.609	-65.180	
109.00	-57.520	-36.702	
110.00	-57.576	-19.686	
111.00	-57.527	17.499	
112.00	-58.368	33.335	
113.00	-57.851	52.695	
114.00	-58.026	69.079	
115.00	-56.781	107.831	
116.00	-57.565	124.932	
117.00	-57.071	149.016	
118.00	-57.282	-179.391	
119.00	-56.858	-166.353	
120.00	-56.743	-157.341	
121.00	-57.943	-122.399	
122.00	-57.619	-114.941	
123.00	-57.009	-79.977	
124.00	-57.438	-62.543	
125.00	-59.696	-33.204	
126.00	-58.643	-15.994	
127.00	-59.096	4.143	
128.00	-59.450	30.197	
129.00	-59.823	46.148	
130.00	-60.389	74.774	
131.00	-58.887	94.825	
132.00	-59.895	127.015	
133.00	-58.964	143.199	
134.00	-57.603	166.001	
135.00	-58.517	174.261	
136.00	-57.615	-164.522	
137.00	-57.298	-156.463	
138.00	-57.231	-139.557	
139.00	-58.623	-114.447	
140.00	-57.540	-107.374	
141.00	-57.732	-87.569	
142.00	-57.145	-69.683	
143.00	-57.504	-50.474	
144.00	-56.390	-42.953	
145.00	-55.836	-32.775	
146.00	-55.302	-24.432	
147.00	-55.587	-5.193	
148.00	-55.972	-2.372	
149.00	-55.437	8.934	
150.00	-54.483	13.891	
151.00	-54.450	22.322	
152.00	-53.763	32.756	
153.00	-53.536	29.263	
154.00	-52.634	42.712	
155.00	-53.135	46.466	
156.00	-51.868	55.208	
157.00	-51.196	64.180	
158.00	-50.573	65.714	
159.00	-49.801	68.811	
160.00	-49.382	78.444	
161.00	-48.683	75.506	
162.00	-48.082	88.070	
163.00	-47.449	85.810	
164.00	-47.162	93.224	
165.00	-46.734	97.167	
166.00	-46.296	104.349	
167.00	-45.874	107.547	
168.00	-45.608	107.892	
169.00	-45.395	116.542	
170.00	-45.117	111.192	
171.00	-44.960	120.167	
172.00	-44.849	112.862	
173.00	-44.725	123.337	
174.00	-44.590	120.089	
175.00	-44.709	125.538	
176.00	-44.539	119.259	
177.00	-44.554	122.498	
178.00	-44.477	119.039	
179.00	-44.615	120.795	
180.00	-44.801	120.485	
181.00	-44.846	112.827	
182.00	-44.984	117.318	
183.00	-45.198	107.431	
184.00	-45.397	109.393	
185.00	-45.821	100.520	
186.00	-45.869	96.582	
187.00	-46.315	86.052	
188.00	-46.736	83.943	
189.00	-46.971	75.209	
190.00	-47.471	71.266	
191.00	-47.810	57.257	
192.00	-48.134	52.070	
193.00	-48.665	42.823	
194.00	-49.119	33.905	
195.00	-49.302	22.774	
196.00	-49.597	10.131	
197.00	-49.715	1.706	
198.00	-50.016	-11.079	
199.00	-50.335	-21.209	
200.00	-50.585	-35.420	
201.00	-50.636	-45.120	
202.00	-50.908	-60.861	
203.00	-50.952	-67.316	
204.00	-51.396	-81.271	
205.00	-51.986	-94.100	
206.00	-52.500	-109.662	
207.00	-52.893	-118.970	
208.00	-53.261	-127.466	
209.00	-53.862	-145.010	
210.00	-54.857	-155.500	
211.00	-55.425	-165.694	
212.00	-56.703	175.444	
213.00	-58.245	172.191	
214.00	-59.858	149.429	
215.00	-62.846	133.693	
216.00	-68.150	102.157	
217.00	-73.926	79.483	
218.00	-84.420	-51.643	
219.00	-70.191	-78.057	
220.00	-69.484	-111.083	
221.00	-66.057	-131.542	
222.00	-61.803	-150.349	
223.00	-59.910	-169.841	
224.00	-58.527	166.682	
225.00	-57.208	156.209	
226.00	-56.310	141.446	
227.00	-55.126	120.540	
228.00	-54.786	100.778	
229.00	-53.755	85.132	
230.00	-52.853	66.310	
231.00	-52.757	50.180	
232.00	-52.264	26.460	
233.00	-52.143	7.000	
234.00	-52.052	-6.921	
235.00	-52.090	-28.187	
236.00	-52.250	-48.511	
237.00	-52.245	-74.055	
238.00	-52.423	-95.644	
239.00	-52.090	-117.000	
240.00	-52.115	-136.208	
241.00	-51.787	-164.406	
242.00	-51.537	177.359	
243.00	-51.709	150.179	
244.00	-51.453	134.975	
245.00	-51.561	110.047	
246.00	-51.575	87.441	
247.00	-51.764	66.186	
248.00	-52.160	48.104	
249.00	-52.904	25.711	
250.00	-53.358	5.068	
251.00	-53.896	-17.985	
252.00	-54.739	-39.144	
253.00	-54.951	-68.612	
254.00	-55.597	-95.807	
255.00	-55.913	-120.711	
256.00	-55.181	-144.322	
257.00	-56.473	-169.127	
258.00	-58.026	163.466	
259.00	-58.848	142.987	
260.00	-60.138	106.946	
261.00	-60.359	75.609	
262.00	-60.228	40.227	
263.00	-59.241	19.256	
264.00	-58.723	-6.868	
265.00	-59.440	-30.566	
266.00	-58.887	-53.553	
267.00	-59.374	-75.830	
268.00	-59.863	-108.882	
269.00	-59.989	-131.907	
270.00	-57.650	-160.050	
271.00	-58.019	-168.256	
272.00	-58.298	159.520	
273.00	-61.736	156.912	
274.00	-60.878	126.527	
275.00	-64.715	125.597	
276.00	-61.794	84.627	
277.00	-71.606	60.947	
278.00	-72.131	53.732	
279.00	-79.379	23.944	
280.00	-71.131	-89.000	
281.00	-68.867	-141.011	
282.00	-64.978	-139.193	
283.00	-62.176	-161.147	
284.00	-62.972	176.579	
285.00	-62.171	163.971	
286.00	-63.413	140.020	
287.00	-65.100	138.210	
288.00	-63.553	110.464	
289.00	-64.166	99.696	
290.00	-64.206	90.834	
291.00	-67.113	74.442	
292.00	-66.554	90.443	
293.00	-66.943	76.500	
294.00	-65.628	49.112	
295.00	-69.297	19.333	
296.00	-65.240	22.179	
297.00	-64.650	31.126	
298.00	-61.571	-2.669	
299.00	-62.220	-4.834	
300.00	-61.110	-9.159	
301.00	-58.008	-40.351	
302.00	-58.708	-38.493	
303.00	-60.719	-51.736	
304.00	-61.666	-68.775	
305.00	-60.733	-61.851	
306.00	-62.080	-81.727	
307.00	-63.363	-126.842	
308.00	-63.320	-140.115	
309.00	-66.720	-165.392	
310.00	-66.168	162.022	
311.00	-63.666	152.513	
312.00	-64.486	132.261	
313.00	-64.203	112.422	
314.00	-64.397	96.228	
315.00	-63.178	99.836	
316.00	-65.780	73.010	
317.00	-71.351	44.964	
318.00	-69.015	24.085	
319.00	-70.634	-6.508	
320.00	-76.924	-57.671	
321.00	-68.598	-68.664	
322.00	-66.383	-87.389	
323.00	-63.771	-93.249	
324.00	-64.607	-128.512	
325.00	-63.749	-121.917	
326.00	-63.296	-120.823	
327.00	-64.010	-135.132	
328.00	-65.177	-141.077	
329.00	-61.759	-145.674	
330.00	-66.142	-154.147	
331.00	-66.376	-161.567	
332.00	-66.768	-159.313	
333.00	-70.095	-162.470	
334.00	-72.341	174.629	
335.00	-71.350	176.162	
336.00	-74.470	151.390	
337.00	-73.287	147.719	
338.00	-69.114	153.269	
339.00	-73.991	140.303	
340.00	-74.927	96.628	
341.00	-75.239	117.407	
342.00	-71.465	72.066	
343.00	-71.274	82.885	
344.00	-70.197	78.903	
345.00	-68.665	59.198	
346.00	-70.168	51.893	
347.00	-65.289	43.228	
348.00	-65.700	32.673	
349.00	-65.237	44.704	
350.00	-63.713	43.395	
351.00	-64.754	40.502	
352.00	-62.512	44.465	
353.00	-63.246	49.661	
354.00	-63.538	41.743	
355.00	-61.781	41.351	
356.00	-61.817	61.337	
357.00	-61.937	52.214	
358.00	-63.074	59.413	
359.00	-62.546	63.075	
