Test Title:	Alpha Wireless Indoor Range						
Date:	03/11/2017						
Time:	10:15						
Operator Name:	FL						
Comment:	Version 2 Run 2
Cable length changed						
Caib. File Name:	C:\Program Files\Midas 2.01d\Calibration Files\test sigma 180900.cal						
							
[Scan Axis] Name: 	Azimuth  [deg]Start: 	0.000000	Stop	359.000000	Increment	1.000000[Step Axis] Name: 	Start: 	0.000000	Stop	0.000000	Increment	0.000000[Tert] Name: 	None [Forth] Name: 	None  [ Freq.]  (List) 	MHz.	1694.000000	1710.000000	1800.000000	1850.000000	1950.000000	2050.000000	2170.000000	2300.000000	2350.000000	2400.000000	2450.000000	2496.000000	2550.000000	2600.000000	2650.000000	2700.000000
 [Switch]  	None [Channel]  	test			 [ Beam] 	None			
Database:			
First Question			
2nd			
3rd			
4th			
			
Frequency	1694.00	MHz	
Channel	test		
Scan Axis name	Azimuth  [deg]		
Scan Axis	Amplitude	Phase	
			
0.00	-55.357	-79.752	
1.00	-55.795	-83.580	
2.00	-55.736	-87.788	
3.00	-56.575	-86.489	
4.00	-56.750	-91.381	
5.00	-57.176	-90.449	
6.00	-57.086	-93.832	
7.00	-58.083	-95.808	
8.00	-58.245	-91.822	
9.00	-58.232	-89.978	
10.00	-59.405	-89.263	
11.00	-59.568	-76.106	
12.00	-58.953	-68.836	
13.00	-59.617	-69.267	
14.00	-59.751	-61.315	
15.00	-60.308	-70.072	
16.00	-61.610	-52.471	
17.00	-60.950	-46.008	
18.00	-62.542	-34.672	
19.00	-62.025	-40.573	
20.00	-61.483	-31.039	
21.00	-61.104	-21.195	
22.00	-61.259	-13.743	
23.00	-62.854	-4.954	
24.00	-62.039	5.996	
25.00	-62.803	13.829	
26.00	-62.287	8.874	
27.00	-63.368	30.452	
28.00	-64.170	27.570	
29.00	-63.132	41.271	
30.00	-67.194	53.380	
31.00	-65.811	83.073	
32.00	-66.096	90.978	
33.00	-63.320	107.450	
34.00	-62.630	117.146	
35.00	-61.412	131.859	
36.00	-60.874	143.453	
37.00	-60.603	154.036	
38.00	-59.597	166.176	
39.00	-59.157	178.069	
40.00	-59.698	-174.821	
41.00	-57.333	-172.030	
42.00	-56.520	-147.285	
43.00	-56.534	-132.991	
44.00	-56.520	-131.925	
45.00	-55.607	-130.189	
46.00	-54.574	-118.710	
47.00	-54.691	-108.490	
48.00	-53.233	-93.622	
49.00	-55.340	-98.838	
50.00	-52.661	-91.937	
51.00	-52.339	-80.797	
52.00	-53.307	-83.367	
53.00	-52.670	-60.923	
54.00	-52.249	-56.153	
55.00	-52.087	-37.556	
56.00	-53.667	-40.602	
57.00	-52.880	-35.443	
58.00	-54.365	-28.809	
59.00	-54.387	-26.347	
60.00	-55.387	-17.062	
61.00	-55.388	2.965	
62.00	-58.642	-14.019	
63.00	-58.823	29.896	
64.00	-60.726	5.735	
65.00	-59.943	57.551	
66.00	-61.208	93.051	
67.00	-60.477	81.939	
68.00	-62.187	98.004	
69.00	-60.616	134.627	
70.00	-65.936	129.426	
71.00	-60.394	152.345	
72.00	-59.337	178.066	
73.00	-60.844	-163.547	
74.00	-58.348	-163.834	
75.00	-57.288	-163.712	
76.00	-55.008	-135.563	
77.00	-57.929	-120.057	
78.00	-59.067	-99.652	
79.00	-54.860	-90.695	
80.00	-57.937	-86.804	
81.00	-59.056	-78.164	
82.00	-54.499	-54.899	
83.00	-54.103	-29.749	
84.00	-58.152	-15.063	
85.00	-53.989	-31.450	
86.00	-55.642	-4.114	
87.00	-56.458	13.018	
88.00	-58.109	33.892	
89.00	-55.817	59.168	
90.00	-55.050	54.914	
91.00	-54.295	75.192	
92.00	-57.056	97.261	
93.00	-56.997	129.453	
94.00	-55.307	143.421	
95.00	-60.580	-179.284	
96.00	-55.941	-171.904	
97.00	-53.149	-152.004	
98.00	-51.631	-133.830	
99.00	-52.247	-131.899	
100.00	-52.218	-111.094	
101.00	-50.613	-90.899	
102.00	-51.515	-65.136	
103.00	-49.320	-51.423	
104.00	-50.414	-43.332	
105.00	-49.081	-33.963	
106.00	-47.173	-8.419	
107.00	-49.000	3.722	
108.00	-48.130	17.907	
109.00	-48.027	31.316	
110.00	-47.020	44.824	
111.00	-47.383	56.243	
112.00	-46.493	78.988	
113.00	-46.642	93.653	
114.00	-45.999	113.892	
115.00	-46.117	124.118	
116.00	-45.418	144.404	
117.00	-45.159	158.009	
118.00	-45.076	162.656	
119.00	-44.191	-177.144	
120.00	-44.131	-164.217	
121.00	-43.065	-146.730	
122.00	-42.978	-135.414	
123.00	-42.706	-122.088	
124.00	-42.450	-111.068	
125.00	-42.375	-93.572	
126.00	-41.728	-86.892	
127.00	-41.503	-72.634	
128.00	-41.686	-61.191	
129.00	-41.058	-44.712	
130.00	-40.930	-35.231	
131.00	-40.903	-18.575	
132.00	-40.755	-11.199	
133.00	-40.624	1.900	
134.00	-40.386	11.924	
135.00	-40.267	28.758	
136.00	-40.119	42.829	
137.00	-39.907	55.898	
138.00	-39.809	70.646	
139.00	-39.834	77.273	
140.00	-39.630	92.357	
141.00	-39.413	89.586	
142.00	-39.318	106.593	
143.00	-39.260	113.099	
144.00	-38.918	133.269	
145.00	-38.840	146.535	
146.00	-38.569	155.811	
147.00	-38.598	160.555	
148.00	-38.340	174.725	
149.00	-38.239	-175.543	
150.00	-38.152	-163.044	
151.00	-38.140	-159.086	
152.00	-38.080	-146.250	
153.00	-38.248	-144.375	
154.00	-38.259	-132.492	
155.00	-38.383	-124.658	
156.00	-38.532	-114.953	
157.00	-38.830	-106.452	
158.00	-38.966	-99.832	
159.00	-39.298	-93.500	
160.00	-39.567	-84.110	
161.00	-39.925	-79.282	
162.00	-40.362	-67.392	
163.00	-40.696	-60.790	
164.00	-41.197	-52.492	
165.00	-41.708	-44.518	
166.00	-42.205	-38.727	
167.00	-42.773	-28.544	
168.00	-43.457	-20.630	
169.00	-44.178	-12.406	
170.00	-44.730	-4.583	
171.00	-45.552	2.268	
172.00	-46.277	12.884	
173.00	-46.960	22.484	
174.00	-47.933	26.634	
175.00	-48.478	36.307	
176.00	-49.230	46.150	
177.00	-50.112	52.955	
178.00	-50.849	66.788	
179.00	-51.393	75.394	
180.00	-51.744	89.044	
181.00	-51.673	101.932	
182.00	-52.118	113.644	
183.00	-51.952	119.397	
184.00	-51.960	133.888	
185.00	-51.962	139.799	
186.00	-51.893	148.419	
187.00	-51.237	155.999	
188.00	-51.604	162.377	
189.00	-51.275	173.900	
190.00	-50.699	179.096	
191.00	-50.198	-176.608	
192.00	-49.943	-176.002	
193.00	-49.555	-167.234	
194.00	-49.072	-162.676	
195.00	-48.524	-159.374	
196.00	-47.794	-156.828	
197.00	-47.164	-155.137	
198.00	-46.560	-152.498	
199.00	-45.766	-147.332	
200.00	-45.306	-151.321	
201.00	-44.619	-147.554	
202.00	-43.856	-149.760	
203.00	-43.293	-150.084	
204.00	-42.755	-146.485	
205.00	-42.320	-151.666	
206.00	-41.741	-149.234	
207.00	-41.319	-150.581	
208.00	-40.937	-152.124	
209.00	-40.581	-152.076	
210.00	-40.257	-159.679	
211.00	-39.920	-160.077	
212.00	-39.702	-165.311	
213.00	-39.498	-170.341	
214.00	-39.250	-175.419	
215.00	-39.061	177.950	
216.00	-39.002	174.629	
217.00	-38.752	166.826	
218.00	-38.538	160.027	
219.00	-38.498	152.711	
220.00	-38.211	147.170	
221.00	-38.045	138.482	
222.00	-37.943	131.722	
223.00	-37.708	123.610	
224.00	-37.559	116.833	
225.00	-37.432	109.559	
226.00	-37.352	100.230	
227.00	-37.336	94.270	
228.00	-37.301	84.759	
229.00	-37.320	74.517	
230.00	-37.393	67.830	
231.00	-37.562	57.585	
232.00	-37.519	50.494	
233.00	-37.728	38.544	
234.00	-37.773	29.196	
235.00	-37.885	17.112	
236.00	-37.962	6.765	
237.00	-38.075	-6.044	
238.00	-38.122	-15.269	
239.00	-38.232	-29.711	
240.00	-38.343	-38.709	
241.00	-38.320	-52.415	
242.00	-38.506	-60.234	
243.00	-38.568	-73.365	
244.00	-38.734	-82.954	
245.00	-38.915	-93.494	
246.00	-39.002	-106.765	
247.00	-39.227	-117.260	
248.00	-39.318	-130.350	
249.00	-39.523	-141.653	
250.00	-39.786	-154.501	
251.00	-39.930	-167.100	
252.00	-40.208	179.801	
253.00	-40.334	167.087	
254.00	-40.595	152.732	
255.00	-40.862	141.238	
256.00	-41.081	127.697	
257.00	-41.381	115.814	
258.00	-41.667	103.797	
259.00	-41.925	89.335	
260.00	-42.398	75.861	
261.00	-42.592	58.625	
262.00	-42.861	45.859	
263.00	-43.297	27.715	
264.00	-43.726	14.001	
265.00	-44.350	-1.655	
266.00	-44.797	-17.534	
267.00	-44.916	-33.139	
268.00	-45.206	-45.536	
269.00	-45.305	-65.532	
270.00	-45.400	-77.649	
271.00	-45.512	-93.403	
272.00	-45.425	-108.359	
273.00	-45.423	-125.071	
274.00	-45.315	-137.084	
275.00	-45.799	-149.933	
276.00	-46.128	-161.066	
277.00	-46.340	-177.919	
278.00	-46.924	172.142	
279.00	-47.539	158.889	
280.00	-48.006	142.450	
281.00	-48.678	126.427	
282.00	-48.903	102.266	
283.00	-48.840	90.646	
284.00	-48.619	70.845	
285.00	-48.446	45.248	
286.00	-47.772	6.980	
287.00	-47.845	4.261	
288.00	-47.998	-20.918	
289.00	-47.953	-23.917	
290.00	-48.328	-46.734	
291.00	-48.135	-49.087	
292.00	-48.750	-77.585	
293.00	-48.760	-82.042	
294.00	-48.593	-106.115	
295.00	-48.888	-113.339	
296.00	-48.677	-133.646	
297.00	-48.791	-145.622	
298.00	-48.626	-165.447	
299.00	-48.666	-175.873	
300.00	-49.043	161.801	
301.00	-48.801	151.917	
302.00	-48.565	135.541	
303.00	-49.077	123.617	
304.00	-48.866	105.839	
305.00	-48.708	88.984	
306.00	-48.415	74.545	
307.00	-48.111	61.733	
308.00	-47.933	43.177	
309.00	-47.460	31.059	
310.00	-47.110	13.683	
311.00	-47.131	0.733	
312.00	-46.695	-14.351	
313.00	-46.682	-28.571	
314.00	-46.494	-39.405	
315.00	-46.376	-48.581	
316.00	-46.470	-60.764	
317.00	-46.667	-73.803	
318.00	-46.708	-87.669	
319.00	-46.900	-98.539	
320.00	-46.808	-107.984	
321.00	-46.749	-123.483	
322.00	-46.811	-132.576	
323.00	-46.858	-152.445	
324.00	-47.014	-155.113	
325.00	-46.935	-173.234	
326.00	-47.131	-178.562	
327.00	-47.371	161.794	
328.00	-47.142	158.260	
329.00	-47.349	142.418	
330.00	-47.456	134.877	
331.00	-47.519	121.404	
332.00	-47.425	105.694	
333.00	-47.654	95.916	
334.00	-47.441	87.583	
335.00	-47.229	72.629	
336.00	-47.101	68.732	
337.00	-46.929	56.072	
338.00	-46.987	50.430	
339.00	-46.864	42.042	
340.00	-46.896	30.925	
341.00	-46.879	25.972	
342.00	-47.160	15.457	
343.00	-47.281	13.735	
344.00	-47.742	6.379	
345.00	-48.040	1.465	
346.00	-48.267	-7.545	
347.00	-48.766	-11.178	
348.00	-49.209	-20.928	
349.00	-49.623	-19.917	
350.00	-50.165	-32.645	
351.00	-50.647	-32.756	
352.00	-51.201	-43.142	
353.00	-51.581	-46.805	
354.00	-52.320	-57.372	
355.00	-52.447	-60.796	
356.00	-53.218	-67.374	
357.00	-53.646	-73.793	
358.00	-54.343	-82.608	
359.00	-54.535	-81.662	
Frequency	1710.00	MHz	
Channel	test		
Scan Axis name	Azimuth  [deg]		
Scan Axis	Amplitude	Phase	
			
0.00	-47.195	-126.684	
1.00	-48.181	-125.423	
2.00	-48.723	-126.936	
3.00	-49.191	-126.264	
4.00	-50.150	-131.336	
5.00	-50.890	-131.083	
6.00	-51.543	-131.766	
7.00	-52.701	-138.493	
8.00	-53.366	-135.729	
9.00	-54.726	-139.333	
10.00	-55.946	-140.431	
11.00	-57.692	-139.060	
12.00	-59.018	-149.227	
13.00	-61.329	-153.725	
14.00	-64.735	-159.710	
15.00	-68.644	-154.536	
16.00	-75.340	-59.227	
17.00	-74.320	-60.456	
18.00	-68.129	18.215	
19.00	-63.922	-2.039	
20.00	-62.438	3.104	
21.00	-60.498	11.694	
22.00	-58.217	18.519	
23.00	-55.897	19.799	
24.00	-55.366	17.170	
25.00	-54.652	22.014	
26.00	-54.440	19.873	
27.00	-54.696	32.333	
28.00	-54.551	20.812	
29.00	-53.338	31.037	
30.00	-53.237	40.324	
31.00	-52.339	47.062	
32.00	-51.554	53.170	
33.00	-51.750	54.229	
34.00	-50.804	70.360	
35.00	-50.821	73.205	
36.00	-49.868	83.069	
37.00	-50.604	83.284	
38.00	-49.395	94.493	
39.00	-49.277	102.956	
40.00	-48.515	109.744	
41.00	-48.435	118.304	
42.00	-49.417	135.047	
43.00	-49.289	141.879	
44.00	-49.655	144.300	
45.00	-49.770	160.644	
46.00	-49.185	165.457	
47.00	-50.334	-172.586	
48.00	-50.385	-170.505	
49.00	-50.529	-150.991	
50.00	-51.490	-138.957	
51.00	-50.969	-130.960	
52.00	-50.641	-109.385	
53.00	-50.447	-99.305	
54.00	-50.823	-89.207	
55.00	-50.512	-74.351	
56.00	-52.803	-71.215	
57.00	-51.578	-50.558	
58.00	-51.792	-34.222	
59.00	-50.975	-16.373	
60.00	-52.310	-6.657	
61.00	-52.533	9.314	
62.00	-53.072	34.962	
63.00	-52.825	56.205	
64.00	-51.459	55.297	
65.00	-54.008	77.343	
66.00	-50.424	102.570	
67.00	-53.215	111.538	
68.00	-49.415	130.237	
69.00	-49.121	134.032	
70.00	-49.296	149.977	
71.00	-51.303	163.543	
72.00	-48.568	160.702	
73.00	-48.341	-170.318	
74.00	-48.102	-169.593	
75.00	-48.189	-150.828	
76.00	-48.679	-140.975	
77.00	-50.104	-134.734	
78.00	-49.518	-123.306	
79.00	-50.679	-116.358	
80.00	-50.309	-110.062	
81.00	-50.888	-87.631	
82.00	-53.037	-76.151	
83.00	-52.027	-48.727	
84.00	-53.788	-45.307	
85.00	-55.639	-22.340	
86.00	-55.977	3.269	
87.00	-56.518	-12.383	
88.00	-57.711	29.921	
89.00	-58.369	48.110	
90.00	-57.605	88.330	
91.00	-58.434	100.887	
92.00	-56.586	119.783	
93.00	-52.766	152.014	
94.00	-52.795	141.200	
95.00	-54.170	158.509	
96.00	-51.071	179.624	
97.00	-50.093	-171.635	
98.00	-52.492	-160.806	
99.00	-52.649	-157.108	
100.00	-53.318	-118.203	
101.00	-50.719	-114.907	
102.00	-51.614	-69.610	
103.00	-51.184	-61.073	
104.00	-50.858	-58.708	
105.00	-51.153	-38.024	
106.00	-49.745	-12.279	
107.00	-49.115	-11.002	
108.00	-48.986	5.278	
109.00	-48.886	24.204	
110.00	-47.687	34.241	
111.00	-46.896	45.996	
112.00	-46.892	59.694	
113.00	-46.399	75.099	
114.00	-46.138	88.493	
115.00	-45.376	104.544	
116.00	-44.741	120.106	
117.00	-44.830	133.917	
118.00	-43.768	144.481	
119.00	-44.095	161.344	
120.00	-42.779	171.691	
121.00	-42.730	-171.359	
122.00	-42.197	-157.477	
123.00	-41.702	-147.110	
124.00	-40.943	-137.137	
125.00	-40.531	-119.771	
126.00	-40.392	-111.140	
127.00	-39.753	-98.685	
128.00	-39.327	-89.611	
129.00	-39.385	-75.132	
130.00	-39.038	-67.847	
131.00	-38.607	-51.122	
132.00	-38.569	-46.778	
133.00	-38.141	-33.117	
134.00	-37.595	-26.139	
135.00	-37.841	-9.902	
136.00	-37.494	4.661	
137.00	-37.410	15.169	
138.00	-37.374	29.626	
139.00	-37.053	36.356	
140.00	-36.832	47.388	
141.00	-36.908	46.749	
142.00	-36.648	62.159	
143.00	-36.601	67.790	
144.00	-36.420	87.818	
145.00	-36.194	100.280	
146.00	-36.093	107.431	
147.00	-35.955	112.101	
148.00	-35.902	125.214	
149.00	-35.789	134.579	
150.00	-35.724	146.348	
151.00	-35.789	149.756	
152.00	-35.748	161.975	
153.00	-35.910	163.422	
154.00	-35.903	174.503	
155.00	-36.043	-177.154	
156.00	-36.092	-167.372	
157.00	-36.352	-160.272	
158.00	-36.539	-154.350	
159.00	-36.789	-148.241	
160.00	-37.084	-139.745	
161.00	-37.351	-135.047	
162.00	-37.713	-124.601	
163.00	-38.176	-118.830	
164.00	-38.667	-111.650	
165.00	-39.046	-104.524	
166.00	-39.562	-98.568	
167.00	-40.100	-89.572	
168.00	-40.633	-82.002	
169.00	-40.995	-75.261	
170.00	-41.569	-68.715	
171.00	-42.089	-62.546	
172.00	-42.673	-53.493	
173.00	-43.205	-44.946	
174.00	-43.788	-42.778	
175.00	-44.113	-34.418	
176.00	-44.608	-29.478	
177.00	-45.277	-23.213	
178.00	-45.798	-15.608	
179.00	-46.118	-9.978	
180.00	-46.436	-1.834	
181.00	-46.787	6.904	
182.00	-47.085	13.608	
183.00	-47.444	16.786	
184.00	-47.786	23.526	
185.00	-47.981	28.772	
186.00	-48.364	33.546	
187.00	-48.565	36.970	
188.00	-48.807	41.590	
189.00	-49.212	48.187	
190.00	-49.961	49.150	
191.00	-50.208	55.215	
192.00	-51.062	51.847	
193.00	-51.754	59.608	
194.00	-52.723	64.844	
195.00	-53.867	69.733	
196.00	-54.828	78.890	
197.00	-56.398	92.184	
198.00	-56.513	113.472	
199.00	-56.107	133.795	
200.00	-54.200	144.908	
201.00	-51.962	160.349	
202.00	-50.397	162.207	
203.00	-48.717	164.673	
204.00	-47.026	170.375	
205.00	-45.890	165.282	
206.00	-44.617	168.179	
207.00	-43.641	166.587	
208.00	-42.675	163.476	
209.00	-41.909	163.629	
210.00	-41.169	155.373	
211.00	-40.502	154.841	
212.00	-39.967	149.492	
213.00	-39.552	144.816	
214.00	-39.184	139.448	
215.00	-38.817	132.649	
216.00	-38.592	129.354	
217.00	-38.375	121.832	
218.00	-38.143	115.073	
219.00	-38.004	107.611	
220.00	-37.901	102.127	
221.00	-37.855	93.536	
222.00	-37.821	86.132	
223.00	-37.696	78.249	
224.00	-37.792	70.776	
225.00	-37.822	63.119	
226.00	-37.927	52.886	
227.00	-38.126	45.462	
228.00	-38.250	34.759	
229.00	-38.461	23.727	
230.00	-38.668	16.927	
231.00	-38.899	3.878	
232.00	-39.100	-4.226	
233.00	-39.299	-18.325	
234.00	-39.529	-28.792	
235.00	-39.636	-42.673	
236.00	-39.836	-53.356	
237.00	-39.811	-67.740	
238.00	-39.922	-77.042	
239.00	-40.076	-92.172	
240.00	-40.138	-101.233	
241.00	-40.355	-115.645	
242.00	-40.645	-123.453	
243.00	-40.841	-136.690	
244.00	-41.070	-147.208	
245.00	-41.372	-157.917	
246.00	-41.724	-172.027	
247.00	-42.018	176.783	
248.00	-42.346	162.671	
249.00	-42.540	150.768	
250.00	-42.824	138.264	
251.00	-43.119	125.094	
252.00	-43.415	113.689	
253.00	-43.711	101.165	
254.00	-44.076	87.667	
255.00	-44.489	78.339	
256.00	-44.899	66.492	
257.00	-45.611	56.915	
258.00	-46.341	45.557	
259.00	-47.310	32.393	
260.00	-48.126	18.874	
261.00	-49.304	3.843	
262.00	-50.077	-13.008	
263.00	-50.637	-32.469	
264.00	-51.185	-50.841	
265.00	-51.360	-61.472	
266.00	-52.327	-77.931	
267.00	-52.992	-94.546	
268.00	-53.128	-111.143	
269.00	-53.016	-135.249	
270.00	-53.797	-144.356	
271.00	-53.121	-157.044	
272.00	-52.099	-171.114	
273.00	-51.999	174.950	
274.00	-52.098	166.971	
275.00	-51.753	157.138	
276.00	-51.937	148.606	
277.00	-52.229	136.277	
278.00	-52.235	129.910	
279.00	-52.623	120.586	
280.00	-53.234	109.032	
281.00	-54.561	98.263	
282.00	-55.964	76.356	
283.00	-57.121	54.572	
284.00	-56.687	30.805	
285.00	-54.807	-18.308	
286.00	-51.102	-48.070	
287.00	-50.678	-54.804	
288.00	-49.587	-67.633	
289.00	-49.216	-67.990	
290.00	-48.583	-87.012	
291.00	-48.604	-87.284	
292.00	-49.140	-105.558	
293.00	-49.115	-111.649	
294.00	-50.495	-132.912	
295.00	-50.345	-141.528	
296.00	-50.841	-171.247	
297.00	-50.683	176.329	
298.00	-49.769	152.698	
299.00	-49.502	142.716	
300.00	-47.949	119.977	
301.00	-47.319	108.501	
302.00	-46.863	96.571	
303.00	-46.388	85.975	
304.00	-45.984	74.689	
305.00	-46.020	63.859	
306.00	-46.205	53.062	
307.00	-46.190	42.701	
308.00	-46.784	25.399	
309.00	-46.691	12.981	
310.00	-46.999	-7.892	
311.00	-47.025	-23.461	
312.00	-47.040	-41.374	
313.00	-46.746	-59.398	
314.00	-46.349	-72.468	
315.00	-45.992	-84.064	
316.00	-45.759	-98.697	
317.00	-45.442	-111.684	
318.00	-45.172	-125.352	
319.00	-44.860	-135.211	
320.00	-44.881	-143.506	
321.00	-44.568	-156.767	
322.00	-44.576	-164.881	
323.00	-44.990	178.447	
324.00	-44.756	173.210	
325.00	-45.278	155.778	
326.00	-45.231	150.291	
327.00	-45.525	131.587	
328.00	-45.493	126.118	
329.00	-45.762	107.969	
330.00	-45.725	99.647	
331.00	-45.924	86.339	
332.00	-45.796	71.730	
333.00	-45.542	61.000	
334.00	-45.356	53.945	
335.00	-44.986	40.146	
336.00	-44.962	35.553	
337.00	-44.936	23.011	
338.00	-44.968	17.224	
339.00	-44.817	9.867	
340.00	-44.881	-2.258	
341.00	-45.091	-6.272	
342.00	-45.322	-18.393	
343.00	-45.774	-21.025	
344.00	-46.012	-30.959	
345.00	-46.643	-38.933	
346.00	-46.822	-50.000	
347.00	-47.311	-55.717	
348.00	-47.263	-69.701	
349.00	-47.470	-70.910	
350.00	-47.211	-85.612	
351.00	-47.685	-86.825	
352.00	-46.882	-97.582	
353.00	-47.213	-102.395	
354.00	-46.999	-108.048	
355.00	-46.984	-112.974	
356.00	-47.184	-116.699	
357.00	-47.216	-118.729	
358.00	-47.643	-123.130	
359.00	-48.189	-123.600	
Frequency	1800.00	MHz	
Channel	test		
Scan Axis name	Azimuth  [deg]		
Scan Axis	Amplitude	Phase	
			
0.00	-63.539	-146.758	
1.00	-65.662	-130.746	
2.00	-65.957	-101.087	
3.00	-64.407	-80.078	
4.00	-61.835	-71.173	
5.00	-61.359	-64.212	
6.00	-59.401	-63.615	
7.00	-58.418	-58.759	
8.00	-57.733	-57.373	
9.00	-56.816	-56.859	
10.00	-56.871	-55.125	
11.00	-56.519	-56.804	
12.00	-55.882	-56.703	
13.00	-56.007	-60.260	
14.00	-56.244	-53.561	
15.00	-57.150	-67.511	
16.00	-56.583	-51.002	
17.00	-58.731	-61.545	
18.00	-58.397	-73.266	
19.00	-58.052	-62.494	
20.00	-58.841	-67.275	
21.00	-60.475	-70.359	
22.00	-60.847	-84.446	
23.00	-62.234	-71.696	
24.00	-61.164	-95.730	
25.00	-65.168	-111.868	
26.00	-63.574	-133.325	
27.00	-63.104	-145.105	
28.00	-62.062	-150.802	
29.00	-60.705	-147.733	
30.00	-60.723	-163.838	
31.00	-59.226	-160.545	
32.00	-59.069	-153.774	
33.00	-57.562	-156.581	
34.00	-57.530	-157.231	
35.00	-57.465	-146.130	
36.00	-57.057	-151.290	
37.00	-56.499	-140.398	
38.00	-55.924	-145.473	
39.00	-55.756	-139.067	
40.00	-56.379	-134.771	
41.00	-56.861	-124.248	
42.00	-58.140	-121.046	
43.00	-57.034	-121.167	
44.00	-62.432	-135.971	
45.00	-58.680	-109.268	
46.00	-62.696	-104.136	
47.00	-63.832	-84.112	
48.00	-67.230	-78.056	
49.00	-73.215	-9.853	
50.00	-76.589	102.340	
51.00	-69.447	37.353	
52.00	-63.284	66.493	
53.00	-61.284	90.158	
54.00	-67.224	139.086	
55.00	-60.699	135.591	
56.00	-63.015	142.360	
57.00	-63.481	153.403	
58.00	-59.328	169.491	
59.00	-57.388	-167.135	
60.00	-56.258	-170.185	
61.00	-55.785	159.781	
62.00	-59.069	-154.298	
63.00	-60.683	-126.975	
64.00	-62.465	-127.731	
65.00	-55.938	-110.805	
66.00	-63.837	-62.997	
67.00	-60.237	-107.025	
68.00	-57.630	-48.732	
69.00	-59.333	-50.867	
70.00	-60.931	-26.458	
71.00	-58.561	16.901	
72.00	-62.067	4.167	
73.00	-61.238	40.015	
74.00	-55.782	61.126	
75.00	-60.518	63.346	
76.00	-55.819	98.319	
77.00	-57.218	114.704	
78.00	-59.684	130.590	
79.00	-57.446	157.497	
80.00	-56.603	164.709	
81.00	-53.772	-171.560	
82.00	-58.469	-160.098	
83.00	-53.813	-148.030	
84.00	-54.193	-112.517	
85.00	-54.313	-109.528	
86.00	-52.141	-88.010	
87.00	-54.070	-79.675	
88.00	-52.304	-61.583	
89.00	-53.013	-53.166	
90.00	-56.251	-30.323	
91.00	-53.830	-13.185	
92.00	-54.428	6.555	
93.00	-53.061	13.107	
94.00	-51.801	30.786	
95.00	-51.978	71.879	
96.00	-50.962	78.091	
97.00	-49.476	96.644	
98.00	-49.055	114.558	
99.00	-48.173	114.697	
100.00	-46.814	135.135	
101.00	-47.601	149.576	
102.00	-47.722	174.154	
103.00	-47.847	-177.788	
104.00	-48.608	-158.567	
105.00	-48.683	-135.853	
106.00	-48.691	-120.938	
107.00	-48.478	-106.284	
108.00	-49.133	-87.247	
109.00	-48.696	-69.048	
110.00	-48.447	-55.914	
111.00	-46.887	-27.732	
112.00	-46.557	-8.280	
113.00	-46.339	2.396	
114.00	-45.880	21.423	
115.00	-45.037	36.555	
116.00	-45.016	46.938	
117.00	-44.292	63.171	
118.00	-43.564	71.617	
119.00	-43.389	88.833	
120.00	-43.114	100.510	
121.00	-42.964	120.202	
122.00	-42.713	131.611	
123.00	-42.463	148.083	
124.00	-41.952	155.092	
125.00	-41.736	172.750	
126.00	-41.547	-177.887	
127.00	-41.521	-165.370	
128.00	-41.400	-154.437	
129.00	-41.380	-139.850	
130.00	-41.339	-131.608	
131.00	-41.305	-114.969	
132.00	-41.524	-109.241	
133.00	-41.819	-95.388	
134.00	-41.927	-86.492	
135.00	-42.056	-69.446	
136.00	-42.329	-53.641	
137.00	-42.676	-39.745	
138.00	-42.891	-23.803	
139.00	-42.985	-15.351	
140.00	-42.964	0.819	
141.00	-42.999	-2.629	
142.00	-42.967	18.165	
143.00	-43.046	24.418	
144.00	-43.232	48.621	
145.00	-42.893	63.201	
146.00	-43.044	72.382	
147.00	-43.145	78.019	
148.00	-43.149	94.591	
149.00	-43.007	105.210	
150.00	-42.793	120.285	
151.00	-43.172	125.354	
152.00	-43.164	140.126	
153.00	-43.237	143.937	
154.00	-43.095	155.711	
155.00	-43.397	166.409	
156.00	-43.339	178.009	
157.00	-43.524	-172.510	
158.00	-43.805	-163.838	
159.00	-43.948	-156.969	
160.00	-43.835	-147.521	
161.00	-44.162	-141.937	
162.00	-44.230	-130.900	
163.00	-44.605	-123.188	
164.00	-45.028	-114.854	
165.00	-45.274	-109.488	
166.00	-45.298	-104.426	
167.00	-45.376	-96.370	
168.00	-45.638	-89.069	
169.00	-45.968	-84.558	
170.00	-46.043	-79.285	
171.00	-46.564	-74.471	
172.00	-47.186	-67.710	
173.00	-47.407	-62.139	
174.00	-47.742	-67.084	
175.00	-48.313	-61.113	
176.00	-48.817	-62.085	
177.00	-49.425	-60.883	
178.00	-50.101	-59.944	
179.00	-50.353	-61.950	
180.00	-51.184	-57.095	
181.00	-51.516	-59.903	
182.00	-52.100	-61.143	
183.00	-53.059	-70.712	
184.00	-53.134	-74.595	
185.00	-53.280	-82.908	
186.00	-53.569	-89.313	
187.00	-52.914	-96.652	
188.00	-52.271	-107.700	
189.00	-51.850	-108.965	
190.00	-50.781	-116.810	
191.00	-50.543	-120.156	
192.00	-49.240	-130.023	
193.00	-49.055	-130.771	
194.00	-48.174	-134.973	
195.00	-47.642	-137.373	
196.00	-46.957	-138.313	
197.00	-46.770	-140.755	
198.00	-46.143	-143.876	
199.00	-46.094	-141.741	
200.00	-45.732	-150.522	
201.00	-45.642	-149.924	
202.00	-45.308	-154.605	
203.00	-45.325	-157.846	
204.00	-45.213	-156.168	
205.00	-45.241	-165.427	
206.00	-45.163	-164.031	
207.00	-45.276	-168.216	
208.00	-45.435	-173.453	
209.00	-45.536	-174.991	
210.00	-45.401	175.926	
211.00	-45.628	172.732	
212.00	-45.480	166.701	
213.00	-45.644	159.192	
214.00	-45.457	152.766	
215.00	-45.693	145.762	
216.00	-45.493	141.227	
217.00	-45.572	134.384	
218.00	-45.327	126.400	
219.00	-45.056	118.110	
220.00	-45.054	113.774	
221.00	-44.854	104.584	
222.00	-44.581	98.232	
223.00	-44.558	90.522	
224.00	-44.271	85.102	
225.00	-44.346	79.735	
226.00	-44.142	69.679	
227.00	-44.116	63.076	
228.00	-43.894	53.277	
229.00	-43.592	44.912	
230.00	-43.764	38.988	
231.00	-43.698	30.766	
232.00	-43.613	24.531	
233.00	-43.643	15.016	
234.00	-43.669	4.812	
235.00	-43.905	-4.596	
236.00	-44.051	-15.485	
237.00	-44.156	-27.847	
238.00	-44.354	-36.761	
239.00	-44.672	-52.852	
240.00	-44.708	-61.336	
241.00	-44.583	-77.562	
242.00	-44.720	-88.495	
243.00	-44.658	-102.232	
244.00	-44.439	-113.212	
245.00	-44.320	-125.607	
246.00	-44.261	-140.953	
247.00	-44.036	-150.694	
248.00	-44.110	-165.216	
249.00	-44.037	-177.503	
250.00	-44.119	169.529	
251.00	-43.927	156.907	
252.00	-44.021	141.538	
253.00	-43.946	127.760	
254.00	-44.060	111.986	
255.00	-44.091	99.131	
256.00	-44.314	85.538	
257.00	-44.231	70.240	
258.00	-44.274	56.710	
259.00	-44.347	41.030	
260.00	-44.215	25.878	
261.00	-44.252	8.820	
262.00	-44.387	-8.218	
263.00	-44.454	-24.861	
264.00	-44.416	-40.845	
265.00	-44.326	-55.620	
266.00	-44.574	-69.957	
267.00	-44.690	-83.658	
268.00	-45.156	-96.653	
269.00	-45.427	-114.507	
270.00	-45.689	-132.515	
271.00	-46.142	-144.971	
272.00	-46.479	-166.856	
273.00	-46.464	173.693	
274.00	-46.010	158.279	
275.00	-46.081	139.268	
276.00	-45.800	127.477	
277.00	-45.830	107.410	
278.00	-45.636	93.594	
279.00	-45.685	80.946	
280.00	-45.911	64.148	
281.00	-46.109	52.374	
282.00	-46.284	31.997	
283.00	-46.507	19.827	
284.00	-46.936	-1.287	
285.00	-46.718	-33.192	
286.00	-45.346	-76.409	
287.00	-45.285	-80.335	
288.00	-44.818	-106.151	
289.00	-44.555	-107.927	
290.00	-44.251	-131.667	
291.00	-44.391	-133.171	
292.00	-44.574	-157.008	
293.00	-44.474	-161.937	
294.00	-44.666	175.728	
295.00	-44.856	166.279	
296.00	-44.914	144.357	
297.00	-45.004	132.311	
298.00	-44.746	113.375	
299.00	-44.663	104.309	
300.00	-44.273	83.651	
301.00	-44.435	75.849	
302.00	-44.383	63.870	
303.00	-44.599	53.563	
304.00	-44.955	42.152	
305.00	-45.371	29.621	
306.00	-46.122	18.875	
307.00	-46.937	5.577	
308.00	-47.873	-12.711	
309.00	-48.904	-27.101	
310.00	-49.618	-53.006	
311.00	-49.990	-75.268	
312.00	-49.939	-97.329	
313.00	-49.068	-119.720	
314.00	-48.755	-133.692	
315.00	-48.289	-146.831	
316.00	-47.939	-159.735	
317.00	-47.699	-171.074	
318.00	-47.663	176.182	
319.00	-47.650	166.660	
320.00	-48.116	159.507	
321.00	-48.520	146.176	
322.00	-48.836	134.121	
323.00	-49.621	116.014	
324.00	-49.879	110.555	
325.00	-49.670	90.029	
326.00	-50.299	84.793	
327.00	-50.397	62.780	
328.00	-50.723	58.157	
329.00	-51.031	42.628	
330.00	-51.025	36.863	
331.00	-51.939	23.674	
332.00	-52.880	12.731	
333.00	-53.733	2.318	
334.00	-54.408	-5.934	
335.00	-56.002	-25.489	
336.00	-56.728	-34.726	
337.00	-58.789	-59.143	
338.00	-58.058	-85.933	
339.00	-57.472	-104.886	
340.00	-55.658	-126.967	
341.00	-54.955	-137.952	
342.00	-53.105	-150.608	
343.00	-53.252	-152.057	
344.00	-52.151	-158.115	
345.00	-51.568	-164.522	
346.00	-50.695	-169.681	
347.00	-50.682	-172.634	
348.00	-50.488	-174.756	
349.00	-50.842	-172.727	
350.00	-50.781	-177.679	
351.00	-51.346	-176.326	
352.00	-51.531	-179.196	
353.00	-52.226	179.869	
354.00	-52.950	177.363	
355.00	-53.869	177.480	
356.00	-54.741	-179.523	
357.00	-56.497	-177.055	
358.00	-57.562	-176.888	
359.00	-58.966	-167.399	
Frequency	1850.00	MHz	
Channel	test		
Scan Axis name	Azimuth  [deg]		
Scan Axis	Amplitude	Phase	
			
0.00	-53.174	47.393	
1.00	-52.280	40.822	
2.00	-51.213	35.625	
3.00	-50.757	32.142	
4.00	-50.072	27.138	
5.00	-49.550	23.465	
6.00	-49.270	22.669	
7.00	-49.007	20.165	
8.00	-49.078	18.996	
9.00	-48.853	15.065	
10.00	-48.489	13.624	
11.00	-48.979	13.337	
12.00	-49.366	7.349	
13.00	-49.490	5.847	
14.00	-49.740	7.746	
15.00	-50.290	3.316	
16.00	-51.102	2.575	
17.00	-51.316	-0.860	
18.00	-51.944	-4.397	
19.00	-52.140	-1.622	
20.00	-52.792	-6.694	
21.00	-53.561	-6.481	
22.00	-54.223	-10.919	
23.00	-54.587	-9.344	
24.00	-55.380	-13.070	
25.00	-55.759	-17.560	
26.00	-56.592	-25.079	
27.00	-56.598	-30.543	
28.00	-56.091	-32.661	
29.00	-57.463	-31.081	
30.00	-58.465	-30.900	
31.00	-57.611	-31.385	
32.00	-58.244	-27.397	
33.00	-57.871	-32.223	
34.00	-58.307	-29.176	
35.00	-58.256	-29.615	
36.00	-59.083	-27.064	
37.00	-60.057	-23.684	
38.00	-59.868	-15.234	
39.00	-59.647	-14.508	
40.00	-59.770	-2.043	
41.00	-59.053	4.767	
42.00	-59.561	18.029	
43.00	-58.599	24.516	
44.00	-58.090	40.042	
45.00	-57.009	41.251	
46.00	-56.322	47.531	
47.00	-55.564	56.484	
48.00	-56.174	58.464	
49.00	-55.311	76.352	
50.00	-54.171	76.393	
51.00	-52.871	84.929	
52.00	-54.277	91.548	
53.00	-53.158	97.886	
54.00	-53.426	103.492	
55.00	-53.882	104.618	
56.00	-53.458	105.356	
57.00	-54.063	110.129	
58.00	-55.231	118.606	
59.00	-55.341	114.676	
60.00	-57.108	119.940	
61.00	-58.888	109.088	
62.00	-59.051	121.661	
63.00	-63.516	117.532	
64.00	-62.159	111.592	
65.00	-70.975	139.027	
66.00	-68.066	62.728	
67.00	-67.869	58.497	
68.00	-64.118	41.584	
69.00	-62.683	48.305	
70.00	-62.169	47.042	
71.00	-61.240	56.969	
72.00	-60.620	57.756	
73.00	-61.229	83.055	
74.00	-60.023	72.937	
75.00	-59.396	91.950	
76.00	-60.737	101.763	
77.00	-59.066	109.164	
78.00	-61.255	122.284	
79.00	-62.367	124.548	
80.00	-64.086	131.074	
81.00	-69.166	139.575	
82.00	-76.467	136.266	
83.00	-81.950	145.482	
84.00	-68.236	12.916	
85.00	-64.293	33.303	
86.00	-61.227	25.919	
87.00	-58.574	34.967	
88.00	-56.277	40.051	
89.00	-55.617	53.832	
90.00	-53.506	64.090	
91.00	-53.214	76.858	
92.00	-52.388	89.329	
93.00	-51.401	99.011	
94.00	-51.013	114.064	
95.00	-50.292	121.514	
96.00	-49.948	137.287	
97.00	-49.418	151.192	
98.00	-49.083	167.477	
99.00	-48.672	173.748	
100.00	-48.560	-161.456	
101.00	-48.142	-148.370	
102.00	-47.949	-124.166	
103.00	-47.651	-114.870	
104.00	-47.389	-95.609	
105.00	-47.256	-84.553	
106.00	-47.184	-66.510	
107.00	-47.248	-55.838	
108.00	-47.096	-37.735	
109.00	-47.146	-28.437	
110.00	-47.174	-11.007	
111.00	-47.465	3.257	
112.00	-47.371	22.919	
113.00	-47.598	38.057	
114.00	-47.669	58.294	
115.00	-47.171	76.271	
116.00	-47.024	94.005	
117.00	-46.608	109.666	
118.00	-46.430	119.240	
119.00	-45.988	139.510	
120.00	-45.557	153.698	
121.00	-45.123	174.745	
122.00	-44.823	-171.981	
123.00	-44.307	-157.028	
124.00	-43.926	-147.047	
125.00	-43.533	-127.604	
126.00	-43.171	-117.186	
127.00	-42.912	-104.854	
128.00	-42.586	-92.665	
129.00	-42.311	-76.932	
130.00	-42.110	-68.040	
131.00	-42.091	-49.088	
132.00	-41.934	-44.626	
133.00	-41.831	-31.035	
134.00	-41.712	-21.601	
135.00	-41.785	-4.811	
136.00	-41.697	11.280	
137.00	-41.676	24.818	
138.00	-41.458	40.749	
139.00	-41.474	46.944	
140.00	-41.356	62.471	
141.00	-41.286	59.665	
142.00	-41.197	77.978	
143.00	-41.162	83.654	
144.00	-40.971	106.238	
145.00	-40.907	120.437	
146.00	-40.910	127.784	
147.00	-40.949	133.494	
148.00	-40.892	148.757	
149.00	-40.896	159.868	
150.00	-40.909	174.440	
151.00	-40.847	179.527	
152.00	-40.863	-166.135	
153.00	-40.925	-162.431	
154.00	-40.929	-149.603	
155.00	-40.941	-138.863	
156.00	-40.973	-127.685	
157.00	-40.937	-117.522	
158.00	-41.037	-110.719	
159.00	-41.134	-103.095	
160.00	-41.180	-92.523	
161.00	-41.215	-86.963	
162.00	-41.194	-74.076	
163.00	-41.304	-67.792	
164.00	-41.330	-59.884	
165.00	-41.524	-52.369	
166.00	-41.496	-47.027	
167.00	-41.680	-37.154	
168.00	-41.804	-30.112	
169.00	-41.880	-25.175	
170.00	-42.035	-18.279	
171.00	-42.266	-14.071	
172.00	-42.331	-6.524	
173.00	-42.552	-0.092	
174.00	-42.676	-0.048	
175.00	-42.914	4.027	
176.00	-43.112	6.755	
177.00	-43.344	7.854	
178.00	-43.562	12.445	
179.00	-43.795	12.784	
180.00	-44.251	17.155	
181.00	-44.331	19.719	
182.00	-44.590	20.666	
183.00	-44.720	18.274	
184.00	-45.216	21.238	
185.00	-45.349	20.148	
186.00	-45.489	21.063	
187.00	-45.656	20.989	
188.00	-45.910	19.794	
189.00	-46.075	23.205	
190.00	-46.251	19.562	
191.00	-46.211	19.025	
192.00	-46.473	9.475	
193.00	-46.600	11.442	
194.00	-46.664	9.251	
195.00	-46.843	5.810	
196.00	-46.725	1.689	
197.00	-46.755	0.473	
198.00	-46.829	-3.450	
199.00	-46.939	-2.026	
200.00	-46.779	-12.272	
201.00	-46.947	-12.877	
202.00	-47.114	-16.896	
203.00	-47.264	-22.479	
204.00	-47.427	-20.314	
205.00	-47.549	-28.913	
206.00	-47.714	-29.707	
207.00	-47.886	-33.133	
208.00	-48.064	-38.319	
209.00	-48.100	-39.484	
210.00	-48.383	-51.924	
211.00	-48.705	-55.452	
212.00	-48.791	-63.556	
213.00	-49.016	-72.431	
214.00	-49.002	-79.651	
215.00	-48.892	-90.616	
216.00	-48.834	-96.704	
217.00	-48.670	-106.681	
218.00	-48.465	-116.567	
219.00	-48.248	-126.276	
220.00	-48.064	-133.333	
221.00	-47.753	-144.175	
222.00	-47.535	-153.111	
223.00	-47.268	-162.118	
224.00	-47.028	-170.762	
225.00	-46.891	-178.867	
226.00	-46.692	169.672	
227.00	-46.540	162.430	
228.00	-46.407	151.157	
229.00	-46.221	140.038	
230.00	-46.067	133.543	
231.00	-46.073	120.825	
232.00	-45.928	113.271	
233.00	-46.108	99.649	
234.00	-46.132	89.892	
235.00	-46.292	76.636	
236.00	-46.277	65.415	
237.00	-46.338	49.988	
238.00	-46.416	39.254	
239.00	-46.500	23.096	
240.00	-46.430	13.175	
241.00	-46.383	-3.489	
242.00	-46.427	-13.253	
243.00	-46.808	-28.543	
244.00	-46.533	-40.553	
245.00	-46.644	-53.078	
246.00	-46.799	-69.856	
247.00	-46.779	-85.332	
248.00	-46.568	-102.253	
249.00	-46.390	-117.352	
250.00	-46.049	-133.129	
251.00	-45.774	-146.737	
252.00	-45.373	-161.846	
253.00	-45.327	-176.047	
254.00	-44.878	169.220	
255.00	-44.691	157.714	
256.00	-44.599	144.641	
257.00	-44.795	132.483	
258.00	-45.079	120.526	
259.00	-45.363	105.776	
260.00	-45.888	91.464	
261.00	-46.393	72.855	
262.00	-47.043	55.368	
263.00	-47.559	36.128	
264.00	-47.757	15.493	
265.00	-48.352	-2.402	
266.00	-48.240	-23.471	
267.00	-48.136	-44.197	
268.00	-48.316	-60.032	
269.00	-47.717	-82.512	
270.00	-47.099	-99.904	
271.00	-46.392	-114.167	
272.00	-45.966	-132.011	
273.00	-45.535	-147.186	
274.00	-45.160	-158.154	
275.00	-45.118	-173.208	
276.00	-45.069	178.114	
277.00	-45.323	160.045	
278.00	-45.820	145.412	
279.00	-45.930	135.004	
280.00	-46.213	118.543	
281.00	-46.555	104.961	
282.00	-46.812	80.890	
283.00	-46.879	68.039	
284.00	-46.549	47.799	
285.00	-45.801	19.229	
286.00	-44.800	-14.895	
287.00	-45.168	-17.291	
288.00	-45.358	-39.167	
289.00	-45.641	-41.249	
290.00	-46.572	-64.702	
291.00	-46.715	-69.809	
292.00	-48.097	-97.688	
293.00	-48.320	-104.571	
294.00	-49.000	-132.312	
295.00	-48.827	-146.501	
296.00	-48.701	-172.231	
297.00	-48.522	174.197	
298.00	-48.173	153.322	
299.00	-48.084	145.678	
300.00	-48.092	122.081	
301.00	-48.205	112.143	
302.00	-48.644	95.700	
303.00	-48.817	84.942	
304.00	-49.010	67.873	
305.00	-49.224	51.644	
306.00	-49.297	33.782	
307.00	-49.620	20.626	
308.00	-49.466	2.548	
309.00	-49.591	-12.580	
310.00	-49.772	-30.101	
311.00	-50.145	-44.433	
312.00	-50.696	-60.790	
313.00	-51.466	-77.059	
314.00	-52.178	-96.223	
315.00	-52.308	-111.965	
316.00	-52.714	-132.948	
317.00	-53.091	-151.398	
318.00	-52.954	-171.257	
319.00	-52.775	170.752	
320.00	-52.365	162.126	
321.00	-52.595	141.993	
322.00	-52.221	130.845	
323.00	-51.926	103.857	
324.00	-51.993	97.474	
325.00	-51.739	73.279	
326.00	-51.963	67.112	
327.00	-51.766	43.510	
328.00	-51.631	33.385	
329.00	-51.255	13.398	
330.00	-50.729	3.305	
331.00	-50.379	-12.273	
332.00	-50.152	-27.090	
333.00	-49.376	-41.251	
334.00	-49.449	-46.336	
335.00	-49.342	-62.083	
336.00	-49.005	-67.244	
337.00	-48.917	-82.181	
338.00	-48.742	-90.658	
339.00	-48.839	-99.036	
340.00	-48.735	-116.153	
341.00	-48.741	-120.899	
342.00	-48.839	-133.800	
343.00	-48.761	-136.862	
344.00	-48.999	-147.561	
345.00	-49.171	-154.543	
346.00	-49.503	-165.516	
347.00	-49.752	-168.195	
348.00	-50.441	-179.191	
349.00	-51.096	179.167	
350.00	-52.196	164.893	
351.00	-53.061	160.877	
352.00	-54.432	140.680	
353.00	-55.542	128.275	
354.00	-55.596	103.591	
355.00	-56.213	90.950	
356.00	-55.749	71.143	
357.00	-54.654	58.527	
358.00	-52.795	40.154	
359.00	-52.169	37.206	
Frequency	1950.00	MHz	
Channel	test		
Scan Axis name	Azimuth  [deg]		
Scan Axis	Amplitude	Phase	
			
0.00	-57.754	-153.178	
1.00	-58.101	-148.229	
2.00	-57.902	-145.701	
3.00	-57.964	-145.406	
4.00	-57.332	-147.195	
5.00	-57.936	-143.002	
6.00	-58.582	-135.991	
7.00	-58.425	-135.139	
8.00	-59.601	-134.647	
9.00	-59.570	-133.124	
10.00	-60.506	-121.928	
11.00	-61.129	-120.373	
12.00	-61.429	-124.723	
13.00	-62.263	-115.735	
14.00	-64.322	-103.175	
15.00	-66.885	-119.497	
16.00	-67.015	-111.369	
17.00	-72.122	-152.212	
18.00	-80.417	-179.050	
19.00	-69.742	128.662	
20.00	-68.172	116.956	
21.00	-63.712	129.212	
22.00	-62.605	110.437	
23.00	-61.111	114.431	
24.00	-58.343	119.110	
25.00	-57.817	119.720	
26.00	-56.980	121.403	
27.00	-56.253	127.086	
28.00	-55.106	137.690	
29.00	-55.285	137.156	
30.00	-54.542	142.914	
31.00	-55.075	148.543	
32.00	-54.634	153.906	
33.00	-54.599	164.331	
34.00	-55.051	170.107	
35.00	-55.100	-176.474	
36.00	-55.815	-168.353	
37.00	-55.593	-158.767	
38.00	-54.996	-145.541	
39.00	-55.371	-135.849	
40.00	-55.045	-124.540	
41.00	-54.547	-109.070	
42.00	-53.636	-93.166	
43.00	-53.792	-87.743	
44.00	-53.661	-76.865	
45.00	-53.888	-69.145	
46.00	-54.297	-60.519	
47.00	-54.451	-46.545	
48.00	-55.039	-45.426	
49.00	-55.745	-20.998	
50.00	-56.529	-14.836	
51.00	-57.960	8.422	
52.00	-58.087	22.580	
53.00	-60.071	38.508	
54.00	-61.732	68.121	
55.00	-59.720	88.389	
56.00	-58.767	100.751	
57.00	-59.107	116.079	
58.00	-58.827	137.856	
59.00	-58.210	147.004	
60.00	-58.663	163.395	
61.00	-59.178	179.146	
62.00	-59.267	-161.794	
63.00	-57.631	-131.091	
64.00	-58.063	-131.538	
65.00	-57.595	-110.961	
66.00	-57.713	-94.914	
67.00	-57.638	-79.195	
68.00	-57.945	-62.919	
69.00	-57.514	-59.386	
70.00	-57.519	-45.544	
71.00	-57.731	-37.118	
72.00	-58.328	-19.643	
73.00	-60.412	-7.759	
74.00	-61.974	-1.230	
75.00	-63.664	1.677	
76.00	-67.616	7.329	
77.00	-69.869	1.756	
78.00	-76.491	-20.862	
79.00	-72.422	-87.751	
80.00	-66.268	-99.268	
81.00	-62.969	-88.630	
82.00	-62.744	-75.872	
83.00	-60.716	-77.785	
84.00	-60.447	-61.598	
85.00	-58.991	-54.414	
86.00	-59.073	-38.632	
87.00	-58.752	-32.039	
88.00	-58.499	-23.067	
89.00	-59.479	-12.701	
90.00	-60.553	-8.523	
91.00	-60.567	4.887	
92.00	-62.782	2.306	
93.00	-61.984	16.558	
94.00	-66.350	-1.607	
95.00	-66.983	-36.825	
96.00	-66.429	-65.579	
97.00	-61.392	-74.935	
98.00	-58.678	-73.990	
99.00	-57.660	-76.514	
100.00	-56.189	-57.580	
101.00	-54.743	-49.006	
102.00	-54.787	-27.336	
103.00	-54.607	-28.836	
104.00	-54.503	-10.937	
105.00	-53.725	-5.154	
106.00	-54.509	16.132	
107.00	-53.617	31.736	
108.00	-54.134	51.234	
109.00	-53.065	62.886	
110.00	-53.117	82.283	
111.00	-51.863	95.953	
112.00	-51.033	119.462	
113.00	-50.786	131.185	
114.00	-50.942	147.670	
115.00	-50.179	162.459	
116.00	-50.658	177.334	
117.00	-50.528	-172.658	
118.00	-50.542	-164.620	
119.00	-50.477	-146.561	
120.00	-50.886	-132.481	
121.00	-51.160	-110.990	
122.00	-51.625	-93.445	
123.00	-51.987	-74.467	
124.00	-52.898	-65.968	
125.00	-52.224	-37.138	
126.00	-52.018	-18.647	
127.00	-52.024	-0.442	
128.00	-52.193	15.208	
129.00	-51.016	37.184	
130.00	-50.659	54.073	
131.00	-50.070	78.549	
132.00	-49.243	85.148	
133.00	-48.566	100.452	
134.00	-48.264	113.062	
135.00	-47.391	129.090	
136.00	-46.727	148.425	
137.00	-46.401	161.461	
138.00	-45.760	176.286	
139.00	-45.377	-178.051	
140.00	-45.322	-161.673	
141.00	-45.220	-164.267	
142.00	-44.764	-145.939	
143.00	-44.692	-139.135	
144.00	-44.205	-115.157	
145.00	-43.886	-100.012	
146.00	-43.689	-91.659	
147.00	-43.114	-84.918	
148.00	-43.075	-67.774	
149.00	-42.684	-55.980	
150.00	-42.398	-41.479	
151.00	-42.076	-36.247	
152.00	-41.909	-22.235	
153.00	-41.797	-18.423	
154.00	-41.337	-5.275	
155.00	-41.230	4.383	
156.00	-41.028	15.845	
157.00	-40.997	24.222	
158.00	-40.819	30.610	
159.00	-40.689	37.500	
160.00	-40.744	47.668	
161.00	-40.598	53.713	
162.00	-40.785	64.974	
163.00	-40.851	71.247	
164.00	-40.829	79.035	
165.00	-40.979	86.101	
166.00	-41.035	90.982	
167.00	-41.305	101.390	
168.00	-41.389	108.638	
169.00	-41.595	113.970	
170.00	-41.918	119.493	
171.00	-42.134	125.804	
172.00	-42.259	134.792	
173.00	-42.317	142.139	
174.00	-42.344	141.471	
175.00	-42.701	147.352	
176.00	-42.742	150.631	
177.00	-42.813	153.869	
178.00	-42.836	158.118	
179.00	-42.942	161.446	
180.00	-43.126	166.741	
181.00	-43.143	172.932	
182.00	-43.191	176.186	
183.00	-43.081	174.625	
184.00	-43.059	-179.351	
185.00	-43.041	-179.550	
186.00	-42.994	-176.840	
187.00	-43.032	-175.297	
188.00	-42.976	-174.016	
189.00	-43.223	-169.407	
190.00	-43.005	-169.850	
191.00	-42.840	-168.655	
192.00	-42.891	-175.842	
193.00	-43.036	-172.171	
194.00	-43.121	-173.852	
195.00	-43.142	-175.095	
196.00	-43.343	-178.157	
197.00	-43.524	-179.008	
198.00	-43.605	175.809	
199.00	-43.962	177.494	
200.00	-43.898	165.235	
201.00	-44.221	164.008	
202.00	-44.409	156.924	
203.00	-44.493	149.702	
204.00	-44.439	149.342	
205.00	-44.589	138.799	
206.00	-44.700	135.853	
207.00	-44.800	129.599	
208.00	-44.764	122.384	
209.00	-44.608	118.567	
210.00	-44.512	107.595	
211.00	-44.433	102.632	
212.00	-44.639	94.731	
213.00	-44.557	87.298	
214.00	-44.537	81.354	
215.00	-44.589	73.242	
216.00	-44.807	67.414	
217.00	-44.927	58.638	
218.00	-45.294	50.285	
219.00	-45.724	40.629	
220.00	-45.921	36.344	
221.00	-46.452	25.631	
222.00	-47.171	15.518	
223.00	-47.547	5.578	
224.00	-47.829	-5.046	
225.00	-48.154	-14.517	
226.00	-48.638	-30.332	
227.00	-49.023	-42.827	
228.00	-49.839	-56.884	
229.00	-49.800	-73.846	
230.00	-49.618	-83.050	
231.00	-49.744	-98.771	
232.00	-49.509	-110.832	
233.00	-49.093	-124.563	
234.00	-49.205	-138.093	
235.00	-49.240	-152.984	
236.00	-49.197	-164.504	
237.00	-48.944	-178.676	
238.00	-48.816	170.499	
239.00	-48.913	154.459	
240.00	-48.812	145.597	
241.00	-48.860	131.708	
242.00	-48.849	124.161	
243.00	-48.800	109.136	
244.00	-49.104	100.430	
245.00	-49.556	89.647	
246.00	-49.554	71.908	
247.00	-50.351	63.212	
248.00	-50.853	48.034	
249.00	-51.157	33.875	
250.00	-51.399	14.746	
251.00	-51.295	-2.076	
252.00	-51.426	-18.739	
253.00	-51.335	-34.971	
254.00	-51.266	-52.528	
255.00	-50.944	-65.848	
256.00	-50.941	-76.932	
257.00	-50.748	-93.935	
258.00	-51.100	-105.078	
259.00	-51.127	-120.805	
260.00	-51.338	-135.110	
261.00	-51.584	-152.373	
262.00	-51.896	-171.634	
263.00	-52.370	170.988	
264.00	-52.469	150.834	
265.00	-52.887	133.820	
266.00	-52.287	116.369	
267.00	-52.937	98.843	
268.00	-52.497	86.563	
269.00	-52.390	62.223	
270.00	-52.414	45.776	
271.00	-52.145	31.124	
272.00	-51.839	9.752	
273.00	-50.833	-5.548	
274.00	-50.663	-17.372	
275.00	-50.242	-34.226	
276.00	-50.348	-39.168	
277.00	-50.136	-60.307	
278.00	-50.118	-67.661	
279.00	-50.609	-79.451	
280.00	-51.487	-92.831	
281.00	-51.360	-103.694	
282.00	-52.599	-124.475	
283.00	-52.995	-137.901	
284.00	-53.222	-160.386	
285.00	-53.334	164.409	
286.00	-51.157	117.100	
287.00	-51.834	117.838	
288.00	-50.882	89.201	
289.00	-51.308	85.128	
290.00	-50.747	60.674	
291.00	-51.156	58.105	
292.00	-51.039	34.669	
293.00	-51.183	29.659	
294.00	-51.228	10.488	
295.00	-51.408	-0.884	
296.00	-51.426	-17.434	
297.00	-51.224	-29.054	
298.00	-51.964	-43.715	
299.00	-51.811	-52.687	
300.00	-53.051	-70.048	
301.00	-53.424	-79.533	
302.00	-54.913	-88.232	
303.00	-56.276	-101.343	
304.00	-58.258	-114.077	
305.00	-60.316	-139.429	
306.00	-63.013	-164.561	
307.00	-63.399	161.733	
308.00	-61.949	127.870	
309.00	-60.542	106.255	
310.00	-59.126	88.079	
311.00	-58.878	70.766	
312.00	-59.044	55.589	
313.00	-59.497	38.310	
314.00	-60.284	20.837	
315.00	-59.613	2.146	
316.00	-59.762	-21.220	
317.00	-58.543	-36.268	
318.00	-57.642	-55.618	
319.00	-57.573	-64.454	
320.00	-57.111	-75.769	
321.00	-56.338	-85.407	
322.00	-55.956	-91.389	
323.00	-56.410	-100.201	
324.00	-55.991	-105.456	
325.00	-57.527	-110.530	
326.00	-56.470	-112.623	
327.00	-58.622	-115.122	
328.00	-58.847	-119.374	
329.00	-61.061	-119.134	
330.00	-62.046	-118.566	
331.00	-63.737	-121.123	
332.00	-66.152	-117.173	
333.00	-66.873	-110.942	
334.00	-65.511	-102.880	
335.00	-65.400	-107.547	
336.00	-64.397	-93.856	
337.00	-63.510	-105.585	
338.00	-65.095	-105.460	
339.00	-63.870	-102.914	
340.00	-65.181	-120.638	
341.00	-64.667	-125.888	
342.00	-65.338	-144.226	
343.00	-62.944	-130.817	
344.00	-62.221	-142.604	
345.00	-61.486	-146.344	
346.00	-61.708	-154.809	
347.00	-60.767	-143.714	
348.00	-60.953	-158.049	
349.00	-59.627	-150.109	
350.00	-59.927	-162.157	
351.00	-59.273	-158.078	
352.00	-59.816	-168.095	
353.00	-59.513	-164.916	
354.00	-59.432	-166.304	
355.00	-59.515	-166.518	
356.00	-58.873	-162.899	
357.00	-58.927	-161.738	
358.00	-59.946	-162.003	
359.00	-59.242	-155.006	
Frequency	2050.00	MHz	
Channel	test		
Scan Axis name	Azimuth  [deg]		
Scan Axis	Amplitude	Phase	
			
0.00	-65.748	-151.131	
1.00	-65.970	-146.951	
2.00	-65.117	-160.497	
3.00	-64.197	-156.514	
4.00	-63.747	-162.430	
5.00	-63.214	-163.934	
6.00	-63.010	-161.391	
7.00	-64.014	-163.635	
8.00	-63.174	-168.098	
9.00	-65.056	-168.975	
10.00	-63.722	-170.500	
11.00	-65.552	-164.161	
12.00	-67.528	-167.287	
13.00	-69.395	-175.589	
14.00	-71.072	-176.497	
15.00	-71.804	151.157	
16.00	-72.983	131.556	
17.00	-72.743	108.128	
18.00	-68.244	80.842	
19.00	-68.369	107.661	
20.00	-65.974	120.653	
21.00	-65.085	108.678	
22.00	-61.925	95.224	
23.00	-61.583	113.345	
24.00	-61.016	115.988	
25.00	-60.321	118.087	
26.00	-58.071	117.940	
27.00	-57.214	120.914	
28.00	-57.055	123.177	
29.00	-56.853	133.763	
30.00	-57.264	134.607	
31.00	-59.027	136.328	
32.00	-57.850	148.476	
33.00	-58.229	165.799	
34.00	-61.282	-175.419	
35.00	-60.237	-177.683	
36.00	-61.816	-167.329	
37.00	-64.099	-142.405	
38.00	-64.495	-135.350	
39.00	-61.952	-102.267	
40.00	-62.884	-87.829	
41.00	-60.945	-64.053	
42.00	-60.901	-57.793	
43.00	-60.458	-67.331	
44.00	-60.133	-36.237	
45.00	-60.504	-20.271	
46.00	-61.585	-11.275	
47.00	-67.301	-3.108	
48.00	-63.327	22.280	
49.00	-64.464	65.059	
50.00	-65.091	77.329	
51.00	-61.804	119.260	
52.00	-63.046	148.781	
53.00	-59.981	166.462	
54.00	-57.968	179.016	
55.00	-56.629	-176.365	
56.00	-56.320	-163.268	
57.00	-56.303	-136.864	
58.00	-55.868	-129.638	
59.00	-55.765	-121.676	
60.00	-56.571	-114.335	
61.00	-55.464	-93.280	
62.00	-55.939	-90.227	
63.00	-56.228	-62.145	
64.00	-54.549	-41.434	
65.00	-55.866	-31.351	
66.00	-55.330	-15.049	
67.00	-56.589	-2.265	
68.00	-59.623	12.660	
69.00	-57.677	28.680	
70.00	-59.620	57.332	
71.00	-59.616	78.364	
72.00	-60.628	104.205	
73.00	-58.658	152.155	
74.00	-57.389	161.869	
75.00	-54.692	-178.651	
76.00	-54.144	-165.489	
77.00	-54.027	-154.829	
78.00	-53.743	-141.072	
79.00	-53.904	-118.529	
80.00	-54.014	-119.211	
81.00	-53.093	-102.697	
82.00	-53.810	-87.112	
83.00	-54.892	-64.826	
84.00	-55.848	-53.599	
85.00	-54.440	-20.362	
86.00	-55.218	-10.223	
87.00	-56.776	16.514	
88.00	-55.681	30.023	
89.00	-57.013	47.315	
90.00	-56.485	65.210	
91.00	-57.556	82.072	
92.00	-58.261	105.441	
93.00	-57.612	122.029	
94.00	-56.805	140.118	
95.00	-57.049	164.388	
96.00	-56.388	-171.806	
97.00	-57.005	-161.508	
98.00	-55.768	-142.058	
99.00	-58.283	-120.250	
100.00	-56.418	-93.779	
101.00	-57.116	-74.635	
102.00	-55.883	-47.882	
103.00	-57.190	-32.251	
104.00	-56.302	-15.318	
105.00	-56.833	14.915	
106.00	-56.841	24.242	
107.00	-57.213	48.620	
108.00	-56.814	68.377	
109.00	-57.882	81.389	
110.00	-57.263	101.332	
111.00	-58.220	127.324	
112.00	-56.707	144.614	
113.00	-56.641	159.213	
114.00	-57.928	-178.068	
115.00	-57.245	-156.455	
116.00	-56.938	-143.086	
117.00	-56.202	-129.165	
118.00	-57.179	-118.209	
119.00	-56.179	-89.503	
120.00	-56.992	-67.513	
121.00	-56.578	-46.254	
122.00	-55.900	-20.828	
123.00	-56.507	-2.866	
124.00	-55.396	7.649	
125.00	-56.453	32.709	
126.00	-57.647	46.487	
127.00	-57.112	61.237	
128.00	-57.680	81.366	
129.00	-57.219	101.224	
130.00	-56.979	119.858	
131.00	-55.819	133.369	
132.00	-56.861	147.215	
133.00	-56.723	163.438	
134.00	-55.708	179.842	
135.00	-55.878	-163.546	
136.00	-56.132	-141.890	
137.00	-57.944	-127.447	
138.00	-56.817	-103.796	
139.00	-57.826	-94.317	
140.00	-58.035	-72.670	
141.00	-58.609	-69.152	
142.00	-57.899	-33.477	
143.00	-57.854	-25.034	
144.00	-57.332	6.186	
145.00	-56.421	32.300	
146.00	-56.571	40.630	
147.00	-56.054	49.779	
148.00	-55.303	72.871	
149.00	-53.939	87.303	
150.00	-54.157	110.562	
151.00	-53.063	115.269	
152.00	-52.326	134.936	
153.00	-51.780	140.456	
154.00	-51.100	154.358	
155.00	-50.244	167.729	
156.00	-49.686	-179.154	
157.00	-49.219	-169.598	
158.00	-48.837	-160.647	
159.00	-48.549	-155.899	
160.00	-48.327	-143.919	
161.00	-47.926	-137.642	
162.00	-47.617	-123.742	
163.00	-47.518	-117.828	
164.00	-47.184	-111.176	
165.00	-47.095	-102.513	
166.00	-46.983	-99.116	
167.00	-47.076	-87.349	
168.00	-46.854	-81.951	
169.00	-47.053	-75.955	
170.00	-47.369	-70.054	
171.00	-47.601	-65.370	
172.00	-47.767	-56.542	
173.00	-47.819	-49.572	
174.00	-48.013	-47.124	
175.00	-48.560	-40.331	
176.00	-48.466	-37.265	
177.00	-48.699	-32.047	
178.00	-48.964	-26.714	
179.00	-48.753	-22.812	
180.00	-49.071	-16.361	
181.00	-49.006	-11.142	
182.00	-49.054	-3.473	
183.00	-48.825	-5.063	
184.00	-48.726	1.254	
185.00	-48.483	3.306	
186.00	-48.429	6.862	
187.00	-48.218	9.348	
188.00	-47.998	8.158	
189.00	-47.822	12.291	
190.00	-47.681	9.332	
191.00	-47.615	9.947	
192.00	-47.355	-0.462	
193.00	-47.412	2.464	
194.00	-47.224	-0.571	
195.00	-47.265	-2.318	
196.00	-47.362	-6.707	
197.00	-47.373	-9.364	
198.00	-47.576	-15.363	
199.00	-47.826	-13.355	
200.00	-47.965	-26.070	
201.00	-48.148	-28.207	
202.00	-48.266	-35.847	
203.00	-48.509	-43.428	
204.00	-49.014	-43.833	
205.00	-49.184	-55.138	
206.00	-49.750	-58.696	
207.00	-50.318	-65.405	
208.00	-50.409	-75.374	
209.00	-50.897	-78.112	
210.00	-51.305	-94.251	
211.00	-51.483	-99.398	
212.00	-52.040	-111.422	
213.00	-51.937	-121.104	
214.00	-52.452	-131.530	
215.00	-52.348	-142.150	
216.00	-52.834	-149.193	
217.00	-52.842	-155.432	
218.00	-53.031	-169.074	
219.00	-53.162	-178.499	
220.00	-53.472	178.370	
221.00	-53.855	168.408	
222.00	-54.247	163.740	
223.00	-54.829	154.262	
224.00	-55.912	148.895	
225.00	-56.733	143.142	
226.00	-57.596	131.955	
227.00	-58.239	125.341	
228.00	-59.562	111.947	
229.00	-60.512	97.297	
230.00	-61.408	90.402	
231.00	-61.691	71.764	
232.00	-60.939	62.072	
233.00	-61.011	45.062	
234.00	-60.606	39.268	
235.00	-60.684	23.298	
236.00	-60.487	18.614	
237.00	-60.634	7.316	
238.00	-59.778	2.854	
239.00	-59.633	-8.696	
240.00	-59.743	-14.330	
241.00	-60.355	-26.495	
242.00	-60.373	-33.040	
243.00	-60.592	-46.595	
244.00	-61.007	-57.999	
245.00	-61.213	-76.489	
246.00	-61.253	-91.882	
247.00	-61.840	-108.512	
248.00	-62.447	-127.356	
249.00	-61.263	-151.997	
250.00	-61.003	-169.691	
251.00	-60.197	168.970	
252.00	-59.237	155.636	
253.00	-58.505	141.511	
254.00	-57.647	127.445	
255.00	-57.631	116.462	
256.00	-57.068	101.968	
257.00	-57.100	92.916	
258.00	-57.409	81.073	
259.00	-57.434	61.807	
260.00	-59.188	49.304	
261.00	-59.760	28.205	
262.00	-60.399	-2.203	
263.00	-60.337	-26.341	
264.00	-59.926	-52.586	
265.00	-58.985	-67.599	
266.00	-58.180	-83.781	
267.00	-58.156	-98.826	
268.00	-57.768	-107.910	
269.00	-58.024	-128.404	
270.00	-58.845	-141.915	
271.00	-59.336	-160.335	
272.00	-59.640	174.362	
273.00	-59.653	150.627	
274.00	-58.955	136.698	
275.00	-58.352	108.659	
276.00	-58.225	100.289	
277.00	-57.703	78.760	
278.00	-58.450	61.946	
279.00	-58.221	52.891	
280.00	-59.253	36.625	
281.00	-59.783	23.183	
282.00	-61.199	-5.840	
283.00	-61.464	-21.308	
284.00	-60.999	-57.191	
285.00	-59.348	-94.192	
286.00	-57.122	-124.208	
287.00	-57.234	-136.807	
288.00	-57.189	-160.449	
289.00	-57.339	-161.854	
290.00	-57.813	163.169	
291.00	-57.505	159.641	
292.00	-58.428	131.158	
293.00	-57.996	120.397	
294.00	-58.201	92.761	
295.00	-58.119	82.212	
296.00	-58.309	55.441	
297.00	-57.953	40.426	
298.00	-58.543	17.069	
299.00	-58.269	8.048	
300.00	-58.856	-34.045	
301.00	-58.765	-51.095	
302.00	-57.783	-70.472	
303.00	-56.751	-88.957	
304.00	-55.807	-105.387	
305.00	-54.676	-120.153	
306.00	-54.228	-133.785	
307.00	-53.853	-143.634	
308.00	-53.783	-159.776	
309.00	-54.142	-171.745	
310.00	-54.747	167.191	
311.00	-54.861	152.395	
312.00	-55.286	129.451	
313.00	-55.656	106.425	
314.00	-55.401	88.628	
315.00	-55.067	69.256	
316.00	-54.471	52.045	
317.00	-53.552	33.100	
318.00	-52.816	16.691	
319.00	-51.997	5.158	
320.00	-51.773	-4.354	
321.00	-51.061	-16.627	
322.00	-51.284	-26.394	
323.00	-51.133	-42.116	
324.00	-50.986	-46.083	
325.00	-51.546	-61.096	
326.00	-51.787	-67.283	
327.00	-51.836	-86.401	
328.00	-52.292	-90.939	
329.00	-52.857	-110.514	
330.00	-53.247	-119.774	
331.00	-53.653	-134.553	
332.00	-53.593	-153.905	
333.00	-53.427	-168.342	
334.00	-52.644	-178.281	
335.00	-52.021	167.694	
336.00	-51.771	162.840	
337.00	-51.500	152.945	
338.00	-51.610	146.981	
339.00	-51.510	144.915	
340.00	-51.915	136.201	
341.00	-52.389	135.670	
342.00	-52.935	127.700	
343.00	-53.479	128.652	
344.00	-54.082	124.072	
345.00	-54.885	122.437	
346.00	-56.462	114.998	
347.00	-57.111	118.068	
348.00	-59.644	114.556	
349.00	-60.509	116.529	
350.00	-63.359	112.801	
351.00	-65.133	124.109	
352.00	-68.848	129.697	
353.00	-73.608	166.076	
354.00	-71.875	-177.647	
355.00	-70.714	-149.187	
356.00	-68.785	-161.800	
357.00	-65.244	-149.577	
358.00	-64.142	-159.121	
359.00	-62.591	-152.902	
Frequency	2170.00	MHz	
Channel	test		
Scan Axis name	Azimuth  [deg]		
Scan Axis	Amplitude	Phase	
			
0.00	-58.304	-151.739	
1.00	-58.924	-163.413	
2.00	-60.197	-169.169	
3.00	-60.147	-175.358	
4.00	-61.445	169.463	
5.00	-61.561	154.780	
6.00	-62.211	150.082	
7.00	-62.891	138.371	
8.00	-62.106	114.694	
9.00	-61.560	105.405	
10.00	-60.205	93.562	
11.00	-60.173	95.702	
12.00	-58.637	76.346	
13.00	-57.703	71.871	
14.00	-56.885	68.887	
15.00	-55.723	68.278	
16.00	-56.168	62.669	
17.00	-55.283	61.252	
18.00	-55.609	58.691	
19.00	-55.420	62.591	
20.00	-54.531	56.993	
21.00	-54.819	59.632	
22.00	-54.254	57.318	
23.00	-54.842	62.198	
24.00	-54.652	62.336	
25.00	-55.324	62.964	
26.00	-55.000	59.769	
27.00	-55.931	64.527	
28.00	-56.270	62.141	
29.00	-57.146	75.943	
30.00	-57.553	78.782	
31.00	-59.797	82.118	
32.00	-62.671	80.114	
33.00	-61.339	112.145	
34.00	-65.696	125.873	
35.00	-65.184	155.019	
36.00	-63.555	-174.225	
37.00	-62.888	-172.612	
38.00	-63.953	-166.226	
39.00	-63.651	-157.764	
40.00	-63.708	-144.888	
41.00	-64.283	-123.253	
42.00	-64.339	-117.900	
43.00	-65.660	-103.209	
44.00	-68.174	-100.972	
45.00	-70.492	-93.333	
46.00	-85.718	-73.057	
47.00	-74.199	73.508	
48.00	-67.526	95.401	
49.00	-63.364	109.857	
50.00	-61.002	120.409	
51.00	-58.652	126.437	
52.00	-57.546	135.089	
53.00	-56.519	143.834	
54.00	-56.358	155.251	
55.00	-55.838	167.651	
56.00	-55.552	173.214	
57.00	-55.830	-171.166	
58.00	-56.071	-159.329	
59.00	-56.569	-154.320	
60.00	-57.510	-138.214	
61.00	-58.737	-112.837	
62.00	-59.571	-102.180	
63.00	-60.008	-67.796	
64.00	-60.410	-47.773	
65.00	-59.410	-18.582	
66.00	-57.823	-3.622	
67.00	-57.101	11.171	
68.00	-56.526	23.137	
69.00	-56.728	40.103	
70.00	-56.336	51.946	
71.00	-57.074	65.726	
72.00	-56.868	78.896	
73.00	-58.894	105.858	
74.00	-59.742	107.813	
75.00	-60.768	144.359	
76.00	-61.533	166.705	
77.00	-62.005	-171.734	
78.00	-61.554	-144.999	
79.00	-62.160	-121.880	
80.00	-61.216	-102.102	
81.00	-61.169	-78.925	
82.00	-61.657	-57.984	
83.00	-60.779	-27.958	
84.00	-61.728	-8.734	
85.00	-60.561	13.573	
86.00	-60.041	51.206	
87.00	-58.200	68.183	
88.00	-59.401	84.945	
89.00	-58.212	100.316	
90.00	-58.249	118.213	
91.00	-57.221	137.904	
92.00	-56.573	150.504	
93.00	-56.345	158.785	
94.00	-56.348	-178.300	
95.00	-57.580	-167.066	
96.00	-57.345	-145.195	
97.00	-57.933	-129.206	
98.00	-58.507	-99.928	
99.00	-59.539	-89.537	
100.00	-58.725	-39.307	
101.00	-57.786	-20.183	
102.00	-57.247	19.414	
103.00	-56.673	27.190	
104.00	-55.480	51.108	
105.00	-55.616	65.189	
106.00	-55.837	92.009	
107.00	-55.220	102.343	
108.00	-54.537	129.163	
109.00	-53.982	137.617	
110.00	-54.047	155.446	
111.00	-53.877	171.399	
112.00	-54.444	-165.466	
113.00	-54.316	-149.104	
114.00	-54.971	-127.316	
115.00	-55.288	-110.306	
116.00	-55.004	-84.728	
117.00	-55.027	-70.328	
118.00	-55.157	-56.113	
119.00	-55.059	-25.685	
120.00	-55.107	-5.050	
121.00	-54.654	22.670	
122.00	-54.276	41.457	
123.00	-54.093	58.642	
124.00	-54.149	72.958	
125.00	-53.422	98.073	
126.00	-53.829	115.382	
127.00	-53.068	130.571	
128.00	-52.427	141.880	
129.00	-53.412	161.648	
130.00	-53.085	178.130	
131.00	-53.906	-158.699	
132.00	-54.481	-147.002	
133.00	-54.246	-128.845	
134.00	-55.558	-108.112	
135.00	-55.684	-84.949	
136.00	-57.186	-48.343	
137.00	-55.981	-23.018	
138.00	-55.074	7.138	
139.00	-53.858	17.295	
140.00	-52.039	39.431	
141.00	-51.521	41.885	
142.00	-49.952	61.878	
143.00	-49.699	73.399	
144.00	-48.218	98.390	
145.00	-47.628	114.864	
146.00	-46.805	123.017	
147.00	-46.439	129.476	
148.00	-45.670	148.682	
149.00	-45.435	161.129	
150.00	-44.964	178.074	
151.00	-44.657	-177.940	
152.00	-44.561	-163.438	
153.00	-44.322	-158.209	
154.00	-44.117	-145.397	
155.00	-44.125	-131.846	
156.00	-44.050	-118.780	
157.00	-43.950	-108.997	
158.00	-43.950	-98.673	
159.00	-44.033	-89.578	
160.00	-43.837	-77.060	
161.00	-43.935	-67.941	
162.00	-44.021	-53.505	
163.00	-43.997	-45.125	
164.00	-44.183	-33.998	
165.00	-44.150	-21.645	
166.00	-44.160	-15.223	
167.00	-44.045	-1.088	
168.00	-43.828	9.058	
169.00	-43.889	19.342	
170.00	-43.676	26.392	
171.00	-43.473	34.126	
172.00	-43.266	43.707	
173.00	-43.172	52.582	
174.00	-43.225	55.590	
175.00	-42.818	60.655	
176.00	-42.683	64.184	
177.00	-42.731	67.848	
178.00	-42.490	73.099	
179.00	-42.430	75.565	
180.00	-42.286	81.045	
181.00	-42.288	86.300	
182.00	-42.197	90.137	
183.00	-42.228	89.149	
184.00	-42.278	94.828	
185.00	-42.323	95.915	
186.00	-42.316	99.217	
187.00	-42.300	102.015	
188.00	-42.336	102.541	
189.00	-42.387	108.544	
190.00	-42.528	107.969	
191.00	-42.521	108.430	
192.00	-42.731	100.997	
193.00	-42.831	103.882	
194.00	-42.966	103.391	
195.00	-43.071	102.121	
196.00	-43.196	99.389	
197.00	-43.423	97.803	
198.00	-43.569	93.273	
199.00	-43.687	97.182	
200.00	-43.903	86.276	
201.00	-44.119	86.552	
202.00	-44.299	81.730	
203.00	-44.641	76.118	
204.00	-44.937	79.146	
205.00	-45.336	71.324	
206.00	-45.657	69.940	
207.00	-46.115	69.272	
208.00	-46.444	63.000	
209.00	-46.861	64.084	
210.00	-47.462	53.966	
211.00	-47.784	53.476	
212.00	-48.406	47.691	
213.00	-48.884	43.178	
214.00	-49.320	38.640	
215.00	-49.930	30.111	
216.00	-50.206	29.237	
217.00	-50.771	20.775	
218.00	-51.151	12.211	
219.00	-51.432	2.940	
220.00	-51.807	-3.657	
221.00	-51.975	-15.036	
222.00	-52.064	-23.976	
223.00	-51.986	-36.740	
224.00	-51.981	-49.086	
225.00	-51.732	-59.101	
226.00	-51.435	-72.313	
227.00	-51.058	-82.489	
228.00	-50.385	-94.366	
229.00	-49.766	-108.827	
230.00	-49.469	-115.327	
231.00	-49.160	-129.002	
232.00	-48.985	-134.321	
233.00	-48.644	-148.776	
234.00	-48.441	-158.519	
235.00	-48.466	-169.905	
236.00	-48.607	177.331	
237.00	-48.607	164.776	
238.00	-48.802	153.856	
239.00	-49.524	136.764	
240.00	-49.557	125.031	
241.00	-49.846	108.595	
242.00	-50.141	97.034	
243.00	-50.429	82.297	
244.00	-50.475	66.158	
245.00	-51.197	53.744	
246.00	-51.301	35.317	
247.00	-51.512	20.762	
248.00	-52.262	3.615	
249.00	-52.543	-12.126	
250.00	-53.051	-31.932	
251.00	-53.225	-47.616	
252.00	-53.683	-67.730	
253.00	-53.942	-86.397	
254.00	-54.464	-108.670	
255.00	-54.011	-125.155	
256.00	-54.199	-144.181	
257.00	-53.620	-160.044	
258.00	-53.791	-174.491	
259.00	-54.054	169.614	
260.00	-54.562	155.281	
261.00	-55.412	137.611	
262.00	-55.636	119.825	
263.00	-56.812	99.277	
264.00	-57.833	82.748	
265.00	-58.793	59.439	
266.00	-59.855	35.688	
267.00	-59.642	15.449	
268.00	-59.963	-5.941	
269.00	-59.897	-27.400	
270.00	-59.854	-41.755	
271.00	-61.255	-48.473	
272.00	-61.964	-69.183	
273.00	-64.469	-78.948	
274.00	-69.879	-80.434	
275.00	-74.663	-168.493	
276.00	-69.690	129.054	
277.00	-67.154	101.891	
278.00	-62.618	89.926	
279.00	-61.074	71.399	
280.00	-60.308	64.543	
281.00	-59.985	57.311	
282.00	-60.128	38.306	
283.00	-60.951	27.610	
284.00	-60.612	11.032	
285.00	-63.537	-50.798	
286.00	-57.982	-109.412	
287.00	-58.874	-109.439	
288.00	-56.270	-139.043	
289.00	-56.952	-141.608	
290.00	-56.319	-162.512	
291.00	-56.364	-164.966	
292.00	-56.642	164.658	
293.00	-56.288	159.216	
294.00	-57.810	131.447	
295.00	-56.759	119.477	
296.00	-56.939	85.896	
297.00	-56.823	71.740	
298.00	-56.741	46.870	
299.00	-56.831	36.532	
300.00	-56.770	9.738	
301.00	-56.788	-11.916	
302.00	-56.729	-25.546	
303.00	-56.241	-49.966	
304.00	-55.806	-74.572	
305.00	-54.683	-96.435	
306.00	-53.495	-112.936	
307.00	-52.511	-124.632	
308.00	-51.602	-142.675	
309.00	-51.236	-154.652	
310.00	-50.649	-173.137	
311.00	-50.672	173.315	
312.00	-50.656	159.257	
313.00	-50.499	143.704	
314.00	-50.564	130.873	
315.00	-51.068	119.970	
316.00	-51.092	106.142	
317.00	-51.425	91.919	
318.00	-51.988	76.899	
319.00	-52.695	66.333	
320.00	-53.072	57.703	
321.00	-54.421	41.341	
322.00	-55.145	31.632	
323.00	-57.422	1.919	
324.00	-57.904	-6.620	
325.00	-58.737	-48.933	
326.00	-58.954	-54.421	
327.00	-57.566	-88.627	
328.00	-58.020	-94.895	
329.00	-56.507	-116.451	
330.00	-55.980	-127.816	
331.00	-56.869	-136.733	
332.00	-57.010	-149.276	
333.00	-57.962	-159.612	
334.00	-58.873	-171.001	
335.00	-60.054	169.264	
336.00	-61.076	162.838	
337.00	-63.011	137.174	
338.00	-63.880	113.989	
339.00	-62.740	90.421	
340.00	-62.767	69.998	
341.00	-61.119	57.175	
342.00	-61.673	31.803	
343.00	-60.885	32.770	
344.00	-61.838	16.763	
345.00	-63.992	7.759	
346.00	-62.522	-20.370	
347.00	-65.390	-25.564	
348.00	-61.470	-56.372	
349.00	-61.795	-68.297	
350.00	-59.206	-80.785	
351.00	-60.018	-89.836	
352.00	-58.485	-94.937	
353.00	-58.550	-103.541	
354.00	-59.075	-110.856	
355.00	-57.564	-112.617	
356.00	-57.601	-117.340	
357.00	-58.551	-128.886	
358.00	-58.274	-133.044	
359.00	-60.132	-136.486	
Frequency	2300.00	MHz	
Channel	test		
Scan Axis name	Azimuth  [deg]		
Scan Axis	Amplitude	Phase	
			
0.00	-79.623	-76.126	
1.00	-71.986	-49.725	
2.00	-67.384	-31.178	
3.00	-66.455	-38.055	
4.00	-63.555	-35.087	
5.00	-62.932	-35.470	
6.00	-61.469	-35.421	
7.00	-61.077	-33.558	
8.00	-60.611	-34.049	
9.00	-59.857	-25.389	
10.00	-60.948	-26.216	
11.00	-61.345	-20.122	
12.00	-63.429	-16.458	
13.00	-64.281	-10.286	
14.00	-64.045	-9.665	
15.00	-66.379	14.075	
16.00	-67.145	20.167	
17.00	-70.603	22.320	
18.00	-72.414	53.294	
19.00	-79.914	95.516	
20.00	-74.579	146.460	
21.00	-69.386	162.671	
22.00	-68.787	-155.737	
23.00	-66.893	-164.437	
24.00	-67.392	-154.188	
25.00	-63.189	-131.711	
26.00	-61.073	-141.597	
27.00	-61.186	-117.918	
28.00	-60.569	-109.263	
29.00	-61.674	-103.594	
30.00	-59.286	-88.657	
31.00	-58.449	-71.772	
32.00	-58.606	-69.130	
33.00	-57.081	-64.358	
34.00	-57.082	-51.494	
35.00	-57.835	-54.623	
36.00	-56.579	-44.845	
37.00	-59.790	-17.304	
38.00	-60.252	-13.462	
39.00	-58.873	-25.288	
40.00	-57.358	-29.279	
41.00	-61.557	-2.706	
42.00	-70.487	-38.980	
43.00	-66.277	37.773	
44.00	-64.137	43.314	
45.00	-78.823	-125.811	
46.00	-71.719	42.661	
47.00	-77.869	-178.122	
48.00	-69.625	-69.425	
49.00	-73.357	-89.503	
50.00	-64.362	-154.182	
51.00	-72.467	-82.240	
52.00	-64.044	-62.768	
53.00	-61.778	-65.516	
54.00	-66.418	-28.941	
55.00	-62.202	-65.695	
56.00	-55.694	4.861	
57.00	-60.994	10.181	
58.00	-66.545	38.765	
59.00	-67.982	-14.038	
60.00	-76.824	96.897	
61.00	-58.650	50.723	
62.00	-58.934	64.712	
63.00	-66.089	140.597	
64.00	-61.016	157.402	
65.00	-58.303	168.777	
66.00	-68.021	-152.812	
67.00	-58.148	-158.301	
68.00	-60.911	-167.879	
69.00	-84.431	-161.621	
70.00	-66.132	-151.470	
71.00	-64.541	-68.880	
72.00	-71.898	-132.809	
73.00	-59.093	-3.602	
74.00	-56.366	9.661	
75.00	-54.710	40.654	
76.00	-56.200	50.716	
77.00	-57.179	108.817	
78.00	-54.647	63.037	
79.00	-61.103	87.618	
80.00	-63.568	129.588	
81.00	-60.450	128.176	
82.00	-57.559	144.029	
83.00	-74.777	136.489	
84.00	-60.683	165.202	
85.00	-60.631	-140.326	
86.00	-59.180	-138.377	
87.00	-52.165	-93.305	
88.00	-59.617	-95.289	
89.00	-55.674	-93.502	
90.00	-56.937	-58.555	
91.00	-55.314	-19.924	
92.00	-58.265	18.380	
93.00	-58.779	-21.321	
94.00	-57.269	37.145	
95.00	-59.159	6.805	
96.00	-59.752	64.640	
97.00	-61.486	103.692	
98.00	-57.648	100.829	
99.00	-61.305	139.072	
100.00	-60.450	136.577	
101.00	-59.822	-170.464	
102.00	-58.173	-129.635	
103.00	-54.120	-131.562	
104.00	-56.043	-92.322	
105.00	-58.427	-92.437	
106.00	-55.240	-68.122	
107.00	-53.808	-34.069	
108.00	-53.702	-15.394	
109.00	-54.504	-24.192	
110.00	-53.242	-4.384	
111.00	-56.283	20.977	
112.00	-56.836	52.888	
113.00	-64.199	50.284	
114.00	-57.115	81.170	
115.00	-60.570	114.062	
116.00	-58.450	137.334	
117.00	-59.239	167.896	
118.00	-57.826	-179.271	
119.00	-59.195	-152.388	
120.00	-56.577	-118.044	
121.00	-53.596	-104.907	
122.00	-53.319	-77.720	
123.00	-53.722	-68.955	
124.00	-53.694	-48.681	
125.00	-54.070	-29.216	
126.00	-54.039	-13.613	
127.00	-53.702	7.771	
128.00	-54.080	27.770	
129.00	-53.408	41.652	
130.00	-53.393	66.998	
131.00	-53.588	82.582	
132.00	-52.494	101.974	
133.00	-51.982	118.865	
134.00	-51.515	136.673	
135.00	-51.131	158.925	
136.00	-50.468	-175.080	
137.00	-49.766	-156.703	
138.00	-49.462	-140.036	
139.00	-48.925	-133.110	
140.00	-49.245	-109.591	
141.00	-48.723	-111.621	
142.00	-48.802	-86.211	
143.00	-48.887	-81.106	
144.00	-48.618	-49.901	
145.00	-48.883	-29.279	
146.00	-48.273	-20.925	
147.00	-48.357	-8.158	
148.00	-48.177	12.105	
149.00	-48.224	29.456	
150.00	-47.967	50.429	
151.00	-47.716	59.389	
152.00	-47.332	78.188	
153.00	-46.952	87.950	
154.00	-46.599	103.637	
155.00	-45.962	119.560	
156.00	-45.807	132.513	
157.00	-45.455	144.281	
158.00	-45.224	155.605	
159.00	-45.032	164.450	
160.00	-45.044	176.898	
161.00	-45.103	-174.880	
162.00	-45.029	-159.684	
163.00	-44.855	-151.794	
164.00	-45.190	-140.692	
165.00	-45.164	-130.237	
166.00	-45.099	-120.265	
167.00	-45.205	-108.109	
168.00	-45.256	-96.730	
169.00	-45.116	-87.552	
170.00	-45.241	-77.836	
171.00	-45.260	-69.869	
172.00	-45.051	-58.055	
173.00	-44.837	-46.868	
174.00	-44.754	-43.534	
175.00	-44.487	-35.903	
176.00	-44.274	-31.672	
177.00	-44.042	-26.273	
178.00	-43.907	-19.471	
179.00	-43.680	-15.107	
180.00	-43.604	-8.521	
181.00	-43.358	-2.084	
182.00	-43.206	3.448	
183.00	-42.991	2.024	
184.00	-42.931	9.547	
185.00	-42.971	8.781	
186.00	-43.145	14.109	
187.00	-43.072	16.838	
188.00	-43.178	16.351	
189.00	-43.395	23.205	
190.00	-43.576	21.285	
191.00	-43.696	23.654	
192.00	-44.046	15.386	
193.00	-44.098	18.321	
194.00	-44.561	18.778	
195.00	-44.853	18.461	
196.00	-45.264	15.285	
197.00	-45.801	15.833	
198.00	-46.117	12.785	
199.00	-46.483	17.466	
200.00	-46.607	6.741	
201.00	-47.301	8.535	
202.00	-47.702	4.966	
203.00	-48.210	-0.735	
204.00	-48.633	5.667	
205.00	-49.031	-3.650	
206.00	-49.245	-3.404	
207.00	-49.897	-2.212	
208.00	-50.134	-8.050	
209.00	-50.467	-8.238	
210.00	-50.694	-18.627	
211.00	-50.727	-22.224	
212.00	-50.774	-26.696	
213.00	-51.149	-36.544	
214.00	-51.067	-45.525	
215.00	-50.864	-53.966	
216.00	-51.101	-60.128	
217.00	-50.732	-71.295	
218.00	-50.658	-84.320	
219.00	-50.367	-96.757	
220.00	-50.041	-103.082	
221.00	-49.578	-114.214	
222.00	-49.530	-125.151	
223.00	-49.009	-138.351	
224.00	-48.834	-147.770	
225.00	-48.319	-158.737	
226.00	-47.990	-174.111	
227.00	-47.779	179.023	
228.00	-47.573	166.495	
229.00	-47.342	152.149	
230.00	-47.367	145.431	
231.00	-47.235	130.527	
232.00	-47.327	122.659	
233.00	-47.413	106.855	
234.00	-47.507	96.130	
235.00	-47.725	79.463	
236.00	-48.015	67.555	
237.00	-48.223	50.298	
238.00	-48.566	40.508	
239.00	-48.995	18.216	
240.00	-49.249	9.191	
241.00	-49.479	-9.692	
242.00	-49.717	-22.388	
243.00	-50.564	-37.547	
244.00	-51.036	-53.056	
245.00	-51.592	-67.124	
246.00	-52.439	-87.989	
247.00	-52.277	-106.282	
248.00	-52.638	-124.895	
249.00	-52.948	-142.926	
250.00	-52.892	-161.956	
251.00	-52.656	-178.736	
252.00	-52.635	165.304	
253.00	-52.525	152.580	
254.00	-52.603	134.887	
255.00	-52.932	120.645	
256.00	-53.328	110.253	
257.00	-53.681	94.989	
258.00	-54.161	86.780	
259.00	-54.820	72.219	
260.00	-56.004	61.165	
261.00	-56.615	48.379	
262.00	-57.958	38.280	
263.00	-59.909	18.815	
264.00	-62.202	4.431	
265.00	-62.742	-25.380	
266.00	-64.492	-46.647	
267.00	-63.265	-68.443	
268.00	-63.320	-81.672	
269.00	-61.490	-99.991	
270.00	-61.253	-110.786	
271.00	-61.171	-116.291	
272.00	-60.555	-122.715	
273.00	-61.882	-129.170	
274.00	-63.216	-139.149	
275.00	-65.181	-148.960	
276.00	-67.731	-154.264	
277.00	-72.250	172.404	
278.00	-72.543	106.985	
279.00	-70.074	64.414	
280.00	-66.913	59.982	
281.00	-64.855	37.129	
282.00	-63.463	22.483	
283.00	-61.950	23.334	
284.00	-61.543	8.161	
285.00	-62.000	-26.459	
286.00	-59.196	-67.877	
287.00	-58.998	-64.352	
288.00	-58.533	-85.302	
289.00	-58.435	-84.999	
290.00	-59.149	-93.274	
291.00	-59.312	-98.276	
292.00	-61.243	-116.021	
293.00	-60.991	-113.564	
294.00	-66.733	-143.588	
295.00	-67.868	-142.019	
296.00	-70.783	143.364	
297.00	-67.782	93.843	
298.00	-61.857	79.060	
299.00	-60.631	76.470	
300.00	-56.406	69.154	
301.00	-55.151	61.655	
302.00	-54.122	59.454	
303.00	-53.557	53.782	
304.00	-53.525	47.680	
305.00	-53.629	40.482	
306.00	-53.888	35.714	
307.00	-54.136	29.384	
308.00	-55.539	12.804	
309.00	-57.155	1.743	
310.00	-59.075	-27.826	
311.00	-60.453	-55.769	
312.00	-59.509	-88.425	
313.00	-57.844	-113.636	
314.00	-56.177	-130.835	
315.00	-55.131	-141.058	
316.00	-54.007	-151.262	
317.00	-53.601	-159.755	
318.00	-53.579	-171.806	
319.00	-53.616	-179.299	
320.00	-54.451	172.740	
321.00	-55.279	158.591	
322.00	-56.116	147.097	
323.00	-59.049	114.762	
324.00	-59.253	111.703	
325.00	-60.313	77.129	
326.00	-59.667	64.608	
327.00	-58.632	26.107	
328.00	-58.609	15.349	
329.00	-57.554	-4.520	
330.00	-57.540	-20.096	
331.00	-56.719	-31.349	
332.00	-56.656	-50.867	
333.00	-55.945	-58.288	
334.00	-56.087	-70.361	
335.00	-55.728	-87.447	
336.00	-55.575	-90.427	
337.00	-55.554	-108.782	
338.00	-55.481	-120.570	
339.00	-55.656	-128.708	
340.00	-55.202	-147.162	
341.00	-55.419	-154.392	
342.00	-55.897	-170.049	
343.00	-55.262	-174.458	
344.00	-55.558	174.569	
345.00	-55.348	164.769	
346.00	-55.497	154.315	
347.00	-55.305	152.544	
348.00	-55.360	142.621	
349.00	-55.678	144.904	
350.00	-56.055	132.701	
351.00	-55.997	135.544	
352.00	-57.245	127.598	
353.00	-57.613	128.564	
354.00	-61.267	125.153	
355.00	-61.467	122.967	
356.00	-64.431	139.582	
357.00	-68.763	133.614	
358.00	-83.425	-170.702	
359.00	-91.621	-101.871	
Frequency	2350.00	MHz	
Channel	test		
Scan Axis name	Azimuth  [deg]		
Scan Axis	Amplitude	Phase	
			
0.00	-63.734	73.431	
1.00	-63.550	68.637	
2.00	-63.898	66.168	
3.00	-64.241	67.041	
4.00	-64.937	66.805	
5.00	-65.471	74.164	
6.00	-65.067	80.818	
7.00	-64.385	75.895	
8.00	-65.718	92.755	
9.00	-64.717	87.683	
10.00	-64.628	99.864	
11.00	-67.193	113.184	
12.00	-66.205	111.156	
13.00	-65.080	120.188	
14.00	-65.562	121.444	
15.00	-63.604	127.899	
16.00	-66.630	141.800	
17.00	-67.578	153.808	
18.00	-63.767	168.558	
19.00	-67.312	-175.534	
20.00	-66.830	-177.311	
21.00	-67.683	-153.404	
22.00	-68.927	-144.300	
23.00	-66.546	-137.289	
24.00	-66.903	-118.826	
25.00	-67.949	-109.549	
26.00	-67.072	-108.497	
27.00	-65.928	-115.540	
28.00	-65.433	-89.186	
29.00	-66.319	-66.580	
30.00	-73.357	-20.519	
31.00	-66.406	5.618	
32.00	-68.555	-0.745	
33.00	-63.476	21.642	
34.00	-62.964	14.861	
35.00	-64.053	30.420	
36.00	-61.708	35.473	
37.00	-61.042	49.229	
38.00	-60.023	67.767	
39.00	-63.778	72.003	
40.00	-60.563	88.426	
41.00	-61.009	93.297	
42.00	-60.030	109.024	
43.00	-59.783	113.126	
44.00	-61.635	145.560	
45.00	-62.980	150.544	
46.00	-58.355	-162.956	
47.00	-58.408	-174.521	
48.00	-60.927	-145.139	
49.00	-61.547	-135.717	
50.00	-62.245	-130.524	
51.00	-61.851	-71.272	
52.00	-60.016	-82.161	
53.00	-57.029	-65.466	
54.00	-56.860	-36.811	
55.00	-57.040	7.042	
56.00	-59.836	14.550	
57.00	-61.627	-10.780	
58.00	-58.589	29.945	
59.00	-59.996	63.887	
60.00	-59.303	93.573	
61.00	-60.394	121.983	
62.00	-57.854	116.971	
63.00	-60.912	148.882	
64.00	-58.976	140.266	
65.00	-55.255	143.087	
66.00	-57.409	168.333	
67.00	-59.310	-114.389	
68.00	-68.150	-166.554	
69.00	-64.188	-70.147	
70.00	-72.835	140.153	
71.00	-74.091	-112.136	
72.00	-62.045	-88.712	
73.00	-61.757	14.537	
74.00	-57.073	5.313	
75.00	-64.738	26.734	
76.00	-57.310	64.849	
77.00	-66.760	127.580	
78.00	-62.326	83.550	
79.00	-61.085	159.526	
80.00	-60.781	169.658	
81.00	-58.462	158.278	
82.00	-57.715	-152.122	
83.00	-62.456	-153.048	
84.00	-59.748	-151.699	
85.00	-84.607	-68.818	
86.00	-59.378	-71.852	
87.00	-59.391	-57.260	
88.00	-65.753	-121.794	
89.00	-64.084	-38.003	
90.00	-60.524	5.956	
91.00	-75.469	67.246	
92.00	-70.835	-13.008	
93.00	-66.195	95.454	
94.00	-60.310	28.020	
95.00	-59.928	103.879	
96.00	-58.914	103.075	
97.00	-55.169	160.999	
98.00	-58.191	165.693	
99.00	-63.323	-146.465	
100.00	-55.865	-163.240	
101.00	-62.453	-123.730	
102.00	-63.688	-131.372	
103.00	-56.306	-84.164	
104.00	-57.284	-77.573	
105.00	-55.617	-23.513	
106.00	-54.661	-10.622	
107.00	-57.849	-2.235	
108.00	-58.874	24.770	
109.00	-55.477	22.453	
110.00	-55.055	46.815	
111.00	-58.427	64.174	
112.00	-53.459	99.340	
113.00	-55.138	117.164	
114.00	-56.566	110.524	
115.00	-56.229	142.540	
116.00	-55.378	177.865	
117.00	-57.613	-174.137	
118.00	-56.681	-175.666	
119.00	-58.674	-157.764	
120.00	-56.393	-138.830	
121.00	-56.823	-120.028	
122.00	-60.177	-107.756	
123.00	-60.204	-81.083	
124.00	-63.241	-44.891	
125.00	-60.970	-53.747	
126.00	-64.184	-16.520	
127.00	-74.339	33.092	
128.00	-69.584	127.807	
129.00	-67.910	146.734	
130.00	-61.129	-174.082	
131.00	-58.046	-166.773	
132.00	-58.894	-158.455	
133.00	-55.192	-132.400	
134.00	-55.868	-119.758	
135.00	-54.779	-103.535	
136.00	-54.017	-85.739	
137.00	-53.672	-65.576	
138.00	-53.029	-45.394	
139.00	-53.231	-36.320	
140.00	-52.660	-17.461	
141.00	-53.347	-22.694	
142.00	-52.785	1.128	
143.00	-52.293	13.154	
144.00	-52.335	44.430	
145.00	-52.537	63.202	
146.00	-51.963	75.347	
147.00	-51.475	88.828	
148.00	-51.108	115.501	
149.00	-50.088	134.235	
150.00	-49.727	151.598	
151.00	-49.089	160.917	
152.00	-48.417	177.825	
153.00	-47.833	-173.476	
154.00	-47.313	-159.354	
155.00	-47.141	-145.219	
156.00	-46.732	-128.777	
157.00	-46.350	-117.349	
158.00	-46.316	-106.032	
159.00	-46.067	-95.165	
160.00	-45.671	-80.254	
161.00	-45.374	-71.267	
162.00	-44.932	-55.023	
163.00	-44.657	-45.976	
164.00	-44.310	-35.554	
165.00	-44.076	-24.111	
166.00	-43.783	-17.591	
167.00	-43.631	-4.328	
168.00	-43.407	5.428	
169.00	-43.205	13.675	
170.00	-43.153	22.359	
171.00	-42.944	28.968	
172.00	-42.821	38.431	
173.00	-42.620	48.248	
174.00	-42.518	50.772	
175.00	-42.241	55.959	
176.00	-42.191	59.942	
177.00	-41.948	63.066	
178.00	-41.813	70.416	
179.00	-41.556	73.027	
180.00	-41.433	78.592	
181.00	-41.229	83.806	
182.00	-41.169	88.496	
183.00	-40.990	86.176	
184.00	-40.894	92.311	
185.00	-40.886	92.276	
186.00	-40.860	96.187	
187.00	-40.893	98.218	
188.00	-40.896	98.534	
189.00	-41.003	104.335	
190.00	-41.080	103.124	
191.00	-41.185	104.219	
192.00	-41.303	97.077	
193.00	-41.481	99.991	
194.00	-41.758	100.091	
195.00	-41.890	100.613	
196.00	-42.067	97.840	
197.00	-42.278	98.534	
198.00	-42.608	94.328	
199.00	-42.721	100.269	
200.00	-43.020	89.087	
201.00	-43.150	91.614	
202.00	-43.353	87.483	
203.00	-43.525	81.092	
204.00	-43.697	85.835	
205.00	-43.779	77.439	
206.00	-43.925	75.370	
207.00	-43.951	74.616	
208.00	-44.042	68.888	
209.00	-44.095	67.683	
210.00	-44.106	56.230	
211.00	-44.245	52.917	
212.00	-44.199	45.230	
213.00	-44.307	38.767	
214.00	-44.423	30.936	
215.00	-44.534	20.502	
216.00	-44.573	14.584	
217.00	-44.664	5.238	
218.00	-44.702	-6.025	
219.00	-44.691	-17.596	
220.00	-44.749	-25.972	
221.00	-44.901	-36.626	
222.00	-44.983	-47.704	
223.00	-45.025	-60.389	
224.00	-45.125	-70.606	
225.00	-45.290	-80.283	
226.00	-45.309	-95.506	
227.00	-45.610	-106.150	
228.00	-45.709	-120.947	
229.00	-45.838	-136.875	
230.00	-46.059	-144.523	
231.00	-46.186	-162.395	
232.00	-46.490	-172.175	
233.00	-46.688	170.764	
234.00	-47.037	158.669	
235.00	-47.320	142.180	
236.00	-47.699	129.031	
237.00	-48.366	110.769	
238.00	-48.779	97.452	
239.00	-49.331	76.784	
240.00	-49.895	65.187	
241.00	-50.334	46.027	
242.00	-51.108	31.952	
243.00	-51.883	15.189	
244.00	-52.748	-1.177	
245.00	-53.908	-16.969	
246.00	-54.863	-39.135	
247.00	-56.131	-60.528	
248.00	-57.378	-86.088	
249.00	-57.810	-111.372	
250.00	-58.000	-139.595	
251.00	-57.474	-162.859	
252.00	-57.121	172.575	
253.00	-56.775	152.923	
254.00	-56.526	130.161	
255.00	-56.843	113.071	
256.00	-56.684	95.136	
257.00	-56.953	76.604	
258.00	-57.483	60.187	
259.00	-58.062	38.275	
260.00	-58.568	15.710	
261.00	-59.126	-9.647	
262.00	-59.527	-30.177	
263.00	-59.528	-49.811	
264.00	-60.462	-68.568	
265.00	-61.091	-91.510	
266.00	-62.186	-115.648	
267.00	-62.737	-142.880	
268.00	-62.663	-163.620	
269.00	-62.410	169.122	
270.00	-62.028	151.038	
271.00	-61.965	138.798	
272.00	-62.485	123.680	
273.00	-63.057	108.807	
274.00	-64.311	96.527	
275.00	-67.647	73.734	
276.00	-69.365	49.640	
277.00	-71.552	17.793	
278.00	-70.235	-26.706	
279.00	-68.341	-54.400	
280.00	-65.117	-83.201	
281.00	-63.494	-92.258	
282.00	-62.400	-109.752	
283.00	-62.487	-115.278	
284.00	-61.647	-132.056	
285.00	-62.026	-156.049	
286.00	-64.036	153.778	
287.00	-63.691	152.457	
288.00	-64.087	111.813	
289.00	-64.027	112.468	
290.00	-62.904	77.062	
291.00	-62.868	69.720	
292.00	-62.893	39.239	
293.00	-62.326	34.481	
294.00	-62.815	7.496	
295.00	-62.591	-2.831	
296.00	-64.151	-40.026	
297.00	-62.186	-60.218	
298.00	-60.655	-87.200	
299.00	-59.217	-94.705	
300.00	-59.167	-123.149	
301.00	-58.941	-131.618	
302.00	-59.015	-147.604	
303.00	-59.802	-160.835	
304.00	-59.774	178.526	
305.00	-60.322	157.202	
306.00	-60.797	134.235	
307.00	-61.000	116.841	
308.00	-60.302	83.270	
309.00	-59.176	62.914	
310.00	-57.545	39.368	
311.00	-56.787	23.519	
312.00	-56.233	9.450	
313.00	-55.931	-5.850	
314.00	-55.723	-19.488	
315.00	-55.571	-31.621	
316.00	-56.650	-44.588	
317.00	-57.607	-64.088	
318.00	-57.754	-82.277	
319.00	-59.444	-98.196	
320.00	-59.703	-112.864	
321.00	-59.829	-144.342	
322.00	-60.219	-157.856	
323.00	-59.085	169.710	
324.00	-58.836	161.884	
325.00	-58.089	140.941	
326.00	-59.336	134.530	
327.00	-59.015	109.315	
328.00	-59.716	100.067	
329.00	-60.155	76.150	
330.00	-60.834	67.389	
331.00	-61.068	46.560	
332.00	-60.772	22.286	
333.00	-61.337	7.892	
334.00	-60.959	2.694	
335.00	-61.972	-20.773	
336.00	-61.123	-31.198	
337.00	-61.387	-58.829	
338.00	-61.144	-75.639	
339.00	-61.209	-82.782	
340.00	-59.177	-117.757	
341.00	-58.966	-124.279	
342.00	-57.665	-137.940	
343.00	-57.996	-145.211	
344.00	-56.974	-151.627	
345.00	-57.262	-161.073	
346.00	-56.568	-168.687	
347.00	-56.714	-174.498	
348.00	-57.502	178.612	
349.00	-58.106	179.379	
350.00	-58.964	163.315	
351.00	-59.623	155.768	
352.00	-60.580	148.840	
353.00	-60.972	135.570	
354.00	-61.782	130.526	
355.00	-61.951	120.231	
356.00	-62.525	111.310	
357.00	-63.639	106.965	
358.00	-64.296	95.882	
359.00	-64.052	96.502	
Frequency	2400.00	MHz	
Channel	test		
Scan Axis name	Azimuth  [deg]		
Scan Axis	Amplitude	Phase	
			
0.00	-68.813	110.212	
1.00	-69.859	125.297	
2.00	-76.872	83.776	
3.00	-77.126	81.518	
4.00	-80.040	2.321	
5.00	-72.316	-29.841	
6.00	-69.235	-13.139	
7.00	-67.692	-23.168	
8.00	-63.950	-26.060	
9.00	-63.925	-27.779	
10.00	-62.066	-21.364	
11.00	-62.605	-17.410	
12.00	-61.775	-13.450	
13.00	-61.108	-12.269	
14.00	-61.674	-17.176	
15.00	-61.135	-4.617	
16.00	-61.852	-7.537	
17.00	-64.210	-9.579	
18.00	-62.895	3.496	
19.00	-63.588	-6.492	
20.00	-64.507	6.694	
21.00	-65.151	1.307	
22.00	-64.148	20.197	
23.00	-64.080	11.784	
24.00	-64.944	32.465	
25.00	-64.651	19.394	
26.00	-67.896	17.304	
27.00	-64.134	30.114	
28.00	-64.495	29.101	
29.00	-64.627	34.706	
30.00	-62.625	37.212	
31.00	-64.672	41.872	
32.00	-63.727	46.897	
33.00	-67.993	47.766	
34.00	-65.715	57.566	
35.00	-65.635	92.739	
36.00	-69.130	85.795	
37.00	-70.655	89.389	
38.00	-66.675	128.898	
39.00	-68.739	94.792	
40.00	-67.996	87.513	
41.00	-69.856	82.179	
42.00	-74.893	61.295	
43.00	-73.888	95.954	
44.00	-68.896	-49.539	
45.00	-72.086	-21.483	
46.00	-66.600	1.661	
47.00	-66.795	-15.647	
48.00	-66.088	2.372	
49.00	-62.323	-1.366	
50.00	-59.012	14.492	
51.00	-59.435	15.128	
52.00	-56.486	26.979	
53.00	-62.846	38.471	
54.00	-65.406	20.672	
55.00	-61.792	67.796	
56.00	-57.512	94.883	
57.00	-68.681	53.954	
58.00	-69.457	117.693	
59.00	-62.667	143.267	
60.00	-62.079	175.322	
61.00	-75.293	-166.594	
62.00	-62.562	155.844	
63.00	-60.971	-144.668	
64.00	-67.168	-113.997	
65.00	-67.369	-113.206	
66.00	-65.382	-120.482	
67.00	-65.127	-134.656	
68.00	-64.697	28.016	
69.00	-67.429	-44.597	
70.00	-60.837	24.934	
71.00	-66.571	7.135	
72.00	-62.228	56.500	
73.00	-66.093	141.077	
74.00	-63.626	118.750	
75.00	-61.066	135.366	
76.00	-61.230	131.766	
77.00	-62.381	129.922	
78.00	-60.838	-179.564	
79.00	-67.395	-167.720	
80.00	-59.507	-128.913	
81.00	-66.664	-119.232	
82.00	-62.868	-153.771	
83.00	-63.746	-62.182	
84.00	-67.690	-35.501	
85.00	-74.984	-19.566	
86.00	-65.633	17.021	
87.00	-62.978	40.101	
88.00	-63.667	-167.547	
89.00	-60.214	43.700	
90.00	-55.433	71.556	
91.00	-58.166	130.524	
92.00	-60.904	111.687	
93.00	-58.929	152.483	
94.00	-54.213	161.189	
95.00	-62.480	165.229	
96.00	-60.125	173.256	
97.00	-63.726	176.741	
98.00	-61.750	-132.165	
99.00	-61.720	-132.665	
100.00	-62.336	-112.701	
101.00	-60.451	-88.604	
102.00	-57.865	-53.637	
103.00	-61.558	-40.674	
104.00	-59.216	5.754	
105.00	-58.641	17.413	
106.00	-59.753	47.630	
107.00	-61.589	76.575	
108.00	-59.990	55.949	
109.00	-66.685	82.967	
110.00	-57.450	126.518	
111.00	-58.171	151.331	
112.00	-57.351	135.700	
113.00	-59.544	-175.000	
114.00	-56.527	-152.972	
115.00	-62.661	-132.992	
116.00	-58.062	-126.267	
117.00	-59.368	-113.395	
118.00	-56.374	-93.899	
119.00	-57.161	-88.152	
120.00	-55.791	-67.513	
121.00	-57.924	-50.406	
122.00	-56.963	-26.285	
123.00	-58.009	-6.758	
124.00	-55.400	-3.002	
125.00	-57.607	0.119	
126.00	-58.058	20.825	
127.00	-58.112	21.397	
128.00	-59.134	41.720	
129.00	-60.346	41.366	
130.00	-61.221	42.973	
131.00	-62.359	71.450	
132.00	-64.855	49.013	
133.00	-63.399	64.665	
134.00	-64.702	57.948	
135.00	-64.693	95.870	
136.00	-70.380	113.399	
137.00	-67.155	116.603	
138.00	-65.137	156.404	
139.00	-66.816	130.104	
140.00	-64.299	157.261	
141.00	-60.780	155.388	
142.00	-58.100	174.553	
143.00	-57.248	179.099	
144.00	-55.399	-163.946	
145.00	-54.468	-146.246	
146.00	-53.639	-144.609	
147.00	-53.026	-139.549	
148.00	-52.811	-123.434	
149.00	-52.437	-111.634	
150.00	-52.236	-92.261	
151.00	-51.709	-85.705	
152.00	-51.694	-73.226	
153.00	-51.179	-63.091	
154.00	-50.699	-47.929	
155.00	-50.435	-33.044	
156.00	-50.017	-19.006	
157.00	-49.562	-5.574	
158.00	-48.983	5.287	
159.00	-48.385	15.155	
160.00	-48.142	30.868	
161.00	-47.565	38.648	
162.00	-47.121	53.944	
163.00	-46.706	62.117	
164.00	-46.235	71.856	
165.00	-45.997	81.944	
166.00	-45.643	87.807	
167.00	-45.453	100.776	
168.00	-45.312	110.214	
169.00	-45.077	117.890	
170.00	-44.842	127.009	
171.00	-44.579	133.306	
172.00	-44.327	141.887	
173.00	-44.064	150.814	
174.00	-43.822	152.287	
175.00	-43.543	157.086	
176.00	-43.452	160.533	
177.00	-43.295	162.912	
178.00	-43.134	169.030	
179.00	-43.013	172.254	
180.00	-42.779	177.693	
181.00	-42.777	-176.974	
182.00	-42.659	-172.996	
183.00	-42.637	-174.491	
184.00	-42.706	-168.891	
185.00	-42.727	-168.937	
186.00	-42.745	-164.815	
187.00	-42.816	-161.949	
188.00	-42.948	-162.311	
189.00	-43.093	-156.000	
190.00	-43.298	-157.248	
191.00	-43.487	-156.247	
192.00	-43.688	-162.634	
193.00	-43.848	-160.707	
194.00	-44.091	-159.922	
195.00	-44.286	-159.919	
196.00	-44.483	-163.395	
197.00	-44.863	-162.468	
198.00	-45.122	-167.757	
199.00	-45.368	-163.697	
200.00	-45.748	-176.142	
201.00	-45.913	-174.790	
202.00	-46.190	-179.939	
203.00	-46.384	172.299	
204.00	-46.688	176.431	
205.00	-46.569	167.296	
206.00	-46.825	162.804	
207.00	-46.787	160.916	
208.00	-47.103	153.973	
209.00	-46.995	151.997	
210.00	-47.088	139.465	
211.00	-47.156	135.233	
212.00	-47.132	126.600	
213.00	-47.239	119.731	
214.00	-47.193	109.888	
215.00	-47.229	99.320	
216.00	-47.407	92.728	
217.00	-47.377	84.826	
218.00	-47.399	73.267	
219.00	-47.725	61.518	
220.00	-47.705	53.564	
221.00	-48.014	42.545	
222.00	-48.185	31.511	
223.00	-48.547	18.104	
224.00	-48.603	4.193	
225.00	-49.040	-6.761	
226.00	-49.143	-24.282	
227.00	-49.242	-36.864	
228.00	-49.336	-52.618	
229.00	-49.123	-71.074	
230.00	-49.249	-80.756	
231.00	-49.068	-99.668	
232.00	-49.112	-110.758	
233.00	-49.119	-127.627	
234.00	-49.177	-140.636	
235.00	-49.311	-156.529	
236.00	-49.688	-171.825	
237.00	-49.931	172.647	
238.00	-50.538	158.712	
239.00	-50.933	139.059	
240.00	-51.443	126.013	
241.00	-51.905	106.872	
242.00	-52.640	90.436	
243.00	-53.300	72.858	
244.00	-53.862	53.578	
245.00	-54.599	36.617	
246.00	-55.232	16.533	
247.00	-55.551	-4.387	
248.00	-55.802	-25.589	
249.00	-56.353	-45.278	
250.00	-56.713	-70.630	
251.00	-57.029	-88.831	
252.00	-57.173	-111.983	
253.00	-57.173	-131.789	
254.00	-56.924	-155.517	
255.00	-56.894	-170.832	
256.00	-56.583	174.947	
257.00	-57.885	158.296	
258.00	-57.966	144.040	
259.00	-59.040	126.446	
260.00	-60.109	109.391	
261.00	-62.531	91.399	
262.00	-64.125	65.681	
263.00	-69.074	38.693	
264.00	-68.390	3.245	
265.00	-69.482	-34.880	
266.00	-68.582	-61.634	
267.00	-67.034	-92.680	
268.00	-67.509	-108.043	
269.00	-66.964	-124.927	
270.00	-66.185	-150.098	
271.00	-67.033	-157.160	
272.00	-65.776	176.402	
273.00	-67.053	156.703	
274.00	-66.923	144.080	
275.00	-68.033	131.710	
276.00	-67.052	116.746	
277.00	-68.156	95.015	
278.00	-69.678	81.924	
279.00	-72.194	58.862	
280.00	-72.085	12.640	
281.00	-72.068	-8.610	
282.00	-69.985	-39.371	
283.00	-68.080	-50.929	
284.00	-66.249	-76.471	
285.00	-64.431	-105.286	
286.00	-62.106	-137.970	
287.00	-62.230	-133.092	
288.00	-62.461	-169.071	
289.00	-62.355	-160.331	
290.00	-62.986	162.330	
291.00	-63.638	165.201	
292.00	-62.869	128.549	
293.00	-63.694	122.329	
294.00	-63.828	95.367	
295.00	-63.674	82.098	
296.00	-63.873	60.717	
297.00	-64.379	35.012	
298.00	-66.977	2.300	
299.00	-67.363	-9.865	
300.00	-67.503	-66.075	
301.00	-66.181	-90.021	
302.00	-63.577	-111.979	
303.00	-60.522	-126.636	
304.00	-60.092	-143.814	
305.00	-58.530	-154.747	
306.00	-57.876	-167.122	
307.00	-57.973	-173.292	
308.00	-57.946	171.312	
309.00	-58.532	160.173	
310.00	-59.875	144.339	
311.00	-61.816	121.689	
312.00	-62.424	95.933	
313.00	-64.200	59.960	
314.00	-63.484	31.997	
315.00	-62.405	10.464	
316.00	-60.308	-14.853	
317.00	-59.724	-25.596	
318.00	-58.358	-37.484	
319.00	-57.918	-44.525	
320.00	-59.061	-48.963	
321.00	-60.625	-57.947	
322.00	-62.157	-68.550	
323.00	-65.093	-75.972	
324.00	-68.477	-91.545	
325.00	-82.818	159.568	
326.00	-69.866	155.296	
327.00	-64.255	102.255	
328.00	-62.415	107.683	
329.00	-60.315	85.089	
330.00	-59.736	83.999	
331.00	-58.827	71.472	
332.00	-58.395	58.602	
333.00	-57.726	56.440	
334.00	-57.959	49.430	
335.00	-58.057	38.969	
336.00	-58.392	35.593	
337.00	-58.949	22.405	
338.00	-59.712	10.277	
339.00	-60.730	8.054	
340.00	-60.840	-4.074	
341.00	-62.468	-9.766	
342.00	-64.200	-17.850	
343.00	-65.613	-20.721	
344.00	-70.226	-18.357	
345.00	-72.902	-34.562	
346.00	-78.730	-81.530	
347.00	-74.391	-156.559	
348.00	-72.453	-172.567	
349.00	-70.511	169.105	
350.00	-67.782	153.035	
351.00	-66.304	143.340	
352.00	-66.135	143.990	
353.00	-64.658	136.720	
354.00	-66.909	131.896	
355.00	-66.569	131.659	
356.00	-68.233	124.911	
357.00	-67.508	126.491	
358.00	-73.935	118.626	
359.00	-70.595	110.688	
Frequency	2450.00	MHz	
Channel	test		
Scan Axis name	Azimuth  [deg]		
Scan Axis	Amplitude	Phase	
			
0.00	-70.193	119.719	
1.00	-70.788	128.247	
2.00	-73.954	162.297	
3.00	-78.738	172.064	
4.00	-73.140	-158.443	
5.00	-72.571	-138.822	
6.00	-69.459	-117.918	
7.00	-67.692	-125.308	
8.00	-65.254	-125.211	
9.00	-64.771	-121.452	
10.00	-63.210	-124.868	
11.00	-62.834	-128.571	
12.00	-61.607	-125.009	
13.00	-61.260	-127.634	
14.00	-59.842	-122.320	
15.00	-60.313	-129.579	
16.00	-59.378	-128.533	
17.00	-58.740	-131.505	
18.00	-58.545	-136.256	
19.00	-58.248	-128.951	
20.00	-57.366	-129.258	
21.00	-58.565	-125.661	
22.00	-57.739	-126.658	
23.00	-58.379	-117.052	
24.00	-57.838	-117.699	
25.00	-58.808	-113.365	
26.00	-60.011	-130.270	
27.00	-60.117	-116.050	
28.00	-61.037	-111.150	
29.00	-62.445	-102.819	
30.00	-66.455	-79.391	
31.00	-65.380	-88.338	
32.00	-64.725	-71.658	
33.00	-63.166	-65.318	
34.00	-72.658	11.647	
35.00	-73.664	6.610	
36.00	-66.806	59.356	
37.00	-76.969	132.286	
38.00	-73.005	105.062	
39.00	-71.195	-39.990	
40.00	-75.000	131.851	
41.00	-70.230	68.778	
42.00	-65.033	-113.222	
43.00	-66.532	-172.225	
44.00	-67.321	-92.825	
45.00	-67.289	-147.807	
46.00	-70.841	-115.948	
47.00	-65.498	-99.172	
48.00	-71.446	-146.841	
49.00	-66.619	-82.246	
50.00	-87.661	142.479	
51.00	-64.934	13.572	
52.00	-67.204	19.147	
53.00	-69.542	176.109	
54.00	-66.809	102.227	
55.00	-67.075	174.268	
56.00	-70.409	62.638	
57.00	-67.278	165.771	
58.00	-60.449	-165.077	
59.00	-58.261	-164.832	
60.00	-59.035	-146.030	
61.00	-67.422	-161.395	
62.00	-56.026	-107.057	
63.00	-61.388	-121.895	
64.00	-59.931	-101.311	
65.00	-58.097	-84.560	
66.00	-59.257	-46.077	
67.00	-60.140	-59.045	
68.00	-57.805	-48.399	
69.00	-59.976	-17.826	
70.00	-61.764	10.996	
71.00	-65.317	1.027	
72.00	-66.575	61.714	
73.00	-63.718	106.392	
74.00	-63.659	131.103	
75.00	-57.659	165.709	
76.00	-63.205	133.842	
77.00	-64.133	168.084	
78.00	-56.345	178.812	
79.00	-60.077	-173.713	
80.00	-60.230	-123.931	
81.00	-65.342	-129.733	
82.00	-59.244	-121.340	
83.00	-60.454	-124.403	
84.00	-66.623	-61.783	
85.00	-74.289	-148.997	
86.00	-68.815	-92.564	
87.00	-69.241	-111.191	
88.00	-72.404	-106.759	
89.00	-80.329	97.716	
90.00	-70.192	101.741	
91.00	-64.092	-63.254	
92.00	-65.889	-5.039	
93.00	-71.481	130.154	
94.00	-81.518	-55.835	
95.00	-63.935	-5.645	
96.00	-60.869	26.032	
97.00	-63.284	42.991	
98.00	-58.210	-15.929	
99.00	-66.417	47.599	
100.00	-60.090	38.665	
101.00	-65.218	75.264	
102.00	-62.008	86.469	
103.00	-63.227	107.466	
104.00	-60.544	128.960	
105.00	-58.114	151.786	
106.00	-58.150	157.816	
107.00	-57.005	135.074	
108.00	-56.924	-171.286	
109.00	-60.656	-167.070	
110.00	-58.627	-151.282	
111.00	-56.318	-143.587	
112.00	-57.051	-107.529	
113.00	-55.980	-119.878	
114.00	-55.894	-88.301	
115.00	-55.882	-59.603	
116.00	-55.477	-63.430	
117.00	-57.331	-31.631	
118.00	-56.076	-30.566	
119.00	-55.553	-11.418	
120.00	-58.543	16.005	
121.00	-57.112	21.821	
122.00	-56.407	47.326	
123.00	-57.437	57.071	
124.00	-57.519	75.939	
125.00	-58.074	108.298	
126.00	-55.321	122.412	
127.00	-61.183	138.142	
128.00	-60.507	155.140	
129.00	-57.260	171.070	
130.00	-56.969	-175.800	
131.00	-61.273	-151.608	
132.00	-68.775	-100.679	
133.00	-63.031	-149.527	
134.00	-63.615	-120.395	
135.00	-62.272	-116.767	
136.00	-66.876	-114.228	
137.00	-72.673	-112.368	
138.00	-82.787	-102.192	
139.00	-64.815	-123.651	
140.00	-64.566	-84.492	
141.00	-61.302	-142.393	
142.00	-60.016	-126.944	
143.00	-58.585	-127.396	
144.00	-57.529	-98.989	
145.00	-56.204	-85.730	
146.00	-55.153	-86.127	
147.00	-54.418	-73.629	
148.00	-53.963	-55.277	
149.00	-53.173	-41.258	
150.00	-52.733	-23.714	
151.00	-52.076	-17.835	
152.00	-51.765	-2.197	
153.00	-51.656	5.450	
154.00	-50.785	19.497	
155.00	-50.944	37.150	
156.00	-50.608	50.167	
157.00	-50.203	63.538	
158.00	-49.949	76.254	
159.00	-49.627	86.331	
160.00	-49.252	103.909	
161.00	-49.227	111.969	
162.00	-48.771	130.568	
163.00	-48.347	141.509	
164.00	-47.981	153.022	
165.00	-47.691	166.034	
166.00	-47.328	175.093	
167.00	-46.985	-171.253	
168.00	-46.510	-161.472	
169.00	-46.147	-152.591	
170.00	-45.779	-143.562	
171.00	-45.496	-136.979	
172.00	-45.295	-128.385	
173.00	-44.937	-118.632	
174.00	-44.755	-116.791	
175.00	-44.550	-112.944	
176.00	-44.323	-109.430	
177.00	-44.253	-107.328	
178.00	-44.123	-100.283	
179.00	-44.097	-98.044	
180.00	-43.983	-93.905	
181.00	-43.993	-89.632	
182.00	-43.972	-84.939	
183.00	-44.026	-87.989	
184.00	-43.961	-81.786	
185.00	-44.159	-83.313	
186.00	-44.224	-80.276	
187.00	-44.347	-78.020	
188.00	-44.479	-79.305	
189.00	-44.741	-73.892	
190.00	-44.959	-76.644	
191.00	-45.337	-76.065	
192.00	-45.548	-83.586	
193.00	-45.795	-81.768	
194.00	-46.214	-82.770	
195.00	-46.524	-81.381	
196.00	-46.820	-85.259	
197.00	-47.175	-83.885	
198.00	-47.329	-89.333	
199.00	-47.505	-82.095	
200.00	-47.639	-94.356	
201.00	-47.922	-91.925	
202.00	-48.040	-94.728	
203.00	-48.191	-101.073	
204.00	-47.976	-96.505	
205.00	-48.191	-103.510	
206.00	-48.225	-107.025	
207.00	-48.108	-108.255	
208.00	-48.014	-114.650	
209.00	-48.089	-116.488	
210.00	-48.046	-127.763	
211.00	-47.857	-131.551	
212.00	-47.786	-141.017	
213.00	-47.754	-148.900	
214.00	-47.754	-157.156	
215.00	-47.794	-167.489	
216.00	-47.705	-174.509	
217.00	-47.792	176.356	
218.00	-47.790	165.022	
219.00	-47.945	153.077	
220.00	-47.986	144.697	
221.00	-48.319	132.555	
222.00	-48.500	121.126	
223.00	-48.788	106.736	
224.00	-49.076	94.756	
225.00	-49.257	82.555	
226.00	-49.651	65.640	
227.00	-49.925	54.041	
228.00	-50.382	36.271	
229.00	-50.571	17.443	
230.00	-50.694	8.458	
231.00	-51.231	-14.232	
232.00	-51.622	-26.409	
233.00	-51.763	-48.432	
234.00	-51.617	-63.509	
235.00	-52.156	-83.489	
236.00	-52.290	-100.537	
237.00	-52.359	-119.431	
238.00	-52.470	-134.795	
239.00	-52.966	-156.429	
240.00	-53.651	-171.495	
241.00	-53.966	165.807	
242.00	-54.867	149.662	
243.00	-55.045	132.766	
244.00	-55.354	110.260	
245.00	-56.103	92.434	
246.00	-55.943	71.316	
247.00	-55.916	48.683	
248.00	-56.480	27.064	
249.00	-55.954	7.692	
250.00	-56.145	-13.967	
251.00	-56.365	-29.543	
252.00	-56.657	-50.332	
253.00	-57.255	-64.914	
254.00	-57.518	-88.840	
255.00	-58.737	-106.825	
256.00	-59.289	-127.388	
257.00	-60.317	-144.163	
258.00	-61.393	-160.404	
259.00	-63.817	172.917	
260.00	-64.350	148.898	
261.00	-65.018	121.014	
262.00	-66.335	94.193	
263.00	-66.710	70.375	
264.00	-65.876	51.304	
265.00	-67.706	16.926	
266.00	-67.224	1.911	
267.00	-67.551	-25.379	
268.00	-67.859	-37.408	
269.00	-67.575	-47.026	
270.00	-69.126	-63.872	
271.00	-69.433	-62.898	
272.00	-69.533	-76.500	
273.00	-70.692	-84.248	
274.00	-71.928	-90.303	
275.00	-71.468	-87.278	
276.00	-70.897	-84.829	
277.00	-72.655	-114.391	
278.00	-72.155	-122.022	
279.00	-71.381	-129.317	
280.00	-68.751	-130.497	
281.00	-70.064	-139.706	
282.00	-74.098	-154.196	
283.00	-73.098	-157.495	
284.00	-72.142	-170.508	
285.00	-76.062	97.525	
286.00	-81.030	89.265	
287.00	-81.258	115.880	
288.00	-74.550	-165.781	
289.00	-77.704	-171.235	
290.00	-70.540	164.460	
291.00	-68.569	162.732	
292.00	-64.972	147.594	
293.00	-61.900	146.847	
294.00	-60.748	135.503	
295.00	-59.599	125.095	
296.00	-59.663	115.341	
297.00	-59.850	110.196	
298.00	-61.336	102.029	
299.00	-62.301	87.288	
300.00	-65.134	57.140	
301.00	-64.547	36.843	
302.00	-69.291	-4.239	
303.00	-68.708	-22.570	
304.00	-64.970	-58.186	
305.00	-63.464	-87.047	
306.00	-62.618	-109.314	
307.00	-61.666	-110.081	
308.00	-60.991	-139.210	
309.00	-59.444	-158.817	
310.00	-59.233	178.828	
311.00	-58.845	168.281	
312.00	-59.642	163.450	
313.00	-59.419	142.167	
314.00	-61.840	140.811	
315.00	-64.044	131.484	
316.00	-67.812	126.612	
317.00	-69.265	112.386	
318.00	-81.598	83.237	
319.00	-78.308	-57.010	
320.00	-70.502	-68.100	
321.00	-69.375	-98.345	
322.00	-67.803	-91.354	
323.00	-65.286	-151.638	
324.00	-64.618	-146.407	
325.00	-63.755	-170.288	
326.00	-63.512	-173.199	
327.00	-60.943	156.765	
328.00	-61.096	152.964	
329.00	-60.320	137.318	
330.00	-60.482	136.274	
331.00	-60.462	132.952	
332.00	-61.044	128.485	
333.00	-61.136	122.432	
334.00	-63.472	122.965	
335.00	-67.403	121.895	
336.00	-71.109	131.075	
337.00	-73.426	-160.135	
338.00	-68.948	-151.127	
339.00	-65.230	-130.776	
340.00	-61.927	-129.217	
341.00	-60.397	-130.704	
342.00	-59.152	-139.471	
343.00	-58.565	-136.636	
344.00	-57.784	-142.100	
345.00	-58.551	-144.301	
346.00	-58.286	-151.319	
347.00	-59.188	-154.875	
348.00	-59.792	-164.688	
349.00	-59.899	-169.514	
350.00	-60.680	176.293	
351.00	-62.140	177.071	
352.00	-63.909	166.474	
353.00	-64.042	148.382	
354.00	-63.342	137.266	
355.00	-63.453	131.996	
356.00	-64.239	133.993	
357.00	-66.972	130.155	
358.00	-68.786	116.584	
359.00	-73.440	114.722	
Frequency	2496.00	MHz	
Channel	test		
Scan Axis name	Azimuth  [deg]		
Scan Axis	Amplitude	Phase	
			
0.00	-64.427	132.827	
1.00	-64.045	124.926	
2.00	-64.117	119.877	
3.00	-63.047	121.215	
4.00	-62.812	118.170	
5.00	-61.687	115.289	
6.00	-62.379	112.738	
7.00	-62.099	116.880	
8.00	-61.856	120.047	
9.00	-62.501	122.010	
10.00	-62.728	133.274	
11.00	-63.627	139.189	
12.00	-64.808	152.146	
13.00	-64.907	173.391	
14.00	-65.985	168.113	
15.00	-64.443	-161.716	
16.00	-65.324	-159.804	
17.00	-65.311	-122.533	
18.00	-64.425	-125.615	
19.00	-64.331	-95.691	
20.00	-64.200	-96.937	
21.00	-63.215	-80.366	
22.00	-61.949	-69.775	
23.00	-62.983	-52.600	
24.00	-60.479	-46.171	
25.00	-60.906	-32.200	
26.00	-59.975	-28.195	
27.00	-60.551	-29.337	
28.00	-59.951	-15.719	
29.00	-59.020	-6.150	
30.00	-58.699	7.065	
31.00	-60.487	16.461	
32.00	-60.582	36.277	
33.00	-61.969	38.816	
34.00	-61.305	53.163	
35.00	-63.228	61.651	
36.00	-62.615	84.347	
37.00	-63.834	111.704	
38.00	-64.114	106.608	
39.00	-63.879	133.618	
40.00	-63.651	153.692	
41.00	-66.218	-177.935	
42.00	-63.027	-144.768	
43.00	-62.015	-138.538	
44.00	-61.050	-127.885	
45.00	-63.053	-112.675	
46.00	-61.867	-93.665	
47.00	-62.638	-81.282	
48.00	-63.842	-57.779	
49.00	-62.119	-25.341	
50.00	-64.481	-29.223	
51.00	-63.894	19.812	
52.00	-63.191	0.932	
53.00	-62.966	32.167	
54.00	-64.611	59.650	
55.00	-66.555	52.694	
56.00	-72.395	64.975	
57.00	-74.393	80.456	
58.00	-77.039	140.474	
59.00	-70.910	-173.416	
60.00	-97.679	-4.363	
61.00	-65.961	-44.777	
62.00	-71.725	-50.359	
63.00	-64.350	-25.014	
64.00	-64.498	11.272	
65.00	-62.544	-0.540	
66.00	-61.613	21.236	
67.00	-60.777	38.846	
68.00	-62.595	37.494	
69.00	-61.175	62.463	
70.00	-62.884	85.158	
71.00	-62.907	104.836	
72.00	-65.258	128.626	
73.00	-66.654	-178.971	
74.00	-65.630	169.334	
75.00	-61.682	-132.360	
76.00	-61.569	-119.545	
77.00	-59.598	-103.888	
78.00	-60.113	-86.021	
79.00	-61.220	-66.185	
80.00	-59.890	-58.723	
81.00	-60.531	-29.499	
82.00	-60.366	-3.118	
83.00	-59.671	8.854	
84.00	-60.570	27.529	
85.00	-59.828	60.366	
86.00	-60.708	78.904	
87.00	-60.895	88.088	
88.00	-61.881	105.459	
89.00	-65.773	102.210	
90.00	-63.068	148.568	
91.00	-66.649	154.235	
92.00	-67.651	-169.534	
93.00	-64.501	-160.737	
94.00	-63.855	-129.746	
95.00	-67.655	-100.031	
96.00	-71.366	-104.901	
97.00	-64.069	-69.138	
98.00	-72.941	-64.253	
99.00	-68.365	-13.675	
100.00	-65.945	-1.168	
101.00	-67.575	24.994	
102.00	-73.104	71.807	
103.00	-75.928	123.815	
104.00	-72.826	151.039	
105.00	-66.851	176.530	
106.00	-66.703	-164.008	
107.00	-63.687	-147.421	
108.00	-63.410	-115.735	
109.00	-61.053	-95.162	
110.00	-61.057	-76.539	
111.00	-61.598	-61.145	
112.00	-60.291	-39.179	
113.00	-60.014	-13.570	
114.00	-59.051	4.410	
115.00	-57.896	22.476	
116.00	-57.310	47.027	
117.00	-58.200	57.132	
118.00	-57.038	69.419	
119.00	-56.994	98.121	
120.00	-57.480	111.704	
121.00	-55.834	132.493	
122.00	-56.645	148.922	
123.00	-54.941	170.658	
124.00	-57.236	-172.285	
125.00	-56.244	-155.205	
126.00	-56.285	-142.018	
127.00	-56.479	-126.530	
128.00	-57.102	-100.753	
129.00	-57.440	-77.744	
130.00	-58.908	-71.661	
131.00	-58.309	-30.928	
132.00	-59.138	-22.527	
133.00	-61.482	-6.943	
134.00	-61.903	24.317	
135.00	-65.042	61.038	
136.00	-64.115	113.242	
137.00	-63.365	135.397	
138.00	-62.072	176.230	
139.00	-60.115	-168.930	
140.00	-57.393	-145.167	
141.00	-57.276	-145.702	
142.00	-55.416	-120.132	
143.00	-53.496	-113.057	
144.00	-53.471	-83.956	
145.00	-53.131	-63.784	
146.00	-52.347	-59.681	
147.00	-52.183	-44.370	
148.00	-51.787	-26.011	
149.00	-51.017	-5.267	
150.00	-50.493	16.499	
151.00	-50.141	27.460	
152.00	-49.768	47.004	
153.00	-49.298	53.472	
154.00	-48.684	71.080	
155.00	-48.500	87.804	
156.00	-47.891	102.682	
157.00	-47.376	118.131	
158.00	-47.154	129.542	
159.00	-46.949	137.632	
160.00	-46.637	153.402	
161.00	-45.928	162.045	
162.00	-45.640	179.252	
163.00	-45.552	-172.774	
164.00	-45.206	-162.319	
165.00	-45.179	-151.335	
166.00	-45.496	-144.139	
167.00	-45.043	-131.786	
168.00	-45.235	-119.722	
169.00	-45.217	-111.218	
170.00	-45.176	-100.389	
171.00	-45.038	-93.086	
172.00	-45.008	-84.330	
173.00	-44.958	-73.504	
174.00	-44.966	-68.671	
175.00	-44.810	-61.926	
176.00	-45.021	-55.481	
177.00	-44.997	-51.543	
178.00	-44.622	-42.417	
179.00	-44.545	-39.292	
180.00	-44.464	-34.448	
181.00	-44.507	-28.417	
182.00	-44.545	-21.751	
183.00	-44.431	-23.634	
184.00	-44.288	-16.732	
185.00	-44.473	-18.606	
186.00	-44.292	-14.627	
187.00	-44.664	-10.771	
188.00	-44.739	-13.650	
189.00	-45.067	-6.196	
190.00	-45.148	-8.892	
191.00	-45.340	-8.479	
192.00	-45.797	-14.143	
193.00	-45.934	-14.047	
194.00	-46.228	-12.394	
195.00	-46.653	-13.219	
196.00	-46.659	-16.647	
197.00	-47.361	-14.302	
198.00	-47.580	-21.556	
199.00	-47.734	-14.786	
200.00	-48.324	-25.869	
201.00	-48.938	-23.539	
202.00	-49.268	-24.521	
203.00	-49.438	-30.941	
204.00	-49.649	-24.173	
205.00	-50.132	-31.618	
206.00	-50.105	-33.079	
207.00	-50.238	-33.854	
208.00	-50.351	-38.237	
209.00	-50.860	-40.934	
210.00	-51.229	-53.734	
211.00	-51.134	-57.807	
212.00	-50.909	-64.769	
213.00	-51.151	-73.030	
214.00	-51.454	-81.166	
215.00	-51.153	-94.330	
216.00	-51.454	-100.409	
217.00	-51.363	-111.808	
218.00	-51.831	-125.246	
219.00	-51.742	-138.597	
220.00	-51.625	-147.645	
221.00	-51.788	-162.685	
222.00	-52.017	-173.392	
223.00	-52.506	170.611	
224.00	-52.536	158.097	
225.00	-52.645	145.208	
226.00	-52.823	124.964	
227.00	-52.769	111.576	
228.00	-53.506	95.685	
229.00	-52.838	77.663	
230.00	-54.010	64.535	
231.00	-53.883	43.694	
232.00	-53.773	30.392	
233.00	-53.987	10.181	
234.00	-54.413	-10.645	
235.00	-54.028	-27.390	
236.00	-54.819	-45.830	
237.00	-54.662	-65.527	
238.00	-56.096	-80.440	
239.00	-55.692	-108.296	
240.00	-56.935	-121.209	
241.00	-57.779	-145.527	
242.00	-57.888	-168.425	
243.00	-57.410	168.213	
244.00	-57.086	148.291	
245.00	-57.528	125.234	
246.00	-57.587	99.239	
247.00	-57.231	75.694	
248.00	-56.573	58.829	
249.00	-56.280	35.968	
250.00	-57.051	20.139	
251.00	-56.884	3.280	
252.00	-57.062	-17.007	
253.00	-57.422	-34.122	
254.00	-58.475	-59.096	
255.00	-59.282	-79.995	
256.00	-59.808	-103.905	
257.00	-61.177	-130.385	
258.00	-61.172	-157.203	
259.00	-62.107	179.978	
260.00	-61.842	158.141	
261.00	-62.658	132.902	
262.00	-61.353	108.282	
263.00	-62.439	84.865	
264.00	-62.239	64.261	
265.00	-62.352	42.097	
266.00	-62.889	19.855	
267.00	-63.217	0.984	
268.00	-65.565	-18.695	
269.00	-67.072	-40.148	
270.00	-67.854	-60.516	
271.00	-69.927	-96.364	
272.00	-71.840	-123.669	
273.00	-71.267	-166.736	
274.00	-71.700	-178.154	
275.00	-71.501	150.184	
276.00	-69.073	147.903	
277.00	-71.729	148.088	
278.00	-71.183	142.377	
279.00	-71.324	155.745	
280.00	-73.012	139.038	
281.00	-70.535	157.930	
282.00	-70.190	146.319	
283.00	-68.255	160.762	
284.00	-67.059	156.462	
285.00	-65.851	148.676	
286.00	-70.070	142.100	
287.00	-70.513	141.619	
288.00	-74.196	-77.601	
289.00	-77.741	-85.444	
290.00	-65.966	-87.033	
291.00	-66.366	-97.118	
292.00	-61.338	-104.356	
293.00	-61.420	-111.644	
294.00	-60.462	-112.249	
295.00	-59.608	-123.249	
296.00	-60.588	-128.955	
297.00	-61.497	-140.938	
298.00	-64.360	-146.791	
299.00	-64.567	-146.004	
300.00	-71.052	-156.036	
301.00	-74.243	-124.182	
302.00	-74.085	-67.650	
303.00	-71.331	-33.877	
304.00	-67.296	-35.248	
305.00	-66.436	-33.058	
306.00	-64.994	-50.415	
307.00	-65.827	-68.706	
308.00	-67.690	-89.209	
309.00	-67.875	-119.951	
310.00	-69.831	-155.647	
311.00	-66.542	174.214	
312.00	-65.914	157.666	
313.00	-62.623	139.749	
314.00	-64.147	118.195	
315.00	-63.775	108.277	
316.00	-66.399	73.681	
317.00	-64.926	60.182	
318.00	-66.991	30.176	
319.00	-68.929	0.816	
320.00	-65.126	-10.957	
321.00	-63.455	-42.954	
322.00	-63.676	-60.126	
323.00	-62.158	-84.418	
324.00	-63.664	-92.521	
325.00	-61.947	-111.960	
326.00	-61.257	-111.659	
327.00	-61.280	-130.395	
328.00	-61.973	-144.552	
329.00	-63.176	-163.282	
330.00	-63.998	-160.783	
331.00	-65.845	161.189	
332.00	-65.427	119.232	
333.00	-64.024	109.625	
334.00	-62.725	88.659	
335.00	-62.176	67.730	
336.00	-60.922	59.912	
337.00	-60.732	40.316	
338.00	-59.021	40.504	
339.00	-60.200	27.253	
340.00	-59.450	7.956	
341.00	-60.408	1.561	
342.00	-60.048	-4.025	
343.00	-61.524	-13.616	
344.00	-62.725	-24.876	
345.00	-63.275	-41.953	
346.00	-62.905	-54.068	
347.00	-64.013	-70.402	
348.00	-64.053	-88.271	
349.00	-63.727	-99.198	
350.00	-64.702	-119.056	
351.00	-64.385	-130.792	
352.00	-64.503	-129.517	
353.00	-65.571	-140.433	
354.00	-66.389	-153.237	
355.00	-67.246	-165.862	
356.00	-67.940	170.470	
357.00	-66.456	166.726	
358.00	-67.579	140.701	
359.00	-65.366	131.816	
Frequency	2550.00	MHz	
Channel	test		
Scan Axis name	Azimuth  [deg]		
Scan Axis	Amplitude	Phase	
			
0.00	-90.428	110.290	
1.00	-84.359	178.660	
2.00	-86.165	145.984	
3.00	-82.530	-139.217	
4.00	-88.323	-174.888	
5.00	-91.185	155.016	
6.00	-77.265	-145.372	
7.00	-76.942	-154.937	
8.00	-78.014	-145.125	
9.00	-74.119	-133.076	
10.00	-71.351	-123.881	
11.00	-67.870	-118.330	
12.00	-68.392	-110.687	
13.00	-66.094	-105.695	
14.00	-67.759	-83.881	
15.00	-65.855	-80.528	
16.00	-66.707	-77.395	
17.00	-64.587	-67.132	
18.00	-65.114	-63.823	
19.00	-65.254	-57.624	
20.00	-65.377	-50.430	
21.00	-66.191	-42.122	
22.00	-67.027	-35.034	
23.00	-67.567	-37.231	
24.00	-67.880	-13.383	
25.00	-69.535	1.618	
26.00	-69.339	-4.694	
27.00	-72.879	33.559	
28.00	-71.118	40.742	
29.00	-77.082	53.054	
30.00	-74.997	125.425	
31.00	-70.917	135.274	
32.00	-73.804	154.659	
33.00	-68.122	-163.100	
34.00	-68.348	-153.996	
35.00	-63.463	-145.388	
36.00	-61.336	-139.638	
37.00	-60.399	-126.442	
38.00	-60.136	-112.570	
39.00	-59.601	-113.094	
40.00	-59.819	-104.945	
41.00	-59.243	-83.308	
42.00	-58.680	-68.887	
43.00	-58.910	-66.106	
44.00	-58.922	-54.624	
45.00	-60.515	-34.080	
46.00	-61.852	-33.628	
47.00	-61.009	-11.853	
48.00	-59.128	14.774	
49.00	-61.804	57.058	
50.00	-62.318	60.110	
51.00	-62.752	78.397	
52.00	-63.382	107.046	
53.00	-61.801	136.229	
54.00	-61.441	156.297	
55.00	-63.761	167.668	
56.00	-63.208	-170.835	
57.00	-63.024	-155.213	
58.00	-61.798	-128.368	
59.00	-61.674	-92.651	
60.00	-63.060	-95.268	
61.00	-63.329	-68.123	
62.00	-60.886	-69.907	
63.00	-63.910	-20.250	
64.00	-61.575	-18.998	
65.00	-60.402	12.657	
66.00	-62.210	25.454	
67.00	-63.828	56.172	
68.00	-63.093	78.743	
69.00	-61.293	82.488	
70.00	-64.217	103.316	
71.00	-63.619	138.374	
72.00	-62.297	174.144	
73.00	-67.182	-170.284	
74.00	-63.396	-164.298	
75.00	-66.855	-147.677	
76.00	-65.056	-104.491	
77.00	-66.442	-81.788	
78.00	-66.497	-50.357	
79.00	-64.789	-22.785	
80.00	-63.110	-7.659	
81.00	-67.179	21.814	
82.00	-65.542	40.287	
83.00	-62.520	82.027	
84.00	-64.165	86.459	
85.00	-66.833	129.151	
86.00	-66.959	162.317	
87.00	-68.799	-179.624	
88.00	-65.835	-149.322	
89.00	-60.227	-112.487	
90.00	-64.282	-109.835	
91.00	-62.460	-100.392	
92.00	-62.481	-60.790	
93.00	-63.308	-49.937	
94.00	-61.333	-31.539	
95.00	-62.676	-0.813	
96.00	-63.897	2.526	
97.00	-61.906	18.318	
98.00	-65.235	32.442	
99.00	-63.461	59.531	
100.00	-61.353	104.119	
101.00	-63.243	115.310	
102.00	-61.662	145.825	
103.00	-61.408	156.662	
104.00	-59.712	-163.881	
105.00	-60.492	-142.618	
106.00	-60.742	-135.405	
107.00	-62.502	-113.204	
108.00	-62.255	-95.085	
109.00	-62.867	-86.425	
110.00	-65.495	-67.164	
111.00	-64.233	-42.330	
112.00	-63.208	-9.129	
113.00	-66.083	47.448	
114.00	-62.419	50.549	
115.00	-62.605	46.384	
116.00	-62.206	89.146	
117.00	-60.905	112.128	
118.00	-60.403	128.452	
119.00	-59.533	151.495	
120.00	-58.991	171.566	
121.00	-58.990	-166.139	
122.00	-58.115	-146.348	
123.00	-58.820	-128.544	
124.00	-59.168	-109.854	
125.00	-59.279	-87.960	
126.00	-59.085	-67.897	
127.00	-60.132	-63.305	
128.00	-60.488	-33.048	
129.00	-62.885	-2.347	
130.00	-62.829	25.203	
131.00	-62.340	53.641	
132.00	-63.906	70.950	
133.00	-62.330	102.889	
134.00	-62.717	131.434	
135.00	-64.183	149.077	
136.00	-60.924	-164.181	
137.00	-60.231	-141.384	
138.00	-58.048	-115.971	
139.00	-57.439	-109.342	
140.00	-56.345	-83.841	
141.00	-55.686	-84.568	
142.00	-54.390	-59.936	
143.00	-53.460	-52.762	
144.00	-53.563	-14.574	
145.00	-52.987	4.748	
146.00	-52.562	11.827	
147.00	-52.021	25.085	
148.00	-51.507	50.153	
149.00	-51.390	65.689	
150.00	-50.838	87.621	
151.00	-50.263	95.387	
152.00	-49.946	112.907	
153.00	-49.399	124.672	
154.00	-49.289	139.514	
155.00	-48.700	157.400	
156.00	-48.516	171.572	
157.00	-48.360	-174.480	
158.00	-48.110	-161.694	
159.00	-47.790	-151.478	
160.00	-47.479	-134.959	
161.00	-47.041	-125.510	
162.00	-46.785	-107.156	
163.00	-46.479	-98.190	
164.00	-46.287	-86.533	
165.00	-46.149	-74.079	
166.00	-45.905	-66.993	
167.00	-45.698	-53.246	
168.00	-45.853	-42.551	
169.00	-45.600	-32.817	
170.00	-45.574	-23.617	
171.00	-45.364	-14.748	
172.00	-45.224	-5.207	
173.00	-45.102	5.810	
174.00	-45.047	9.992	
175.00	-44.974	15.218	
176.00	-44.885	20.029	
177.00	-44.790	23.845	
178.00	-44.725	32.242	
179.00	-44.714	36.601	
180.00	-44.669	42.671	
181.00	-44.699	48.694	
182.00	-44.822	55.137	
183.00	-44.979	53.600	
184.00	-45.189	61.002	
185.00	-45.516	61.840	
186.00	-45.643	67.867	
187.00	-45.923	73.526	
188.00	-46.272	73.475	
189.00	-46.459	82.487	
190.00	-46.840	81.675	
191.00	-47.228	83.765	
192.00	-47.748	78.068	
193.00	-48.072	79.876	
194.00	-48.512	81.414	
195.00	-48.839	84.333	
196.00	-49.398	80.648	
197.00	-49.902	82.193	
198.00	-50.184	74.717	
199.00	-50.663	84.040	
200.00	-50.699	70.674	
201.00	-51.147	71.442	
202.00	-51.255	66.715	
203.00	-51.561	57.426	
204.00	-51.602	62.092	
205.00	-51.737	55.359	
206.00	-51.670	49.499	
207.00	-51.843	45.999	
208.00	-51.859	38.471	
209.00	-51.839	35.068	
210.00	-51.702	23.556	
211.00	-51.705	16.964	
212.00	-51.443	9.159	
213.00	-51.797	-1.860	
214.00	-51.905	-9.410	
215.00	-52.142	-21.692	
216.00	-52.922	-28.821	
217.00	-53.245	-37.557	
218.00	-53.462	-52.014	
219.00	-54.297	-66.146	
220.00	-54.923	-80.612	
221.00	-55.293	-96.485	
222.00	-56.017	-112.431	
223.00	-55.594	-132.460	
224.00	-56.089	-151.160	
225.00	-55.968	-167.470	
226.00	-56.134	172.751	
227.00	-55.842	156.453	
228.00	-55.453	138.889	
229.00	-55.917	117.741	
230.00	-55.268	106.657	
231.00	-55.076	86.627	
232.00	-55.865	73.386	
233.00	-55.740	51.735	
234.00	-55.890	37.695	
235.00	-56.504	14.113	
236.00	-56.696	-5.791	
237.00	-56.599	-29.798	
238.00	-56.719	-46.104	
239.00	-56.573	-73.984	
240.00	-56.389	-93.960	
241.00	-56.363	-114.077	
242.00	-57.108	-135.033	
243.00	-56.674	-150.547	
244.00	-56.725	-171.162	
245.00	-56.710	171.343	
246.00	-56.695	147.262	
247.00	-56.204	125.454	
248.00	-55.838	107.580	
249.00	-56.042	93.262	
250.00	-55.887	70.617	
251.00	-56.244	56.236	
252.00	-56.431	38.566	
253.00	-56.939	23.914	
254.00	-57.763	7.167	
255.00	-59.194	-10.881	
256.00	-60.518	-28.976	
257.00	-62.615	-51.564	
258.00	-64.582	-67.344	
259.00	-66.836	-99.238	
260.00	-69.965	-148.385	
261.00	-69.357	176.452	
262.00	-70.674	146.030	
263.00	-72.175	92.324	
264.00	-70.379	72.444	
265.00	-72.638	63.821	
266.00	-75.127	18.107	
267.00	-73.093	-51.971	
268.00	-73.877	-71.516	
269.00	-67.588	-118.312	
270.00	-67.198	-138.210	
271.00	-66.444	-150.200	
272.00	-65.667	172.463	
273.00	-63.866	137.854	
274.00	-63.519	118.557	
275.00	-63.055	94.680	
276.00	-62.388	73.887	
277.00	-61.173	49.515	
278.00	-60.285	33.884	
279.00	-59.866	16.921	
280.00	-59.665	-0.730	
281.00	-58.903	-17.099	
282.00	-59.133	-33.249	
283.00	-58.066	-50.931	
284.00	-58.908	-62.414	
285.00	-60.398	-97.818	
286.00	-63.978	-152.773	
287.00	-62.573	-150.622	
288.00	-65.180	158.697	
289.00	-67.104	147.001	
290.00	-68.610	105.639	
291.00	-67.316	90.404	
292.00	-67.695	53.234	
293.00	-70.023	45.031	
294.00	-72.041	20.218	
295.00	-72.094	-11.260	
296.00	-74.794	-49.730	
297.00	-75.137	-102.427	
298.00	-71.622	-118.600	
299.00	-68.779	-148.830	
300.00	-67.508	-164.890	
301.00	-67.691	-168.520	
302.00	-66.290	-177.964	
303.00	-70.383	163.257	
304.00	-67.480	136.130	
305.00	-72.320	129.639	
306.00	-74.136	136.471	
307.00	-74.679	76.084	
308.00	-80.110	32.443	
309.00	-80.575	-9.323	
310.00	-79.926	-73.123	
311.00	-72.598	-57.201	
312.00	-70.898	-77.487	
313.00	-68.897	-82.421	
314.00	-71.348	-95.153	
315.00	-69.202	-101.525	
316.00	-69.902	-101.394	
317.00	-68.364	-105.582	
318.00	-68.111	-98.885	
319.00	-67.201	-111.518	
320.00	-66.836	-121.527	
321.00	-66.656	-126.494	
322.00	-64.653	-121.938	
323.00	-64.066	-148.685	
324.00	-63.931	-148.465	
325.00	-61.973	-171.032	
326.00	-61.647	-173.580	
327.00	-60.318	169.895	
328.00	-59.504	169.204	
329.00	-58.857	157.342	
330.00	-58.215	150.429	
331.00	-58.460	146.749	
332.00	-59.396	131.628	
333.00	-59.396	127.961	
334.00	-60.293	126.895	
335.00	-62.137	117.909	
336.00	-63.332	112.226	
337.00	-65.714	97.179	
338.00	-70.488	91.397	
339.00	-70.029	45.726	
340.00	-71.784	24.102	
341.00	-71.077	9.336	
342.00	-73.358	-15.831	
343.00	-70.816	-61.347	
344.00	-71.115	-68.284	
345.00	-66.123	-97.851	
346.00	-67.207	-98.013	
347.00	-68.051	-113.132	
348.00	-67.850	-136.927	
349.00	-67.547	-125.768	
350.00	-68.283	-136.283	
351.00	-69.117	-141.053	
352.00	-71.814	-155.283	
353.00	-72.165	179.619	
354.00	-81.469	-166.546	
355.00	-89.960	-93.203	
356.00	-81.696	96.841	
357.00	-80.265	49.333	
358.00	-73.386	62.363	
359.00	-73.482	42.320	
Frequency	2600.00	MHz	
Channel	test		
Scan Axis name	Azimuth  [deg]		
Scan Axis	Amplitude	Phase	
			
0.00	-61.880	163.318	
1.00	-62.015	156.260	
2.00	-61.628	147.090	
3.00	-61.901	141.129	
4.00	-61.036	133.441	
5.00	-61.670	127.993	
6.00	-62.068	120.133	
7.00	-61.533	118.351	
8.00	-61.519	108.524	
9.00	-61.695	107.028	
10.00	-61.877	104.897	
11.00	-61.835	105.594	
12.00	-62.490	107.398	
13.00	-63.059	101.431	
14.00	-63.221	109.546	
15.00	-65.142	108.106	
16.00	-65.899	114.458	
17.00	-65.772	110.068	
18.00	-67.195	122.819	
19.00	-69.114	126.388	
20.00	-68.569	130.460	
21.00	-69.494	135.041	
22.00	-70.151	134.738	
23.00	-70.213	124.390	
24.00	-71.862	114.229	
25.00	-71.318	112.013	
26.00	-72.293	103.660	
27.00	-72.293	87.348	
28.00	-72.864	91.648	
29.00	-70.679	96.848	
30.00	-69.495	95.711	
31.00	-70.421	85.887	
32.00	-70.870	85.358	
33.00	-70.896	89.485	
34.00	-71.127	81.860	
35.00	-69.273	72.256	
36.00	-70.227	76.225	
37.00	-71.921	82.956	
38.00	-71.471	89.376	
39.00	-72.508	56.339	
40.00	-71.131	61.250	
41.00	-68.347	68.779	
42.00	-66.860	62.683	
43.00	-66.716	55.095	
44.00	-65.886	55.383	
45.00	-64.392	56.636	
46.00	-64.909	64.436	
47.00	-64.806	75.509	
48.00	-63.974	80.781	
49.00	-64.744	97.071	
50.00	-65.677	105.106	
51.00	-65.421	121.802	
52.00	-67.308	145.098	
53.00	-68.501	172.797	
54.00	-68.503	-164.485	
55.00	-68.219	-138.324	
56.00	-68.686	-121.822	
57.00	-67.743	-101.091	
58.00	-66.582	-90.685	
59.00	-68.049	-68.343	
60.00	-66.298	-59.516	
61.00	-68.454	-39.761	
62.00	-68.246	-34.181	
63.00	-71.635	-11.973	
64.00	-72.848	2.260	
65.00	-81.864	5.575	
66.00	-81.404	-129.948	
67.00	-79.489	-179.779	
68.00	-73.571	-122.193	
69.00	-71.344	-123.016	
70.00	-68.792	-108.548	
71.00	-68.005	-89.592	
72.00	-68.081	-72.334	
73.00	-67.915	-41.729	
74.00	-65.892	-28.811	
75.00	-65.204	-0.295	
76.00	-65.365	13.234	
77.00	-64.244	37.668	
78.00	-63.646	55.899	
79.00	-64.011	78.252	
80.00	-64.038	95.963	
81.00	-64.726	128.192	
82.00	-64.594	147.658	
83.00	-62.925	-172.667	
84.00	-62.913	-152.824	
85.00	-61.265	-128.649	
86.00	-61.316	-100.919	
87.00	-60.191	-85.075	
88.00	-60.376	-67.438	
89.00	-59.881	-49.707	
90.00	-60.482	-31.408	
91.00	-60.361	-4.537	
92.00	-59.926	21.175	
93.00	-59.866	36.680	
94.00	-59.190	57.608	
95.00	-58.458	76.389	
96.00	-58.543	94.043	
97.00	-57.761	112.264	
98.00	-58.424	136.978	
99.00	-58.136	146.214	
100.00	-59.204	-178.118	
101.00	-59.554	-162.005	
102.00	-60.287	-122.994	
103.00	-59.830	-108.466	
104.00	-59.766	-78.711	
105.00	-59.400	-68.768	
106.00	-58.922	-39.994	
107.00	-58.794	-24.409	
108.00	-58.084	-3.536	
109.00	-58.075	7.108	
110.00	-58.142	20.103	
111.00	-58.408	37.713	
112.00	-59.099	57.195	
113.00	-60.304	74.384	
114.00	-61.239	92.427	
115.00	-61.368	119.065	
116.00	-62.953	142.111	
117.00	-63.459	174.325	
118.00	-63.936	-176.032	
119.00	-63.228	-138.616	
120.00	-64.205	-124.420	
121.00	-64.680	-87.892	
122.00	-64.435	-55.554	
123.00	-65.360	-29.146	
124.00	-65.064	-7.288	
125.00	-64.862	29.065	
126.00	-64.719	49.155	
127.00	-65.600	68.251	
128.00	-66.029	89.685	
129.00	-67.406	129.340	
130.00	-64.444	165.108	
131.00	-63.062	-149.244	
132.00	-60.662	-132.711	
133.00	-58.376	-114.633	
134.00	-57.162	-103.911	
135.00	-55.789	-81.791	
136.00	-55.081	-57.220	
137.00	-54.007	-36.769	
138.00	-53.124	-16.325	
139.00	-52.251	-5.469	
140.00	-51.382	14.728	
141.00	-50.429	12.935	
142.00	-49.718	39.650	
143.00	-49.008	46.403	
144.00	-48.351	75.682	
145.00	-48.069	97.119	
146.00	-47.544	101.017	
147.00	-47.350	114.677	
148.00	-46.785	136.565	
149.00	-46.885	151.579	
150.00	-46.698	170.708	
151.00	-46.518	179.931	
152.00	-46.422	-163.674	
153.00	-46.354	-149.904	
154.00	-46.117	-136.200	
155.00	-45.985	-116.632	
156.00	-45.818	-100.662	
157.00	-45.618	-86.335	
158.00	-45.328	-73.292	
159.00	-45.124	-62.421	
160.00	-45.075	-45.452	
161.00	-44.876	-35.945	
162.00	-44.729	-17.848	
163.00	-44.695	-7.564	
164.00	-44.613	4.717	
165.00	-44.477	19.753	
166.00	-44.339	29.887	
167.00	-44.073	43.238	
168.00	-43.918	55.882	
169.00	-43.667	65.416	
170.00	-43.504	76.190	
171.00	-43.378	84.003	
172.00	-43.137	93.001	
173.00	-43.072	103.879	
174.00	-42.928	107.573	
175.00	-42.871	113.145	
176.00	-42.813	117.443	
177.00	-42.777	121.237	
178.00	-42.786	130.202	
179.00	-42.820	134.754	
180.00	-42.900	140.119	
181.00	-43.043	146.843	
182.00	-43.076	154.097	
183.00	-43.266	153.143	
184.00	-43.431	160.878	
185.00	-43.609	160.405	
186.00	-43.891	166.873	
187.00	-44.116	172.023	
188.00	-44.406	172.465	
189.00	-44.574	-179.866	
190.00	-44.846	-179.465	
191.00	-45.203	-178.065	
192.00	-45.456	178.315	
193.00	-45.722	179.900	
194.00	-46.077	-177.563	
195.00	-46.290	-174.629	
196.00	-46.579	-177.672	
197.00	-46.749	-174.352	
198.00	-47.069	-179.322	
199.00	-47.155	-171.740	
200.00	-47.394	177.487	
201.00	-47.669	179.521	
202.00	-47.853	178.158	
203.00	-48.027	169.516	
204.00	-48.239	174.500	
205.00	-48.468	167.928	
206.00	-48.735	163.476	
207.00	-49.297	161.636	
208.00	-49.411	152.388	
209.00	-50.114	148.966	
210.00	-50.647	136.413	
211.00	-51.192	130.544	
212.00	-52.096	117.619	
213.00	-52.518	108.387	
214.00	-53.014	95.856	
215.00	-53.863	79.866	
216.00	-54.349	69.696	
217.00	-55.278	58.034	
218.00	-55.874	40.957	
219.00	-56.792	24.527	
220.00	-58.135	4.910	
221.00	-59.356	-15.850	
222.00	-59.653	-44.979	
223.00	-59.262	-71.402	
224.00	-58.432	-97.238	
225.00	-57.569	-114.632	
226.00	-56.475	-136.312	
227.00	-55.841	-147.956	
228.00	-55.125	-163.037	
229.00	-54.867	178.483	
230.00	-54.592	169.676	
231.00	-55.038	148.479	
232.00	-55.099	139.987	
233.00	-55.763	119.379	
234.00	-56.149	104.803	
235.00	-56.597	84.159	
236.00	-57.563	63.321	
237.00	-58.109	43.801	
238.00	-59.197	20.123	
239.00	-60.284	-8.453	
240.00	-60.514	-36.286	
241.00	-60.813	-68.747	
242.00	-59.427	-95.887	
243.00	-58.056	-114.275	
244.00	-57.880	-136.302	
245.00	-57.185	-155.446	
246.00	-56.755	-175.176	
247.00	-56.435	165.912	
248.00	-56.568	148.445	
249.00	-56.558	127.781	
250.00	-56.262	106.569	
251.00	-56.866	86.040	
252.00	-56.826	64.796	
253.00	-57.261	45.997	
254.00	-57.406	18.627	
255.00	-57.549	-1.020	
256.00	-58.361	-23.639	
257.00	-59.643	-45.800	
258.00	-60.289	-65.537	
259.00	-60.846	-101.156	
260.00	-61.140	-130.026	
261.00	-59.905	-163.255	
262.00	-59.927	167.316	
263.00	-58.919	147.713	
264.00	-58.873	120.090	
265.00	-59.041	98.456	
266.00	-59.158	74.177	
267.00	-59.851	58.059	
268.00	-60.269	34.688	
269.00	-60.666	4.870	
270.00	-61.217	-27.097	
271.00	-61.707	-50.068	
272.00	-61.422	-80.401	
273.00	-60.376	-107.536	
274.00	-59.617	-128.467	
275.00	-58.657	-155.319	
276.00	-58.952	-162.836	
277.00	-58.960	167.482	
278.00	-58.940	150.070	
279.00	-59.567	133.454	
280.00	-59.527	115.234	
281.00	-60.356	103.393	
282.00	-61.202	86.621	
283.00	-62.780	69.246	
284.00	-66.541	36.406	
285.00	-68.896	15.989	
286.00	-76.235	-75.854	
287.00	-73.035	-110.130	
288.00	-73.719	171.229	
289.00	-75.340	173.953	
290.00	-73.241	136.545	
291.00	-77.077	132.347	
292.00	-67.833	97.723	
293.00	-67.746	92.092	
294.00	-64.773	81.490	
295.00	-63.234	56.491	
296.00	-63.449	62.018	
297.00	-63.457	62.432	
298.00	-63.757	63.859	
299.00	-66.964	54.552	
300.00	-68.577	56.749	
301.00	-70.643	60.959	
302.00	-75.291	45.047	
303.00	-81.333	49.227	
304.00	-76.168	-119.624	
305.00	-69.446	-103.577	
306.00	-66.853	-116.010	
307.00	-66.340	-132.700	
308.00	-61.812	-133.804	
309.00	-61.798	-150.522	
310.00	-60.539	-163.532	
311.00	-61.523	-173.241	
312.00	-61.025	165.226	
313.00	-61.609	142.628	
314.00	-61.225	121.416	
315.00	-60.461	105.493	
316.00	-59.594	82.426	
317.00	-58.065	54.294	
318.00	-57.422	40.295	
319.00	-56.556	25.731	
320.00	-56.354	20.202	
321.00	-55.400	3.235	
322.00	-54.932	-6.665	
323.00	-55.333	-25.919	
324.00	-55.531	-31.932	
325.00	-55.701	-53.808	
326.00	-55.268	-61.805	
327.00	-55.384	-84.209	
328.00	-55.721	-89.595	
329.00	-55.671	-111.591	
330.00	-56.827	-119.353	
331.00	-56.818	-130.198	
332.00	-57.529	-146.043	
333.00	-58.381	-161.924	
334.00	-60.045	-172.298	
335.00	-61.162	171.955	
336.00	-63.157	159.794	
337.00	-66.387	149.254	
338.00	-69.191	109.294	
339.00	-69.769	63.681	
340.00	-66.725	23.392	
341.00	-66.364	9.306	
342.00	-61.969	-16.180	
343.00	-61.879	-28.031	
344.00	-60.588	-32.099	
345.00	-59.584	-48.480	
346.00	-59.173	-58.525	
347.00	-59.375	-64.313	
348.00	-58.499	-73.491	
349.00	-59.436	-75.997	
350.00	-59.781	-88.851	
351.00	-60.306	-97.678	
352.00	-60.874	-108.615	
353.00	-62.105	-123.950	
354.00	-63.217	-137.368	
355.00	-62.402	-153.963	
356.00	-63.536	-163.139	
357.00	-62.239	179.160	
358.00	-63.108	169.011	
359.00	-62.326	162.662	
Frequency	2650.00	MHz	
Channel	test		
Scan Axis name	Azimuth  [deg]		
Scan Axis	Amplitude	Phase	
			
0.00	-69.809	11.137	
1.00	-73.630	-23.077	
2.00	-78.817	-22.812	
3.00	-74.486	47.947	
4.00	-70.789	63.159	
5.00	-70.658	83.814	
6.00	-69.693	75.486	
7.00	-71.381	113.437	
8.00	-66.484	104.930	
9.00	-65.943	124.206	
10.00	-66.246	119.904	
11.00	-65.065	126.922	
12.00	-67.010	125.836	
13.00	-67.258	142.523	
14.00	-67.515	130.325	
15.00	-68.507	124.641	
16.00	-68.497	113.775	
17.00	-72.622	124.296	
18.00	-74.696	147.034	
19.00	-74.083	78.249	
20.00	-75.124	52.200	
21.00	-73.258	90.464	
22.00	-68.589	29.855	
23.00	-67.476	58.823	
24.00	-70.830	47.488	
25.00	-69.273	42.880	
26.00	-67.334	43.893	
27.00	-65.471	46.812	
28.00	-65.619	44.223	
29.00	-67.173	70.274	
30.00	-64.611	89.396	
31.00	-65.738	75.403	
32.00	-65.398	110.059	
33.00	-63.461	115.030	
34.00	-65.562	127.033	
35.00	-66.056	122.623	
36.00	-68.010	143.534	
37.00	-66.551	136.402	
38.00	-67.649	176.038	
39.00	-69.683	156.500	
40.00	-70.356	177.862	
41.00	-78.178	-173.468	
42.00	-80.363	-113.847	
43.00	-81.249	20.742	
44.00	-73.674	37.219	
45.00	-71.271	38.565	
46.00	-69.281	61.260	
47.00	-67.006	79.491	
48.00	-66.103	82.027	
49.00	-64.450	101.411	
50.00	-64.692	109.060	
51.00	-64.089	126.332	
52.00	-65.273	135.341	
53.00	-65.430	147.613	
54.00	-66.566	171.463	
55.00	-67.217	-171.808	
56.00	-71.424	-139.767	
57.00	-71.182	-106.031	
58.00	-69.859	-59.234	
59.00	-67.694	-41.688	
60.00	-70.433	-27.393	
61.00	-67.563	14.495	
62.00	-66.375	7.076	
63.00	-65.154	40.682	
64.00	-65.729	44.283	
65.00	-64.898	73.313	
66.00	-66.326	89.926	
67.00	-65.539	98.679	
68.00	-68.106	117.484	
69.00	-70.301	134.213	
70.00	-72.039	178.436	
71.00	-74.653	-157.714	
72.00	-73.648	-113.638	
73.00	-73.802	-62.219	
74.00	-72.626	-64.284	
75.00	-70.165	-1.015	
76.00	-69.277	38.423	
77.00	-70.204	37.989	
78.00	-67.963	69.290	
79.00	-66.909	81.296	
80.00	-66.908	83.503	
81.00	-67.658	108.083	
82.00	-67.259	124.990	
83.00	-70.444	127.298	
84.00	-74.774	113.505	
85.00	-74.095	179.403	
86.00	-75.211	142.795	
87.00	-76.633	156.581	
88.00	-77.341	72.146	
89.00	-88.628	-57.166	
90.00	-69.735	90.346	
91.00	-74.452	128.320	
92.00	-76.239	152.903	
93.00	-71.862	150.119	
94.00	-77.416	175.567	
95.00	-77.510	160.353	
96.00	-73.096	-105.142	
97.00	-75.379	-117.542	
98.00	-72.459	-64.164	
99.00	-73.135	-48.212	
100.00	-72.278	-5.282	
101.00	-67.195	-18.432	
102.00	-66.969	9.251	
103.00	-66.940	15.937	
104.00	-65.033	28.655	
105.00	-64.730	33.426	
106.00	-67.892	58.511	
107.00	-66.677	41.119	
108.00	-67.548	63.471	
109.00	-66.905	58.235	
110.00	-67.832	65.851	
111.00	-68.977	87.662	
112.00	-70.798	109.343	
113.00	-69.779	125.282	
114.00	-72.898	125.168	
115.00	-76.294	140.796	
116.00	-77.162	153.450	
117.00	-75.347	-137.773	
118.00	-85.689	-88.225	
119.00	-74.937	-90.319	
120.00	-72.395	-46.942	
121.00	-68.444	-35.969	
122.00	-71.105	-18.286	
123.00	-72.613	-10.924	
124.00	-69.984	-13.355	
125.00	-67.403	16.965	
126.00	-70.368	-2.950	
127.00	-70.839	24.179	
128.00	-69.953	27.961	
129.00	-66.585	21.074	
130.00	-68.485	-3.963	
131.00	-64.735	27.135	
132.00	-61.070	21.355	
133.00	-60.507	22.382	
134.00	-58.221	31.216	
135.00	-56.498	41.476	
136.00	-55.776	59.124	
137.00	-54.689	71.990	
138.00	-53.532	88.216	
139.00	-52.604	91.134	
140.00	-51.881	106.450	
141.00	-51.718	100.975	
142.00	-50.826	123.692	
143.00	-50.629	130.872	
144.00	-50.341	157.429	
145.00	-49.842	177.806	
146.00	-49.258	-179.290	
147.00	-49.240	-166.624	
148.00	-49.165	-147.121	
149.00	-49.246	-130.691	
150.00	-49.186	-112.784	
151.00	-48.974	-103.328	
152.00	-49.066	-88.855	
153.00	-49.122	-74.984	
154.00	-49.212	-58.929	
155.00	-49.123	-38.041	
156.00	-49.042	-19.772	
157.00	-48.712	-2.254	
158.00	-48.129	10.351	
159.00	-48.013	23.071	
160.00	-47.578	41.698	
161.00	-46.906	51.884	
162.00	-46.330	68.995	
163.00	-46.043	81.123	
164.00	-45.572	90.742	
165.00	-45.035	104.637	
166.00	-44.769	111.542	
167.00	-44.661	124.103	
168.00	-44.415	134.142	
169.00	-44.194	144.600	
170.00	-43.999	154.558	
171.00	-43.794	162.386	
172.00	-43.703	170.648	
173.00	-43.689	-179.260	
174.00	-43.347	-175.175	
175.00	-43.459	-170.959	
176.00	-43.447	-166.375	
177.00	-43.384	-163.749	
178.00	-43.461	-155.503	
179.00	-43.657	-150.362	
180.00	-43.769	-145.612	
181.00	-44.008	-139.868	
182.00	-44.266	-132.294	
183.00	-44.552	-133.013	
184.00	-44.821	-126.238	
185.00	-45.083	-125.074	
186.00	-45.381	-118.230	
187.00	-45.719	-112.349	
188.00	-46.059	-111.650	
189.00	-46.236	-103.352	
190.00	-46.627	-101.981	
191.00	-47.094	-98.918	
192.00	-47.419	-101.391	
193.00	-47.542	-98.652	
194.00	-47.961	-96.088	
195.00	-48.026	-91.029	
196.00	-48.171	-93.291	
197.00	-48.301	-89.229	
198.00	-48.578	-95.635	
199.00	-48.357	-87.189	
200.00	-48.484	-99.567	
201.00	-48.397	-98.355	
202.00	-48.622	-102.673	
203.00	-48.589	-110.882	
204.00	-48.676	-106.631	
205.00	-48.918	-114.898	
206.00	-49.008	-121.078	
207.00	-49.048	-123.242	
208.00	-49.502	-133.347	
209.00	-49.873	-136.010	
210.00	-50.108	-149.675	
211.00	-50.470	-157.047	
212.00	-51.276	-167.754	
213.00	-51.503	-177.272	
214.00	-51.989	171.704	
215.00	-52.726	160.674	
216.00	-53.353	151.319	
217.00	-54.530	142.070	
218.00	-54.853	130.632	
219.00	-56.016	118.840	
220.00	-57.522	103.597	
221.00	-59.231	96.749	
222.00	-60.565	78.732	
223.00	-63.033	72.308	
224.00	-65.128	54.138	
225.00	-71.616	40.654	
226.00	-74.562	56.921	
227.00	-76.510	169.931	
228.00	-71.719	-177.696	
229.00	-65.505	158.547	
230.00	-61.851	147.642	
231.00	-60.733	135.799	
232.00	-58.859	121.640	
233.00	-58.043	103.679	
234.00	-56.931	96.422	
235.00	-56.936	81.046	
236.00	-56.270	62.530	
237.00	-56.585	46.025	
238.00	-55.676	30.231	
239.00	-56.034	8.454	
240.00	-56.121	-2.321	
241.00	-56.314	-22.756	
242.00	-57.017	-41.625	
243.00	-57.394	-59.718	
244.00	-58.108	-82.585	
245.00	-58.450	-105.564	
246.00	-58.174	-135.519	
247.00	-57.893	-155.580	
248.00	-56.947	-179.284	
249.00	-56.815	161.079	
250.00	-55.891	140.369	
251.00	-55.894	121.476	
252.00	-56.740	98.431	
253.00	-57.206	80.399	
254.00	-57.148	59.769	
255.00	-57.861	34.408	
256.00	-58.343	15.890	
257.00	-59.786	-7.647	
258.00	-59.733	-29.573	
259.00	-60.483	-65.247	
260.00	-60.750	-89.013	
261.00	-61.548	-122.860	
262.00	-58.835	-161.166	
263.00	-57.217	-175.036	
264.00	-57.219	157.648	
265.00	-56.659	137.345	
266.00	-56.784	122.371	
267.00	-58.113	101.308	
268.00	-58.162	97.010	
269.00	-59.459	62.887	
270.00	-60.460	37.975	
271.00	-63.407	13.776	
272.00	-63.073	-17.073	
273.00	-63.896	-44.818	
274.00	-62.259	-74.264	
275.00	-61.787	-100.812	
276.00	-61.870	-110.928	
277.00	-64.864	-142.619	
278.00	-63.697	-162.218	
279.00	-63.348	-176.443	
280.00	-66.473	160.761	
281.00	-70.209	128.147	
282.00	-72.922	75.919	
283.00	-71.680	50.187	
284.00	-66.972	55.374	
285.00	-67.552	-8.475	
286.00	-72.918	-64.760	
287.00	-85.967	-22.136	
288.00	-73.027	173.217	
289.00	-86.167	-130.426	
290.00	-67.628	141.424	
291.00	-70.483	99.329	
292.00	-70.754	140.347	
293.00	-67.457	132.619	
294.00	-72.117	159.591	
295.00	-69.622	-165.035	
296.00	-68.938	-150.530	
297.00	-70.467	-159.492	
298.00	-67.699	167.344	
299.00	-68.217	164.216	
300.00	-65.375	121.947	
301.00	-64.844	119.136	
302.00	-61.875	95.079	
303.00	-60.990	87.860	
304.00	-59.364	73.732	
305.00	-57.926	53.414	
306.00	-57.567	41.450	
307.00	-57.619	32.033	
308.00	-57.469	13.092	
309.00	-57.958	-5.668	
310.00	-58.740	-31.296	
311.00	-60.454	-55.248	
312.00	-59.788	-81.945	
313.00	-60.149	-107.794	
314.00	-59.734	-131.349	
315.00	-58.242	-152.627	
316.00	-57.592	-171.657	
317.00	-56.419	170.344	
318.00	-56.020	156.260	
319.00	-55.450	141.259	
320.00	-55.643	130.336	
321.00	-55.806	116.201	
322.00	-56.077	101.792	
323.00	-57.375	78.013	
324.00	-57.953	69.784	
325.00	-58.465	50.084	
326.00	-57.893	40.326	
327.00	-60.514	8.198	
328.00	-60.281	-3.689	
329.00	-60.804	-23.732	
330.00	-61.435	-37.598	
331.00	-61.257	-58.699	
332.00	-62.105	-68.226	
333.00	-62.524	-85.043	
334.00	-62.572	-99.466	
335.00	-64.084	-113.190	
336.00	-65.708	-118.451	
337.00	-66.875	-119.963	
338.00	-67.819	-120.014	
339.00	-70.544	-118.596	
340.00	-76.233	-96.009	
341.00	-72.953	-42.921	
342.00	-66.751	-37.182	
343.00	-66.045	-30.547	
344.00	-64.812	-38.202	
345.00	-62.454	-26.478	
346.00	-60.263	-34.578	
347.00	-59.967	-31.718	
348.00	-60.348	-42.365	
349.00	-61.271	-43.545	
350.00	-60.486	-53.182	
351.00	-61.848	-55.056	
352.00	-61.529	-57.681	
353.00	-62.001	-59.409	
354.00	-61.974	-59.932	
355.00	-63.162	-62.684	
356.00	-64.232	-49.287	
357.00	-64.130	-39.999	
358.00	-66.137	-26.726	
359.00	-65.088	-35.575	
Frequency	2700.00	MHz	
Channel	test		
Scan Axis name	Azimuth  [deg]		
Scan Axis	Amplitude	Phase	
			
0.00	-76.750	14.993	
1.00	-77.248	30.847	
2.00	-74.431	71.548	
3.00	-80.794	37.231	
4.00	-76.721	38.546	
5.00	-73.705	55.595	
6.00	-76.998	89.625	
7.00	-77.359	13.841	
8.00	-83.757	77.735	
9.00	-77.935	75.617	
10.00	-78.424	88.846	
11.00	-82.526	43.225	
12.00	-80.363	45.851	
13.00	-88.356	157.475	
14.00	-77.492	5.503	
15.00	-82.869	-67.650	
16.00	-85.104	-62.506	
17.00	-77.919	-147.109	
18.00	-74.792	-152.208	
19.00	-73.239	-150.824	
20.00	-75.466	-131.773	
21.00	-78.756	-163.056	
22.00	-76.097	156.986	
23.00	-74.322	-127.913	
24.00	-68.628	-157.447	
25.00	-69.161	-132.588	
26.00	-66.680	-140.268	
27.00	-63.857	-144.117	
28.00	-63.277	-148.570	
29.00	-66.240	-142.226	
30.00	-62.903	-127.521	
31.00	-61.996	-135.991	
32.00	-61.452	-120.303	
33.00	-59.625	-118.925	
34.00	-58.848	-109.194	
35.00	-60.418	-115.717	
36.00	-57.379	-108.382	
37.00	-61.176	-103.835	
38.00	-58.266	-84.692	
39.00	-60.354	-97.298	
40.00	-66.199	-84.449	
41.00	-61.635	-84.724	
42.00	-66.702	-79.601	
43.00	-70.649	-73.625	
44.00	-72.993	-23.291	
45.00	-69.979	29.321	
46.00	-64.222	45.933	
47.00	-80.363	104.119	
48.00	-57.737	121.964	
49.00	-66.402	134.079	
50.00	-60.341	143.389	
51.00	-63.256	167.281	
52.00	-65.570	-162.437	
53.00	-62.716	-174.445	
54.00	-60.034	-150.011	
55.00	-73.376	136.270	
56.00	-59.069	-107.931	
57.00	-59.417	-164.913	
58.00	-60.234	-78.557	
59.00	-76.210	-120.906	
60.00	-62.559	-42.073	
61.00	-67.492	71.798	
62.00	-72.784	-114.006	
63.00	-63.021	12.716	
64.00	-60.757	98.670	
65.00	-58.623	59.692	
66.00	-65.807	174.377	
67.00	-64.697	81.530	
68.00	-57.886	131.479	
69.00	-63.099	170.031	
70.00	-62.960	-173.832	
71.00	-70.126	124.621	
72.00	-69.624	136.728	
73.00	-64.548	59.393	
74.00	-64.192	-176.043	
75.00	-69.452	155.682	
76.00	-80.333	-30.178	
77.00	-62.056	-148.480	
78.00	-68.264	-68.460	
79.00	-66.049	157.972	
80.00	-64.069	157.626	
81.00	-59.943	-162.464	
82.00	-67.784	-85.963	
83.00	-61.951	-10.098	
84.00	-69.152	-166.872	
85.00	-61.470	-174.190	
86.00	-65.249	-9.003	
87.00	-62.927	-33.182	
88.00	-67.710	19.714	
89.00	-60.959	51.001	
90.00	-65.117	-85.894	
91.00	-66.168	-162.806	
92.00	-61.756	54.314	
93.00	-62.140	50.519	
94.00	-70.590	69.882	
95.00	-63.607	-96.038	
96.00	-66.637	42.741	
97.00	-64.568	17.060	
98.00	-62.770	106.358	
99.00	-76.594	61.079	
100.00	-67.132	90.582	
101.00	-61.545	-149.599	
102.00	-68.463	-152.595	
103.00	-65.930	-83.419	
104.00	-65.965	-59.176	
105.00	-69.959	-61.132	
106.00	-68.297	66.354	
107.00	-57.638	18.170	
108.00	-60.990	33.880	
109.00	-60.171	55.434	
110.00	-66.647	56.458	
111.00	-57.043	87.487	
112.00	-63.320	79.129	
113.00	-58.348	130.741	
114.00	-58.414	125.270	
115.00	-58.198	144.001	
116.00	-56.063	179.097	
117.00	-57.920	-157.295	
118.00	-59.479	-159.972	
119.00	-55.498	-131.429	
120.00	-57.070	-118.255	
121.00	-57.760	-92.164	
122.00	-58.784	-61.014	
123.00	-57.956	-47.768	
124.00	-58.394	-26.503	
125.00	-58.180	-3.004	
126.00	-58.322	10.409	
127.00	-60.060	31.494	
128.00	-57.406	38.840	
129.00	-57.058	58.175	
130.00	-60.106	71.304	
131.00	-57.730	76.047	
132.00	-59.076	86.790	
133.00	-59.725	106.828	
134.00	-58.510	123.721	
135.00	-58.681	118.177	
136.00	-58.479	137.610	
137.00	-59.125	175.416	
138.00	-59.518	177.547	
139.00	-58.436	177.258	
140.00	-58.616	-170.778	
141.00	-57.364	-166.172	
142.00	-57.392	-141.918	
143.00	-56.154	-129.822	
144.00	-54.970	-102.414	
145.00	-54.495	-89.558	
146.00	-54.219	-85.590	
147.00	-52.985	-74.643	
148.00	-53.388	-54.027	
149.00	-52.677	-46.439	
150.00	-52.748	-22.714	
151.00	-52.276	-13.078	
152.00	-52.938	3.122	
153.00	-52.576	13.210	
154.00	-52.134	29.273	
155.00	-51.552	48.186	
156.00	-51.298	64.297	
157.00	-50.546	82.383	
158.00	-50.969	94.675	
159.00	-50.084	107.418	
160.00	-49.428	126.052	
161.00	-49.215	136.228	
162.00	-48.409	151.112	
163.00	-48.103	162.194	
164.00	-47.807	173.641	
165.00	-47.861	-174.168	
166.00	-47.009	-165.016	
167.00	-46.841	-153.451	
168.00	-46.594	-142.452	
169.00	-46.171	-133.058	
170.00	-45.844	-125.248	
171.00	-45.810	-114.161	
172.00	-45.358	-107.642	
173.00	-45.083	-100.242	
174.00	-44.887	-94.984	
175.00	-44.750	-91.270	
176.00	-44.849	-87.598	
177.00	-44.851	-86.636	
178.00	-44.702	-76.419	
179.00	-44.712	-72.982	
180.00	-44.888	-67.024	
181.00	-45.116	-62.303	
182.00	-45.252	-55.401	
183.00	-45.273	-54.521	
184.00	-45.542	-47.789	
185.00	-45.796	-50.176	
186.00	-46.123	-42.687	
187.00	-46.466	-35.127	
188.00	-47.048	-35.044	
189.00	-47.188	-27.580	
190.00	-47.491	-24.537	
191.00	-47.843	-24.278	
192.00	-48.152	-28.753	
193.00	-48.394	-21.231	
194.00	-48.912	-17.717	
195.00	-49.077	-14.251	
196.00	-48.667	-20.051	
197.00	-48.986	-12.609	
198.00	-48.971	-17.749	
199.00	-48.846	-6.341	
200.00	-48.962	-21.715	
201.00	-48.808	-13.989	
202.00	-48.565	-18.977	
203.00	-48.644	-27.653	
204.00	-48.912	-20.779	
205.00	-48.752	-29.327	
206.00	-49.145	-33.315	
207.00	-48.919	-37.630	
208.00	-49.374	-44.277	
209.00	-49.382	-48.632	
210.00	-50.025	-57.844	
211.00	-49.924	-65.960	
212.00	-50.545	-73.869	
213.00	-51.158	-85.647	
214.00	-51.341	-92.057	
215.00	-52.592	-108.428	
216.00	-53.314	-112.573	
217.00	-54.096	-124.749	
218.00	-54.751	-135.668	
219.00	-55.631	-144.901	
220.00	-56.798	-149.351	
221.00	-58.663	-168.874	
222.00	-61.096	-172.548	
223.00	-61.422	-160.694	
224.00	-63.591	-164.314	
225.00	-63.668	-157.577	
226.00	-67.136	-150.643	
227.00	-66.508	-138.368	
228.00	-65.425	-139.250	
229.00	-63.467	-159.600	
230.00	-62.137	-150.687	
231.00	-57.829	-169.937	
232.00	-58.124	-179.177	
233.00	-57.846	165.170	
234.00	-56.840	151.938	
235.00	-55.983	138.032	
236.00	-54.863	124.779	
237.00	-54.827	109.945	
238.00	-55.514	93.470	
239.00	-54.150	70.598	
240.00	-54.851	62.660	
241.00	-54.856	39.864	
242.00	-55.126	18.545	
243.00	-55.394	5.143	
244.00	-55.975	-20.059	
245.00	-55.180	-37.422	
246.00	-55.041	-65.399	
247.00	-55.709	-84.117	
248.00	-55.607	-99.621	
249.00	-55.931	-122.205	
250.00	-55.940	-142.362	
251.00	-55.690	-165.322	
252.00	-55.912	166.321	
253.00	-56.324	156.618	
254.00	-56.602	126.202	
255.00	-57.232	105.499	
256.00	-57.759	87.535	
257.00	-59.752	60.975	
258.00	-59.449	40.296	
259.00	-60.801	12.081	
260.00	-62.401	-13.530	
261.00	-62.898	-56.107	
262.00	-62.721	-84.334	
263.00	-61.444	-109.108	
264.00	-60.058	-148.049	
265.00	-58.951	-166.408	
266.00	-58.759	170.882	
267.00	-58.088	153.260	
268.00	-59.192	137.419	
269.00	-60.116	118.107	
270.00	-62.939	95.859	
271.00	-64.805	74.853	
272.00	-68.554	29.381	
273.00	-68.632	-0.397	
274.00	-71.577	-43.580	
275.00	-69.372	-60.138	
276.00	-68.739	-104.776	
277.00	-68.522	-173.761	
278.00	-65.732	177.512	
279.00	-63.867	154.192	
280.00	-61.954	124.850	
281.00	-60.659	114.675	
282.00	-61.552	99.687	
283.00	-61.060	75.014	
284.00	-61.898	52.279	
285.00	-62.170	-7.567	
286.00	-61.128	-63.614	
287.00	-63.657	-61.719	
288.00	-62.940	-120.972	
289.00	-63.505	-123.309	
290.00	-62.814	-158.705	
291.00	-62.288	-171.323	
292.00	-61.342	137.876	
293.00	-62.201	140.512	
294.00	-60.825	118.020	
295.00	-62.450	92.577	
296.00	-61.922	69.092	
297.00	-63.464	43.667	
298.00	-63.214	24.097	
299.00	-64.520	-5.277	
300.00	-63.527	-46.725	
301.00	-63.333	-64.871	
302.00	-63.636	-98.428	
303.00	-62.409	-108.776	
304.00	-62.804	-140.714	
305.00	-63.275	-162.965	
306.00	-61.064	174.623	
307.00	-61.630	156.102	
308.00	-62.203	132.257	
309.00	-61.865	107.024	
310.00	-61.632	89.868	
311.00	-62.207	68.393	
312.00	-63.813	61.829	
313.00	-65.966	42.290	
314.00	-70.250	27.403	
315.00	-72.043	-7.957	
316.00	-82.447	-83.516	
317.00	-72.854	-156.103	
318.00	-67.277	-165.251	
319.00	-66.250	179.881	
320.00	-64.054	166.750	
321.00	-62.758	165.921	
322.00	-61.980	152.620	
323.00	-62.201	140.036	
324.00	-61.269	137.743	
325.00	-61.247	123.872	
326.00	-61.566	125.329	
327.00	-61.695	110.479	
328.00	-62.439	115.825	
329.00	-63.580	109.392	
330.00	-64.457	107.684	
331.00	-65.451	103.997	
332.00	-65.997	110.392	
333.00	-65.646	110.839	
334.00	-66.374	124.071	
335.00	-68.105	131.758	
336.00	-67.046	132.611	
337.00	-67.390	138.624	
338.00	-68.546	122.743	
339.00	-71.662	149.682	
340.00	-73.013	106.676	
341.00	-74.098	101.635	
342.00	-75.937	85.739	
343.00	-70.347	68.038	
344.00	-73.535	41.436	
345.00	-73.055	21.729	
346.00	-71.920	19.365	
347.00	-71.420	22.592	
348.00	-68.802	21.191	
349.00	-69.550	10.508	
350.00	-70.561	20.542	
351.00	-72.509	27.452	
352.00	-71.415	19.605	
353.00	-72.828	28.572	
354.00	-72.852	47.567	
355.00	-72.187	32.104	
356.00	-76.132	11.216	
357.00	-77.242	85.820	
358.00	-74.207	11.291	
359.00	-72.189	46.941	
