Test Title:	Alpha Wireless Indoor Range						
Date:	02/11/2017						
Time:	16:35						
Operator Name:	FL						
Comment:	Version 2 Run 2
Cable length changed						
Caib. File Name:	C:\Program Files\Midas 2.01d\Calibration Files\test sigma 180900.cal						
							
[Scan Axis] Name: 	Azimuth  [deg]Start: 	0.000000	Stop	359.000000	Increment	1.000000[Step Axis] Name: 	Start: 	0.000000	Stop	0.000000	Increment	0.000000[Tert] Name: 	None [Forth] Name: 	None  [ Freq.]  (List) 	MHz.	1694.000000	1710.000000	1800.000000	1850.000000	1950.000000	2050.000000	2170.000000	2300.000000	2350.000000	2400.000000	2450.000000	2496.000000	2550.000000	2600.000000	2650.000000	2700.000000
 [Switch]  	None [Channel]  	test			 [ Beam] 	None			
Database:			
First Question			
2nd			
3rd			
4th			
			
Frequency	1694.00	MHz	
Channel	test		
Scan Axis name	Azimuth  [deg]		
Scan Axis	Amplitude	Phase	
			
0.00	-54.433	132.434	
1.00	-54.331	135.073	
2.00	-54.466	144.719	
3.00	-55.222	155.167	
4.00	-55.854	172.858	
5.00	-55.841	-177.206	
6.00	-55.629	-166.182	
7.00	-55.129	-158.552	
8.00	-54.697	-145.981	
9.00	-55.020	-142.818	
10.00	-55.385	-137.260	
11.00	-56.431	-142.343	
12.00	-57.434	-147.345	
13.00	-59.377	-155.325	
14.00	-61.954	-177.506	
15.00	-63.521	155.015	
16.00	-62.284	130.034	
17.00	-61.472	125.049	
18.00	-62.481	120.704	
19.00	-64.783	118.780	
20.00	-73.152	116.720	
21.00	-73.265	-22.348	
22.00	-65.634	-58.987	
23.00	-60.713	-58.564	
24.00	-57.656	-51.808	
25.00	-56.855	-55.541	
26.00	-56.304	-52.141	
27.00	-55.937	-47.292	
28.00	-55.899	-48.011	
29.00	-55.746	-44.991	
30.00	-57.094	-41.786	
31.00	-58.766	-42.747	
32.00	-60.449	-31.573	
33.00	-63.422	-55.060	
34.00	-65.472	-57.602	
35.00	-65.646	-105.825	
36.00	-64.014	-118.526	
37.00	-61.097	-123.296	
38.00	-60.077	-126.227	
39.00	-59.734	-115.448	
40.00	-59.866	-108.801	
41.00	-61.693	-109.792	
42.00	-64.003	-94.659	
43.00	-67.603	-63.820	
44.00	-71.489	-10.845	
45.00	-67.370	105.308	
46.00	-65.151	100.065	
47.00	-68.445	108.138	
48.00	-63.800	127.090	
49.00	-65.567	146.575	
50.00	-64.228	-179.339	
51.00	-66.626	-158.892	
52.00	-65.735	-129.660	
53.00	-62.935	-85.312	
54.00	-61.968	-67.642	
55.00	-60.339	-48.271	
56.00	-59.593	-36.871	
57.00	-59.609	-29.209	
58.00	-61.748	-27.630	
59.00	-60.735	-29.615	
60.00	-61.395	-7.197	
61.00	-70.218	-47.838	
62.00	-70.034	-75.068	
63.00	-68.498	-117.902	
64.00	-64.650	-121.855	
65.00	-61.382	-127.738	
66.00	-61.143	-121.508	
67.00	-61.025	-123.336	
68.00	-61.459	-125.753	
69.00	-63.225	-127.616	
70.00	-65.070	-132.755	
71.00	-67.589	-159.110	
72.00	-68.251	157.195	
73.00	-66.376	142.846	
74.00	-63.047	134.273	
75.00	-61.756	134.660	
76.00	-61.702	132.718	
77.00	-61.307	135.066	
78.00	-61.496	149.033	
79.00	-63.287	146.243	
80.00	-64.898	148.412	
81.00	-69.738	172.417	
82.00	-77.644	-148.838	
83.00	-77.145	-58.225	
84.00	-74.731	-58.466	
85.00	-69.312	-16.583	
86.00	-72.537	75.412	
87.00	-75.328	33.479	
88.00	-66.195	111.689	
89.00	-64.060	108.909	
90.00	-60.279	129.879	
91.00	-57.758	136.631	
92.00	-56.330	143.646	
93.00	-55.050	152.001	
94.00	-54.788	153.013	
95.00	-52.902	160.606	
96.00	-53.045	168.655	
97.00	-52.795	-178.778	
98.00	-53.292	-167.288	
99.00	-52.821	-160.840	
100.00	-53.190	-147.720	
101.00	-54.133	-131.978	
102.00	-54.644	-113.959	
103.00	-55.105	-105.039	
104.00	-55.372	-84.096	
105.00	-56.944	-67.232	
106.00	-56.154	-43.561	
107.00	-55.473	-23.925	
108.00	-54.239	-5.519	
109.00	-52.971	13.898	
110.00	-51.547	24.434	
111.00	-51.050	38.429	
112.00	-50.259	46.149	
113.00	-49.867	55.057	
114.00	-49.710	66.201	
115.00	-49.345	73.771	
116.00	-49.564	85.249	
117.00	-50.074	95.209	
118.00	-50.923	109.312	
119.00	-51.883	118.491	
120.00	-53.383	137.670	
121.00	-54.311	157.080	
122.00	-55.397	-176.258	
123.00	-55.859	-148.868	
124.00	-55.011	-120.150	
125.00	-53.204	-99.086	
126.00	-51.863	-75.422	
127.00	-50.100	-60.516	
128.00	-48.916	-47.077	
129.00	-47.645	-36.299	
130.00	-46.225	-23.721	
131.00	-45.260	-15.299	
132.00	-44.538	-6.120	
133.00	-43.646	2.071	
134.00	-43.143	9.749	
135.00	-42.708	16.159	
136.00	-42.413	21.932	
137.00	-42.253	27.495	
138.00	-42.267	33.153	
139.00	-42.421	37.529	
140.00	-42.984	42.256	
141.00	-43.718	47.545	
142.00	-44.946	49.159	
143.00	-46.572	54.116	
144.00	-48.716	58.279	
145.00	-52.052	62.083	
146.00	-58.191	67.877	
147.00	-80.924	112.330	
148.00	-59.568	-121.025	
149.00	-54.488	-114.211	
150.00	-51.085	-114.912	
151.00	-49.313	-115.174	
152.00	-48.367	-118.025	
153.00	-47.219	-121.061	
154.00	-46.528	-126.359	
155.00	-46.255	-131.083	
156.00	-45.874	-136.799	
157.00	-45.870	-143.021	
158.00	-46.268	-146.304	
159.00	-47.411	-150.953	
160.00	-49.668	-156.087	
161.00	-53.733	-170.465	
162.00	-62.158	119.258	
163.00	-52.220	54.028	
164.00	-46.204	41.412	
165.00	-42.470	37.733	
166.00	-39.965	35.205	
167.00	-38.123	30.833	
168.00	-36.781	28.306	
169.00	-35.980	24.177	
170.00	-35.683	17.684	
171.00	-35.572	9.755	
172.00	-35.627	-2.762	
173.00	-35.565	-19.611	
174.00	-34.757	-38.534	
175.00	-33.368	-56.696	
176.00	-31.509	-71.482	
177.00	-29.649	-82.913	
178.00	-28.047	-91.035	
179.00	-26.614	-97.949	
180.00	-25.489	-103.606	
181.00	-24.674	-108.584	
182.00	-24.044	-113.322	
183.00	-23.751	-117.931	
184.00	-23.697	-122.753	
185.00	-23.860	-127.460	
186.00	-24.327	-132.896	
187.00	-25.009	-138.772	
188.00	-26.010	-145.224	
189.00	-27.294	-152.928	
190.00	-28.780	-162.117	
191.00	-30.674	-173.871	
192.00	-32.716	172.519	
193.00	-34.678	153.232	
194.00	-36.346	130.645	
195.00	-37.450	105.174	
196.00	-37.775	83.435	
197.00	-37.898	62.130	
198.00	-38.122	45.576	
199.00	-38.625	31.285	
200.00	-39.550	16.617	
201.00	-40.790	2.116	
202.00	-42.389	-12.896	
203.00	-44.653	-27.841	
204.00	-46.882	-48.341	
205.00	-50.204	-75.193	
206.00	-52.836	-106.118	
207.00	-53.622	-143.033	
208.00	-53.479	-172.642	
209.00	-53.048	163.149	
210.00	-53.237	153.790	
211.00	-54.428	146.549	
212.00	-58.443	152.490	
213.00	-59.185	155.129	
214.00	-61.866	-164.973	
215.00	-60.588	-153.450	
216.00	-56.118	-150.427	
217.00	-55.160	-166.689	
218.00	-54.342	-177.528	
219.00	-53.510	160.093	
220.00	-52.448	140.574	
221.00	-51.372	116.920	
222.00	-49.813	89.459	
223.00	-48.525	71.332	
224.00	-46.896	52.448	
225.00	-45.726	37.262	
226.00	-44.684	21.690	
227.00	-43.861	7.568	
228.00	-43.315	-6.448	
229.00	-42.931	-19.729	
230.00	-42.548	-33.203	
231.00	-42.777	-45.184	
232.00	-42.896	-60.695	
233.00	-43.186	-73.169	
234.00	-43.395	-87.633	
235.00	-43.609	-98.341	
236.00	-43.978	-113.094	
237.00	-44.150	-127.005	
238.00	-44.493	-138.400	
239.00	-44.864	-150.091	
240.00	-45.301	-160.790	
241.00	-45.653	-168.339	
242.00	-46.225	-178.100	
243.00	-47.003	172.933	
244.00	-47.463	167.410	
245.00	-48.550	158.541	
246.00	-48.942	157.236	
247.00	-50.623	144.267	
248.00	-51.406	135.528	
249.00	-52.677	129.065	
250.00	-54.475	126.005	
251.00	-56.382	111.734	
252.00	-58.482	101.346	
253.00	-62.314	81.639	
254.00	-65.091	52.245	
255.00	-64.068	-0.802	
256.00	-61.542	-29.859	
257.00	-59.413	-55.842	
258.00	-57.863	-76.762	
259.00	-54.456	-78.759	
260.00	-55.129	-109.509	
261.00	-58.077	-111.525	
262.00	-55.719	-123.806	
263.00	-54.647	-133.239	
264.00	-54.674	-151.381	
265.00	-54.562	-154.738	
266.00	-57.194	-150.297	
267.00	-54.374	175.611	
268.00	-53.140	165.489	
269.00	-52.792	156.624	
270.00	-52.449	148.109	
271.00	-52.847	141.089	
272.00	-53.127	133.130	
273.00	-53.496	127.445	
274.00	-53.966	118.801	
275.00	-54.698	112.366	
276.00	-55.302	105.124	
277.00	-56.416	99.308	
278.00	-57.242	89.274	
279.00	-58.516	83.894	
280.00	-59.683	83.417	
281.00	-60.711	69.533	
282.00	-62.219	66.283	
283.00	-62.404	51.317	
284.00	-63.247	41.158	
285.00	-62.606	35.383	
286.00	-64.661	52.182	
287.00	-63.647	27.857	
288.00	-69.015	71.225	
289.00	-66.834	26.870	
290.00	-75.125	-13.615	
291.00	-63.043	28.956	
292.00	-68.092	107.902	
293.00	-57.177	77.848	
294.00	-59.346	45.387	
295.00	-57.979	27.686	
296.00	-70.336	29.883	
297.00	-61.772	56.575	
298.00	-60.380	32.264	
299.00	-61.334	2.442	
300.00	-61.635	21.315	
301.00	-59.726	17.695	
302.00	-61.396	22.911	
303.00	-60.380	33.240	
304.00	-58.075	46.958	
305.00	-55.945	28.300	
306.00	-58.153	36.190	
307.00	-59.415	27.813	
308.00	-59.954	22.633	
309.00	-60.668	15.437	
310.00	-61.171	13.116	
311.00	-63.336	9.932	
312.00	-63.330	3.821	
313.00	-62.744	-57.732	
314.00	-73.402	-126.633	
315.00	-63.757	-157.060	
316.00	-64.191	-138.386	
317.00	-61.029	-171.744	
318.00	-60.007	178.564	
319.00	-59.340	172.241	
320.00	-57.884	165.549	
321.00	-57.259	150.172	
322.00	-57.395	139.795	
323.00	-57.521	128.276	
324.00	-57.515	119.660	
325.00	-57.687	107.617	
326.00	-57.706	97.940	
327.00	-58.619	87.721	
328.00	-58.359	69.804	
329.00	-60.543	71.140	
330.00	-62.826	66.289	
331.00	-64.296	66.107	
332.00	-69.869	26.188	
333.00	-77.553	-24.884	
334.00	-67.586	-115.232	
335.00	-62.846	-126.797	
336.00	-59.596	-134.043	
337.00	-56.841	-143.120	
338.00	-55.782	-150.552	
339.00	-55.210	-156.530	
340.00	-54.238	-162.200	
341.00	-54.275	-167.090	
342.00	-54.203	-177.413	
343.00	-55.485	172.784	
344.00	-56.308	158.774	
345.00	-56.489	154.497	
346.00	-58.221	139.984	
347.00	-60.406	121.120	
348.00	-59.974	106.360	
349.00	-59.904	95.266	
350.00	-60.492	82.567	
351.00	-59.613	73.310	
352.00	-59.827	75.645	
353.00	-60.229	84.335	
354.00	-58.631	83.725	
355.00	-57.146	99.265	
356.00	-56.353	106.548	
357.00	-55.446	113.242	
358.00	-54.655	118.718	
359.00	-54.013	121.711	
Frequency	1710.00	MHz	
Channel	test		
Scan Axis name	Azimuth  [deg]		
Scan Axis	Amplitude	Phase	
			
0.00	-54.070	116.942	
1.00	-55.510	114.309	
2.00	-54.067	112.571	
3.00	-55.852	118.140	
4.00	-56.230	134.108	
5.00	-55.421	138.766	
6.00	-54.684	156.390	
7.00	-55.388	152.952	
8.00	-54.681	161.569	
9.00	-53.777	167.964	
10.00	-53.313	172.547	
11.00	-53.928	172.359	
12.00	-54.465	162.483	
13.00	-56.198	163.021	
14.00	-58.284	153.689	
15.00	-60.372	123.131	
16.00	-59.868	103.629	
17.00	-59.572	82.217	
18.00	-57.115	72.630	
19.00	-56.849	64.587	
20.00	-58.161	62.667	
21.00	-57.924	52.586	
22.00	-58.743	49.285	
23.00	-60.073	43.161	
24.00	-60.223	27.626	
25.00	-64.715	18.610	
26.00	-65.192	-1.267	
27.00	-70.306	-26.695	
28.00	-65.935	-50.542	
29.00	-63.855	-68.054	
30.00	-64.552	-86.685	
31.00	-64.866	-100.592	
32.00	-64.250	-112.425	
33.00	-63.576	-133.604	
34.00	-64.753	-151.677	
35.00	-63.606	-152.602	
36.00	-62.575	-175.189	
37.00	-62.219	174.436	
38.00	-59.217	173.086	
39.00	-59.827	172.155	
40.00	-60.602	169.272	
41.00	-60.876	168.681	
42.00	-60.762	161.603	
43.00	-60.654	160.046	
44.00	-61.980	154.375	
45.00	-59.730	132.850	
46.00	-60.241	144.455	
47.00	-58.674	146.296	
48.00	-58.711	149.595	
49.00	-58.281	158.526	
50.00	-57.482	173.577	
51.00	-59.069	178.668	
52.00	-58.656	-161.998	
53.00	-60.962	-142.769	
54.00	-61.951	-126.489	
55.00	-59.821	-85.489	
56.00	-60.415	-60.383	
57.00	-59.297	-46.194	
58.00	-57.220	-25.584	
59.00	-55.603	-17.173	
60.00	-54.050	-9.711	
61.00	-54.242	-0.039	
62.00	-55.017	6.522	
63.00	-54.730	2.831	
64.00	-54.894	0.178	
65.00	-55.368	2.144	
66.00	-55.601	-4.103	
67.00	-55.160	-7.735	
68.00	-55.021	-12.658	
69.00	-54.294	-15.585	
70.00	-53.730	-15.624	
71.00	-53.371	-13.292	
72.00	-52.940	-10.395	
73.00	-52.140	-9.337	
74.00	-52.082	-2.576	
75.00	-51.741	0.185	
76.00	-51.713	5.972	
77.00	-51.883	15.026	
78.00	-52.223	19.474	
79.00	-51.940	21.878	
80.00	-52.551	28.146	
81.00	-53.337	34.495	
82.00	-54.118	33.827	
83.00	-53.957	38.812	
84.00	-55.119	42.687	
85.00	-55.326	47.065	
86.00	-57.788	55.527	
87.00	-57.337	50.370	
88.00	-58.468	66.166	
89.00	-59.431	58.096	
90.00	-59.920	55.204	
91.00	-60.403	54.473	
92.00	-62.780	69.261	
93.00	-62.487	60.444	
94.00	-62.659	64.758	
95.00	-66.712	56.115	
96.00	-67.149	77.898	
97.00	-65.994	91.056	
98.00	-68.727	99.346	
99.00	-69.300	141.022	
100.00	-67.040	156.332	
101.00	-64.330	-169.052	
102.00	-62.520	-152.676	
103.00	-59.454	-129.912	
104.00	-58.714	-123.591	
105.00	-57.521	-113.466	
106.00	-55.660	-103.358	
107.00	-54.192	-88.989	
108.00	-52.826	-84.453	
109.00	-51.517	-73.690	
110.00	-50.397	-67.574	
111.00	-49.518	-58.593	
112.00	-48.791	-51.079	
113.00	-48.254	-43.636	
114.00	-47.940	-36.643	
115.00	-47.834	-28.878	
116.00	-48.069	-20.569	
117.00	-48.427	-11.186	
118.00	-48.893	-0.863	
119.00	-49.821	10.111	
120.00	-51.036	23.333	
121.00	-51.731	41.568	
122.00	-52.520	61.715	
123.00	-52.781	83.620	
124.00	-52.678	104.739	
125.00	-52.331	124.168	
126.00	-52.147	141.906	
127.00	-51.961	159.465	
128.00	-51.812	177.940	
129.00	-51.378	-160.054	
130.00	-50.727	-140.821	
131.00	-50.370	-118.876	
132.00	-48.903	-100.801	
133.00	-47.716	-85.948	
134.00	-46.538	-72.021	
135.00	-45.604	-60.789	
136.00	-44.766	-50.715	
137.00	-44.232	-41.703	
138.00	-43.912	-33.568	
139.00	-43.991	-24.520	
140.00	-44.148	-15.910	
141.00	-44.533	-8.871	
142.00	-45.344	-0.955	
143.00	-46.041	7.357	
144.00	-46.834	15.154	
145.00	-47.867	23.261	
146.00	-48.945	28.916	
147.00	-50.109	35.203	
148.00	-50.731	40.293	
149.00	-51.520	48.156	
150.00	-51.773	56.155	
151.00	-51.470	63.771	
152.00	-51.185	73.709	
153.00	-50.186	85.671	
154.00	-49.039	97.025	
155.00	-47.938	108.726	
156.00	-47.025	117.876	
157.00	-46.334	129.015	
158.00	-45.977	137.969	
159.00	-46.233	150.026	
160.00	-46.937	162.901	
161.00	-48.110	-177.605	
162.00	-49.181	-149.705	
163.00	-48.970	-116.872	
164.00	-46.839	-87.066	
165.00	-44.420	-67.868	
166.00	-42.403	-55.121	
167.00	-41.144	-46.501	
168.00	-40.643	-40.435	
169.00	-41.020	-36.008	
170.00	-42.679	-34.980	
171.00	-46.651	-39.808	
172.00	-54.787	-103.447	
173.00	-44.794	-174.388	
174.00	-38.084	178.527	
175.00	-33.921	177.149	
176.00	-30.926	177.223	
177.00	-28.684	177.290	
178.00	-26.952	177.683	
179.00	-25.623	178.279	
180.00	-24.648	178.447	
181.00	-23.992	178.723	
182.00	-23.609	178.801	
183.00	-23.562	178.439	
184.00	-23.813	178.074	
185.00	-24.351	177.453	
186.00	-25.240	176.442	
187.00	-26.525	175.502	
188.00	-28.192	174.116	
189.00	-30.494	172.243	
190.00	-33.659	170.792	
191.00	-38.152	168.500	
192.00	-46.217	164.140	
193.00	-57.450	0.881	
194.00	-44.523	-13.814	
195.00	-40.918	-17.519	
196.00	-39.753	-20.589	
197.00	-39.675	-22.524	
198.00	-40.515	-23.932	
199.00	-42.604	-24.099	
200.00	-45.825	-18.802	
201.00	-50.671	4.157	
202.00	-51.531	65.284	
203.00	-47.010	89.991	
204.00	-43.860	95.064	
205.00	-42.123	94.239	
206.00	-41.131	92.967	
207.00	-41.026	89.576	
208.00	-41.578	87.522	
209.00	-42.862	83.877	
210.00	-44.705	82.895	
211.00	-47.834	85.538	
212.00	-52.068	99.165	
213.00	-55.345	139.932	
214.00	-52.310	177.203	
215.00	-49.498	-172.854	
216.00	-48.501	-168.950	
217.00	-47.726	-175.781	
218.00	-48.288	177.271	
219.00	-49.313	172.471	
220.00	-51.846	165.554	
221.00	-56.622	154.619	
222.00	-70.431	133.503	
223.00	-59.999	-28.607	
224.00	-53.589	-45.083	
225.00	-49.890	-54.832	
226.00	-47.727	-65.882	
227.00	-46.614	-76.504	
228.00	-45.742	-89.122	
229.00	-45.548	-100.981	
230.00	-44.953	-114.996	
231.00	-45.313	-129.342	
232.00	-45.640	-142.560	
233.00	-45.422	-162.394	
234.00	-46.059	-178.430	
235.00	-46.000	166.215	
236.00	-46.506	148.532	
237.00	-46.628	131.976	
238.00	-46.942	117.538	
239.00	-47.286	102.563	
240.00	-47.622	86.943	
241.00	-48.136	75.514	
242.00	-48.841	61.844	
243.00	-49.847	47.606	
244.00	-50.794	32.406	
245.00	-51.146	20.775	
246.00	-54.246	2.166	
247.00	-53.445	-16.676	
248.00	-56.058	-22.219	
249.00	-56.382	-33.703	
250.00	-58.195	-57.721	
251.00	-58.091	-73.049	
252.00	-59.006	-88.352	
253.00	-59.664	-98.817	
254.00	-59.905	-112.999	
255.00	-60.033	-113.298	
256.00	-58.691	-124.669	
257.00	-59.652	-125.842	
258.00	-58.423	-132.760	
259.00	-62.359	-133.436	
260.00	-66.335	-138.084	
261.00	-65.514	123.065	
262.00	-78.261	134.051	
263.00	-81.347	116.187	
264.00	-65.546	67.274	
265.00	-63.605	42.798	
266.00	-56.263	56.197	
267.00	-57.355	26.746	
268.00	-56.712	25.837	
269.00	-55.806	20.148	
270.00	-54.761	12.405	
271.00	-54.594	12.035	
272.00	-54.128	5.913	
273.00	-53.994	1.499	
274.00	-54.169	-2.982	
275.00	-53.902	-4.853	
276.00	-54.668	-8.796	
277.00	-54.429	-14.286	
278.00	-54.823	-14.306	
279.00	-54.449	-17.623	
280.00	-54.547	-19.236	
281.00	-54.398	-23.441	
282.00	-54.159	-21.820	
283.00	-54.391	-27.873	
284.00	-53.844	-30.468	
285.00	-53.557	-35.813	
286.00	-53.945	-45.399	
287.00	-53.106	-48.923	
288.00	-55.373	-37.242	
289.00	-52.348	-42.872	
290.00	-52.682	-73.646	
291.00	-52.722	-68.702	
292.00	-55.586	-71.099	
293.00	-57.104	-70.932	
294.00	-56.770	-73.340	
295.00	-56.155	-64.928	
296.00	-55.742	-82.056	
297.00	-57.909	-60.076	
298.00	-61.429	-76.750	
299.00	-58.008	-98.604	
300.00	-60.718	-82.358	
301.00	-64.511	-81.693	
302.00	-64.849	-101.866	
303.00	-62.999	-95.187	
304.00	-69.742	-92.354	
305.00	-68.432	-99.501	
306.00	-68.793	-104.671	
307.00	-70.689	-101.615	
308.00	-70.357	-84.935	
309.00	-67.450	-73.138	
310.00	-64.287	-65.456	
311.00	-59.991	-59.939	
312.00	-58.665	-67.080	
313.00	-56.541	-74.383	
314.00	-55.996	-74.676	
315.00	-56.436	-92.960	
316.00	-55.954	-87.835	
317.00	-56.945	-95.819	
318.00	-57.206	-105.092	
319.00	-59.448	-128.099	
320.00	-57.933	-126.612	
321.00	-66.541	-142.498	
322.00	-69.221	179.269	
323.00	-66.957	98.518	
324.00	-62.463	67.255	
325.00	-58.574	50.336	
326.00	-56.252	44.213	
327.00	-54.597	30.994	
328.00	-52.432	22.036	
329.00	-51.677	17.626	
330.00	-51.702	8.688	
331.00	-51.316	0.628	
332.00	-50.889	-10.608	
333.00	-50.290	-21.330	
334.00	-52.672	-28.749	
335.00	-51.555	-38.784	
336.00	-53.809	-48.234	
337.00	-57.215	-48.895	
338.00	-59.510	-65.968	
339.00	-61.362	-77.612	
340.00	-75.082	-83.155	
341.00	-67.418	-26.996	
342.00	-69.164	45.725	
343.00	-60.159	47.253	
344.00	-56.915	34.191	
345.00	-57.385	28.987	
346.00	-54.203	24.146	
347.00	-53.368	11.651	
348.00	-53.859	8.168	
349.00	-55.566	-8.990	
350.00	-55.228	-8.131	
351.00	-62.959	7.317	
352.00	-61.797	-44.656	
353.00	-62.445	-70.732	
354.00	-69.647	-72.487	
355.00	-77.385	-159.206	
356.00	-60.481	140.291	
357.00	-60.157	119.892	
358.00	-55.028	119.919	
359.00	-56.446	132.568	
Frequency	1800.00	MHz	
Channel	test		
Scan Axis name	Azimuth  [deg]		
Scan Axis	Amplitude	Phase	
			
0.00	-63.165	8.159	
1.00	-61.002	5.528	
2.00	-59.724	13.432	
3.00	-57.613	6.417	
4.00	-56.506	5.004	
5.00	-55.200	-1.329	
6.00	-55.505	-5.692	
7.00	-55.145	-22.847	
8.00	-57.559	-30.058	
9.00	-58.182	-57.373	
10.00	-59.700	-76.663	
11.00	-60.368	-93.915	
12.00	-60.712	-100.784	
13.00	-56.489	-116.504	
14.00	-59.632	-122.072	
15.00	-58.853	-123.376	
16.00	-58.955	-122.140	
17.00	-57.316	-118.014	
18.00	-58.212	-100.847	
19.00	-59.160	-90.149	
20.00	-61.390	-72.962	
21.00	-63.758	-40.417	
22.00	-63.398	-25.542	
23.00	-61.834	10.884	
24.00	-59.939	20.067	
25.00	-59.255	45.317	
26.00	-61.360	58.294	
27.00	-61.202	98.391	
28.00	-61.731	107.652	
29.00	-59.542	129.740	
30.00	-59.190	148.681	
31.00	-55.437	152.259	
32.00	-54.332	173.807	
33.00	-53.414	172.714	
34.00	-51.774	-178.299	
35.00	-51.358	-171.795	
36.00	-50.969	-170.530	
37.00	-50.202	-163.303	
38.00	-50.881	-160.785	
39.00	-50.890	-154.017	
40.00	-51.184	-146.827	
41.00	-52.288	-145.366	
42.00	-51.534	-141.582	
43.00	-53.592	-136.469	
44.00	-54.674	-122.043	
45.00	-55.742	-113.070	
46.00	-57.975	-99.574	
47.00	-59.950	-80.845	
48.00	-61.990	-61.868	
49.00	-61.705	-42.803	
50.00	-61.882	-18.717	
51.00	-60.495	-0.304	
52.00	-61.298	9.332	
53.00	-60.947	16.915	
54.00	-61.375	21.640	
55.00	-61.607	32.187	
56.00	-62.771	50.898	
57.00	-61.693	45.649	
58.00	-63.953	35.551	
59.00	-63.769	43.666	
60.00	-67.710	74.022	
61.00	-66.825	51.838	
62.00	-62.616	89.769	
63.00	-65.521	90.645	
64.00	-68.020	120.743	
65.00	-69.423	131.348	
66.00	-68.223	153.773	
67.00	-65.628	-155.418	
68.00	-63.784	-132.438	
69.00	-61.174	-113.882	
70.00	-59.745	-106.913	
71.00	-57.898	-93.950	
72.00	-56.597	-89.769	
73.00	-55.228	-78.982	
74.00	-54.488	-71.823	
75.00	-54.638	-65.327	
76.00	-54.367	-57.602	
77.00	-54.569	-53.924	
78.00	-55.344	-44.305	
79.00	-56.395	-34.758	
80.00	-57.242	-28.282	
81.00	-58.673	-23.538	
82.00	-60.979	-13.004	
83.00	-63.427	-23.450	
84.00	-64.554	-21.704	
85.00	-66.033	-22.141	
86.00	-68.373	-73.026	
87.00	-67.657	-85.385	
88.00	-64.411	-78.410	
89.00	-65.937	-91.268	
90.00	-63.644	-93.244	
91.00	-62.202	-73.082	
92.00	-64.743	-50.776	
93.00	-64.744	-50.575	
94.00	-64.429	-45.342	
95.00	-66.565	-38.732	
96.00	-71.023	-9.237	
97.00	-77.239	49.246	
98.00	-70.875	125.482	
99.00	-64.336	157.248	
100.00	-60.817	166.623	
101.00	-58.066	-172.020	
102.00	-55.889	-161.369	
103.00	-55.199	-153.778	
104.00	-54.178	-141.333	
105.00	-54.163	-128.457	
106.00	-53.332	-115.431	
107.00	-53.092	-103.675	
108.00	-54.208	-86.685	
109.00	-54.521	-71.885	
110.00	-54.570	-57.416	
111.00	-55.340	-37.690	
112.00	-56.471	-14.693	
113.00	-58.251	15.492	
114.00	-57.612	48.226	
115.00	-56.840	81.380	
116.00	-55.417	109.337	
117.00	-53.649	132.386	
118.00	-51.846	150.660	
119.00	-50.767	163.986	
120.00	-50.158	179.652	
121.00	-49.788	-167.870	
122.00	-49.934	-151.607	
123.00	-50.731	-138.100	
124.00	-52.176	-120.795	
125.00	-54.116	-95.423	
126.00	-56.923	-66.358	
127.00	-57.820	-22.420	
128.00	-56.308	19.484	
129.00	-54.412	51.673	
130.00	-51.737	76.897	
131.00	-50.378	103.076	
132.00	-48.884	125.029	
133.00	-47.609	145.683	
134.00	-46.545	167.206	
135.00	-45.538	-172.979	
136.00	-44.632	-153.945	
137.00	-43.606	-136.046	
138.00	-42.834	-118.194	
139.00	-42.102	-101.410	
140.00	-41.554	-85.506	
141.00	-41.242	-70.331	
142.00	-41.137	-55.355	
143.00	-41.214	-41.227	
144.00	-41.711	-27.680	
145.00	-42.430	-14.458	
146.00	-43.513	-0.557	
147.00	-45.138	14.891	
148.00	-47.349	31.830	
149.00	-50.285	55.157	
150.00	-52.963	88.873	
151.00	-54.336	136.558	
152.00	-52.372	173.735	
153.00	-50.187	-160.305	
154.00	-48.418	-145.145	
155.00	-48.025	-133.837	
156.00	-47.999	-124.468	
157.00	-48.679	-116.018	
158.00	-50.067	-109.527	
159.00	-52.328	-106.640	
160.00	-55.002	-104.206	
161.00	-59.053	-108.599	
162.00	-64.095	-112.574	
163.00	-70.319	-113.606	
164.00	-69.149	-52.343	
165.00	-60.840	-19.017	
166.00	-55.064	-18.932	
167.00	-50.801	-12.050	
168.00	-47.428	-9.215	
169.00	-45.266	-2.160	
170.00	-43.600	5.064	
171.00	-42.685	12.598	
172.00	-42.339	23.477	
173.00	-42.677	39.861	
174.00	-42.776	62.914	
175.00	-42.264	91.798	
176.00	-40.036	119.766	
177.00	-37.148	139.102	
178.00	-34.677	152.449	
179.00	-32.503	161.998	
180.00	-30.792	169.450	
181.00	-29.481	175.500	
182.00	-28.560	-179.974	
183.00	-28.006	-175.843	
184.00	-27.783	-171.828	
185.00	-27.892	-168.107	
186.00	-28.353	-164.600	
187.00	-29.175	-160.211	
188.00	-30.375	-155.742	
189.00	-31.914	-150.025	
190.00	-33.860	-141.876	
191.00	-36.029	-130.053	
192.00	-38.369	-113.659	
193.00	-40.025	-92.294	
194.00	-40.494	-69.112	
195.00	-40.572	-53.729	
196.00	-40.686	-41.542	
197.00	-41.088	-34.102	
198.00	-42.089	-27.226	
199.00	-43.792	-20.148	
200.00	-46.198	-10.533	
201.00	-49.385	7.194	
202.00	-51.810	35.281	
203.00	-52.379	67.157	
204.00	-50.780	88.119	
205.00	-50.387	98.801	
206.00	-51.304	109.749	
207.00	-53.248	123.318	
208.00	-56.627	147.360	
209.00	-57.598	-156.086	
210.00	-53.075	-121.942	
211.00	-49.302	-108.290	
212.00	-47.291	-101.529	
213.00	-45.899	-97.384	
214.00	-45.366	-92.829	
215.00	-45.134	-86.900	
216.00	-45.327	-81.488	
217.00	-45.878	-69.634	
218.00	-46.022	-56.879	
219.00	-45.945	-42.598	
220.00	-45.328	-30.448	
221.00	-44.435	-22.692	
222.00	-43.644	-17.612	
223.00	-43.172	-15.750	
224.00	-42.815	-14.953	
225.00	-42.713	-16.406	
226.00	-42.904	-19.159	
227.00	-43.277	-23.547	
228.00	-43.758	-27.897	
229.00	-44.250	-32.291	
230.00	-45.161	-39.596	
231.00	-46.134	-44.798	
232.00	-46.098	-52.204	
233.00	-47.081	-59.443	
234.00	-47.554	-60.723	
235.00	-47.538	-66.368	
236.00	-48.085	-67.932	
237.00	-47.902	-69.879	
238.00	-48.002	-68.302	
239.00	-47.939	-70.486	
240.00	-48.278	-70.558	
241.00	-47.695	-72.304	
242.00	-47.879	-75.631	
243.00	-47.680	-80.702	
244.00	-47.976	-86.065	
245.00	-48.245	-91.945	
246.00	-47.848	-104.446	
247.00	-47.287	-110.703	
248.00	-47.751	-123.796	
249.00	-47.018	-134.309	
250.00	-46.554	-145.444	
251.00	-46.184	-155.954	
252.00	-45.677	-167.398	
253.00	-45.411	-177.682	
254.00	-45.568	172.269	
255.00	-45.691	162.029	
256.00	-45.909	151.984	
257.00	-46.539	139.349	
258.00	-47.168	125.846	
259.00	-48.609	114.324	
260.00	-49.497	91.798	
261.00	-50.627	70.594	
262.00	-50.359	55.459	
263.00	-50.174	30.172	
264.00	-50.010	9.826	
265.00	-49.569	-5.030	
266.00	-47.566	-28.922	
267.00	-48.426	-43.196	
268.00	-48.129	-59.955	
269.00	-47.939	-72.744	
270.00	-47.804	-88.561	
271.00	-48.184	-103.035	
272.00	-48.254	-119.312	
273.00	-48.765	-132.302	
274.00	-49.093	-149.056	
275.00	-49.779	-168.420	
276.00	-50.415	172.063	
277.00	-50.999	152.840	
278.00	-50.703	130.269	
279.00	-51.167	110.052	
280.00	-51.073	86.346	
281.00	-50.629	74.573	
282.00	-51.400	51.665	
283.00	-51.334	31.615	
284.00	-50.572	8.819	
285.00	-51.093	-8.333	
286.00	-50.986	-30.936	
287.00	-50.987	-62.572	
288.00	-50.269	-73.941	
289.00	-50.732	-90.545	
290.00	-50.345	-112.392	
291.00	-51.770	-125.629	
292.00	-54.510	-140.780	
293.00	-54.178	-158.186	
294.00	-57.884	175.531	
295.00	-57.151	154.930	
296.00	-58.872	114.776	
297.00	-62.347	64.151	
298.00	-62.895	39.436	
299.00	-61.795	-1.075	
300.00	-60.554	-18.962	
301.00	-60.264	-56.839	
302.00	-58.872	-87.150	
303.00	-57.615	-110.830	
304.00	-56.781	-141.960	
305.00	-56.377	-162.217	
306.00	-56.377	170.250	
307.00	-54.828	143.144	
308.00	-53.563	120.719	
309.00	-53.191	101.498	
310.00	-51.822	82.874	
311.00	-51.336	68.032	
312.00	-50.972	53.467	
313.00	-50.941	42.904	
314.00	-50.465	28.347	
315.00	-50.725	17.318	
316.00	-51.950	10.134	
317.00	-52.044	-0.046	
318.00	-52.962	-9.114	
319.00	-55.058	-16.598	
320.00	-56.549	-30.876	
321.00	-59.786	-37.822	
322.00	-66.500	-37.756	
323.00	-74.949	59.150	
324.00	-62.770	110.761	
325.00	-57.825	108.642	
326.00	-55.346	102.919	
327.00	-54.423	93.147	
328.00	-54.829	87.193	
329.00	-54.092	75.909	
330.00	-54.757	71.983	
331.00	-56.581	73.840	
332.00	-61.646	62.708	
333.00	-69.208	48.302	
334.00	-77.001	-131.521	
335.00	-67.733	-142.178	
336.00	-65.497	-147.361	
337.00	-62.398	-143.298	
338.00	-59.837	-136.801	
339.00	-58.876	-131.869	
340.00	-56.864	-138.429	
341.00	-55.749	-135.970	
342.00	-54.827	-144.120	
343.00	-54.528	-158.506	
344.00	-54.828	-166.109	
345.00	-54.733	-179.646	
346.00	-55.823	167.745	
347.00	-56.152	151.972	
348.00	-56.309	136.369	
349.00	-58.519	122.829	
350.00	-58.328	113.307	
351.00	-59.746	106.761	
352.00	-61.517	98.576	
353.00	-62.893	60.692	
354.00	-63.318	56.923	
355.00	-64.335	46.164	
356.00	-68.626	32.447	
357.00	-63.344	29.744	
358.00	-65.292	-5.636	
359.00	-64.164	-7.467	
Frequency	1850.00	MHz	
Channel	test		
Scan Axis name	Azimuth  [deg]		
Scan Axis	Amplitude	Phase	
			
0.00	-63.210	-72.392	
1.00	-63.795	-75.888	
2.00	-65.901	-70.744	
3.00	-68.460	-61.183	
4.00	-71.255	-65.983	
5.00	-74.301	-62.391	
6.00	-98.482	87.172	
7.00	-75.880	119.032	
8.00	-73.060	117.690	
9.00	-67.419	127.401	
10.00	-65.991	124.704	
11.00	-64.064	117.136	
12.00	-62.836	115.180	
13.00	-62.369	107.459	
14.00	-62.013	104.021	
15.00	-61.673	97.967	
16.00	-62.887	85.142	
17.00	-62.860	75.991	
18.00	-62.822	68.837	
19.00	-63.878	61.769	
20.00	-64.281	53.349	
21.00	-66.052	44.571	
22.00	-67.880	22.940	
23.00	-78.557	-5.130	
24.00	-70.422	-110.566	
25.00	-63.376	-116.332	
26.00	-59.845	-122.089	
27.00	-57.337	-122.976	
28.00	-55.697	-122.433	
29.00	-54.838	-124.426	
30.00	-54.363	-125.129	
31.00	-54.412	-128.823	
32.00	-54.519	-135.452	
33.00	-56.590	-144.105	
34.00	-55.543	-147.467	
35.00	-56.144	-153.709	
36.00	-56.340	-158.239	
37.00	-57.262	-156.800	
38.00	-58.393	-157.181	
39.00	-60.411	-145.662	
40.00	-63.669	-125.705	
41.00	-67.142	-90.439	
42.00	-65.132	-45.565	
43.00	-61.337	-25.901	
44.00	-59.234	-7.044	
45.00	-57.356	4.564	
46.00	-57.117	-6.602	
47.00	-56.647	-0.845	
48.00	-55.741	2.276	
49.00	-55.349	1.580	
50.00	-55.153	6.165	
51.00	-54.489	13.391	
52.00	-55.189	18.321	
53.00	-55.098	29.751	
54.00	-55.932	46.444	
55.00	-56.797	59.296	
56.00	-58.622	74.948	
57.00	-58.381	101.361	
58.00	-58.815	123.382	
59.00	-59.022	143.834	
60.00	-61.786	-178.716	
61.00	-60.212	-157.346	
62.00	-59.282	-127.192	
63.00	-60.995	-109.532	
64.00	-60.619	-83.402	
65.00	-58.759	-59.996	
66.00	-58.184	-41.556	
67.00	-58.229	-23.069	
68.00	-58.565	-11.179	
69.00	-59.218	4.399	
70.00	-60.017	18.734	
71.00	-61.766	34.037	
72.00	-64.239	43.652	
73.00	-67.564	66.021	
74.00	-71.854	66.589	
75.00	-74.886	51.661	
76.00	-76.553	-7.293	
77.00	-69.326	-27.072	
78.00	-66.028	-21.267	
79.00	-63.719	-6.660	
80.00	-60.796	0.468	
81.00	-59.886	6.696	
82.00	-59.285	18.865	
83.00	-59.353	26.452	
84.00	-60.259	37.389	
85.00	-61.455	54.372	
86.00	-63.912	75.123	
87.00	-62.621	110.417	
88.00	-62.937	139.693	
89.00	-59.021	157.268	
90.00	-59.629	175.355	
91.00	-57.473	-179.857	
92.00	-57.086	-173.565	
93.00	-56.773	-162.116	
94.00	-57.504	-159.425	
95.00	-57.675	-152.932	
96.00	-58.244	-144.010	
97.00	-59.054	-129.291	
98.00	-59.847	-112.245	
99.00	-59.915	-95.647	
100.00	-58.583	-75.916	
101.00	-56.845	-53.083	
102.00	-55.658	-34.691	
103.00	-54.163	-22.859	
104.00	-52.838	-13.019	
105.00	-51.354	-1.878	
106.00	-50.387	8.048	
107.00	-49.395	20.853	
108.00	-48.495	29.583	
109.00	-47.988	43.665	
110.00	-47.152	53.464	
111.00	-46.637	66.702	
112.00	-46.096	78.584	
113.00	-45.733	93.507	
114.00	-45.381	107.894	
115.00	-45.185	121.326	
116.00	-44.848	137.818	
117.00	-44.587	152.478	
118.00	-44.465	168.181	
119.00	-44.261	-176.625	
120.00	-44.212	-160.381	
121.00	-44.274	-145.770	
122.00	-44.469	-130.090	
123.00	-44.735	-115.467	
124.00	-45.221	-100.540	
125.00	-46.269	-87.326	
126.00	-47.520	-73.258	
127.00	-49.314	-60.938	
128.00	-52.579	-49.625	
129.00	-58.197	-46.472	
130.00	-64.946	-121.610	
131.00	-55.659	-157.561	
132.00	-50.036	-152.494	
133.00	-46.592	-142.326	
134.00	-43.954	-128.883	
135.00	-42.027	-115.347	
136.00	-40.246	-102.197	
137.00	-39.010	-89.215	
138.00	-37.914	-76.497	
139.00	-36.997	-64.464	
140.00	-36.316	-52.790	
141.00	-35.901	-42.362	
142.00	-35.726	-30.812	
143.00	-35.830	-20.416	
144.00	-36.178	-10.385	
145.00	-36.916	-0.889	
146.00	-37.939	8.914	
147.00	-39.413	18.685	
148.00	-41.380	28.124	
149.00	-44.172	37.938	
150.00	-48.343	48.447	
151.00	-55.981	59.572	
152.00	-63.440	-136.331	
153.00	-51.594	-117.463	
154.00	-47.441	-107.089	
155.00	-45.200	-100.934	
156.00	-44.000	-94.139	
157.00	-43.552	-90.765	
158.00	-43.671	-88.758	
159.00	-44.214	-88.557	
160.00	-44.999	-91.832	
161.00	-45.680	-99.245	
162.00	-45.853	-108.670	
163.00	-45.482	-117.424	
164.00	-44.833	-123.208	
165.00	-44.073	-123.518	
166.00	-43.516	-119.594	
167.00	-43.122	-112.317	
168.00	-42.670	-102.642	
169.00	-42.050	-90.896	
170.00	-41.021	-80.692	
171.00	-39.886	-74.401	
172.00	-38.606	-71.306	
173.00	-37.453	-72.640	
174.00	-36.088	-76.028	
175.00	-34.745	-82.149	
176.00	-33.206	-88.195	
177.00	-31.635	-94.803	
178.00	-30.129	-99.624	
179.00	-28.743	-104.088	
180.00	-27.575	-107.610	
181.00	-26.651	-111.009	
182.00	-26.015	-113.768	
183.00	-25.692	-116.590	
184.00	-25.611	-119.511	
185.00	-25.858	-122.275	
186.00	-26.402	-125.724	
187.00	-27.299	-129.442	
188.00	-28.551	-134.024	
189.00	-30.305	-139.495	
190.00	-32.517	-147.245	
191.00	-35.506	-158.059	
192.00	-39.450	-179.190	
193.00	-42.148	152.853	
194.00	-42.492	108.578	
195.00	-41.087	83.371	
196.00	-39.972	70.307	
197.00	-39.725	60.772	
198.00	-40.232	55.318	
199.00	-41.590	53.271	
200.00	-43.618	53.288	
201.00	-46.712	61.990	
202.00	-48.952	79.815	
203.00	-48.812	103.348	
204.00	-48.038	116.636	
205.00	-47.275	117.102	
206.00	-47.744	110.569	
207.00	-48.297	95.730	
208.00	-50.144	72.836	
209.00	-50.816	37.665	
210.00	-49.300	0.969	
211.00	-47.380	-26.352	
212.00	-45.308	-45.242	
213.00	-44.019	-62.292	
214.00	-43.278	-79.360	
215.00	-42.983	-96.558	
216.00	-42.979	-114.536	
217.00	-43.200	-134.090	
218.00	-43.430	-157.115	
219.00	-43.507	176.692	
220.00	-43.177	150.986	
221.00	-42.260	125.082	
222.00	-41.049	102.147	
223.00	-39.700	82.046	
224.00	-38.599	65.145	
225.00	-37.661	49.833	
226.00	-36.923	36.022	
227.00	-36.487	22.986	
228.00	-36.209	10.779	
229.00	-36.184	-0.877	
230.00	-36.422	-12.309	
231.00	-36.897	-23.062	
232.00	-37.668	-34.625	
233.00	-38.716	-46.245	
234.00	-39.936	-57.894	
235.00	-41.730	-69.739	
236.00	-44.024	-83.198	
237.00	-46.943	-99.853	
238.00	-50.995	-123.061	
239.00	-55.823	-167.525	
240.00	-55.291	127.200	
241.00	-51.671	91.073	
242.00	-48.858	68.599	
243.00	-47.239	51.813	
244.00	-46.235	37.072	
245.00	-45.906	22.881	
246.00	-45.386	-0.325	
247.00	-45.204	-11.385	
248.00	-45.122	-29.736	
249.00	-45.220	-47.326	
250.00	-45.117	-63.563	
251.00	-45.109	-83.690	
252.00	-45.035	-102.149	
253.00	-44.877	-120.344	
254.00	-44.537	-139.687	
255.00	-44.909	-154.147	
256.00	-44.604	-169.785	
257.00	-44.545	174.158	
258.00	-44.495	162.075	
259.00	-44.774	140.812	
260.00	-45.876	129.437	
261.00	-45.911	109.809	
262.00	-45.895	92.947	
263.00	-46.157	76.639	
264.00	-46.765	57.793	
265.00	-47.029	41.611	
266.00	-47.192	10.543	
267.00	-47.287	6.876	
268.00	-47.719	-14.622	
269.00	-48.032	-32.211	
270.00	-48.370	-50.553	
271.00	-48.582	-69.028	
272.00	-49.046	-87.418	
273.00	-49.366	-106.457	
274.00	-49.496	-126.288	
275.00	-49.749	-145.338	
276.00	-49.896	-165.213	
277.00	-49.644	176.187	
278.00	-50.019	158.013	
279.00	-50.115	139.786	
280.00	-50.516	123.896	
281.00	-51.272	110.169	
282.00	-51.500	80.936	
283.00	-51.717	62.929	
284.00	-52.723	35.624	
285.00	-52.897	18.186	
286.00	-52.765	-3.441	
287.00	-54.129	-28.717	
288.00	-53.313	-52.478	
289.00	-55.827	-79.244	
290.00	-57.548	-94.211	
291.00	-57.750	-124.876	
292.00	-57.945	-139.543	
293.00	-58.037	-174.477	
294.00	-58.346	149.568	
295.00	-56.500	109.327	
296.00	-56.735	85.154	
297.00	-56.586	71.151	
298.00	-55.699	51.590	
299.00	-55.872	29.909	
300.00	-55.328	7.046	
301.00	-55.486	-14.370	
302.00	-56.255	-30.196	
303.00	-56.916	-53.535	
304.00	-58.155	-80.699	
305.00	-59.319	-111.325	
306.00	-58.299	-131.870	
307.00	-57.342	-147.539	
308.00	-57.474	-171.430	
309.00	-56.980	175.930	
310.00	-55.914	164.916	
311.00	-55.103	155.133	
312.00	-54.511	152.688	
313.00	-53.892	148.523	
314.00	-52.999	135.770	
315.00	-52.546	130.520	
316.00	-51.757	125.373	
317.00	-51.416	114.914	
318.00	-51.515	104.354	
319.00	-51.538	100.973	
320.00	-51.858	83.313	
321.00	-53.103	75.962	
322.00	-55.055	65.792	
323.00	-57.587	52.613	
324.00	-62.227	44.440	
325.00	-69.585	8.858	
326.00	-68.466	-98.975	
327.00	-62.037	-138.012	
328.00	-58.356	-147.999	
329.00	-55.487	-161.724	
330.00	-54.892	-172.704	
331.00	-53.335	176.751	
332.00	-53.031	163.534	
333.00	-52.841	144.961	
334.00	-52.571	133.770	
335.00	-53.024	118.907	
336.00	-53.788	100.800	
337.00	-54.397	79.008	
338.00	-55.334	51.352	
339.00	-55.555	24.085	
340.00	-55.379	-3.047	
341.00	-54.460	-24.822	
342.00	-54.371	-43.578	
343.00	-54.576	-59.640	
344.00	-55.109	-76.400	
345.00	-56.108	-84.796	
346.00	-57.766	-96.579	
347.00	-60.493	-105.791	
348.00	-63.598	-112.882	
349.00	-67.888	-115.150	
350.00	-77.468	-99.915	
351.00	-77.779	-18.039	
352.00	-75.271	-3.737	
353.00	-74.422	-5.056	
354.00	-71.154	-35.958	
355.00	-67.477	-53.671	
356.00	-66.146	-61.907	
357.00	-65.906	-75.199	
358.00	-64.591	-77.716	
359.00	-63.200	-72.801	
Frequency	1950.00	MHz	
Channel	test		
Scan Axis name	Azimuth  [deg]		
Scan Axis	Amplitude	Phase	
			
0.00	-62.746	-44.747	
1.00	-63.156	-51.965	
2.00	-61.203	-27.404	
3.00	-61.691	-13.012	
4.00	-61.230	-53.067	
5.00	-66.545	-36.206	
6.00	-58.934	-12.180	
7.00	-59.080	-10.932	
8.00	-57.601	-26.724	
9.00	-58.569	-21.059	
10.00	-55.323	-15.046	
11.00	-58.842	-19.254	
12.00	-59.159	-31.977	
13.00	-61.996	-16.274	
14.00	-61.371	6.468	
15.00	-67.323	-29.828	
16.00	-65.712	-9.115	
17.00	-82.571	103.129	
18.00	-70.103	-140.181	
19.00	-71.136	-103.276	
20.00	-62.560	-141.556	
21.00	-65.649	-134.713	
22.00	-62.921	-168.708	
23.00	-62.092	-123.956	
24.00	-59.916	-105.041	
25.00	-59.448	-81.770	
26.00	-64.115	-46.778	
27.00	-61.886	-19.702	
28.00	-59.568	-30.252	
29.00	-60.671	-4.535	
30.00	-59.465	-2.101	
31.00	-58.994	10.287	
32.00	-59.436	13.246	
33.00	-57.557	27.461	
34.00	-56.987	45.155	
35.00	-56.159	51.190	
36.00	-55.555	58.048	
37.00	-55.321	64.881	
38.00	-56.229	66.115	
39.00	-55.082	80.622	
40.00	-55.542	81.936	
41.00	-56.556	89.269	
42.00	-56.313	103.938	
43.00	-56.141	117.460	
44.00	-57.825	132.595	
45.00	-56.152	158.401	
46.00	-56.823	170.591	
47.00	-56.711	-158.846	
48.00	-55.971	-146.391	
49.00	-55.769	-126.130	
50.00	-56.347	-108.797	
51.00	-58.868	-94.835	
52.00	-61.374	-80.913	
53.00	-65.945	-73.584	
54.00	-73.967	-70.290	
55.00	-68.107	139.183	
56.00	-64.644	147.892	
57.00	-62.303	155.157	
58.00	-60.216	173.139	
59.00	-61.516	-179.028	
60.00	-62.407	-158.252	
61.00	-64.383	-135.576	
62.00	-64.159	-83.176	
63.00	-67.850	-51.467	
64.00	-65.614	-11.190	
65.00	-63.209	24.372	
66.00	-61.676	42.429	
67.00	-61.974	62.940	
68.00	-61.554	77.200	
69.00	-62.824	89.078	
70.00	-63.599	104.834	
71.00	-66.418	125.833	
72.00	-71.277	149.056	
73.00	-70.737	170.482	
74.00	-74.161	-174.683	
75.00	-79.573	131.457	
76.00	-78.405	137.307	
77.00	-69.686	115.782	
78.00	-69.346	118.868	
79.00	-64.406	110.636	
80.00	-61.575	130.471	
81.00	-62.595	132.364	
82.00	-62.685	138.927	
83.00	-67.320	172.659	
84.00	-67.307	176.116	
85.00	-71.730	-149.778	
86.00	-66.949	-80.768	
87.00	-64.829	-68.800	
88.00	-63.257	-40.297	
89.00	-60.305	-28.810	
90.00	-59.861	-6.355	
91.00	-58.416	6.692	
92.00	-57.993	20.552	
93.00	-57.721	33.206	
94.00	-57.424	46.650	
95.00	-56.665	60.012	
96.00	-57.356	73.364	
97.00	-57.045	89.645	
98.00	-57.532	103.136	
99.00	-58.557	124.520	
100.00	-57.619	140.227	
101.00	-59.062	167.350	
102.00	-58.977	-164.765	
103.00	-57.920	-155.552	
104.00	-58.296	-137.823	
105.00	-57.367	-126.988	
106.00	-58.195	-123.796	
107.00	-57.459	-121.251	
108.00	-57.477	-119.237	
109.00	-57.646	-124.108	
110.00	-56.789	-130.634	
111.00	-55.966	-131.601	
112.00	-53.693	-138.123	
113.00	-52.340	-133.896	
114.00	-50.596	-129.364	
115.00	-49.163	-120.150	
116.00	-48.335	-110.681	
117.00	-47.571	-99.412	
118.00	-47.087	-86.959	
119.00	-46.235	-74.773	
120.00	-45.864	-57.868	
121.00	-45.369	-43.953	
122.00	-44.705	-27.779	
123.00	-44.003	-13.733	
124.00	-43.582	-0.182	
125.00	-43.093	12.660	
126.00	-42.826	22.383	
127.00	-42.857	33.942	
128.00	-43.091	42.283	
129.00	-43.749	51.277	
130.00	-44.293	57.699	
131.00	-45.433	66.047	
132.00	-46.960	72.264	
133.00	-48.549	72.844	
134.00	-50.012	72.707	
135.00	-51.267	64.041	
136.00	-51.146	50.960	
137.00	-49.732	42.971	
138.00	-47.954	36.014	
139.00	-45.888	35.277	
140.00	-44.233	37.568	
141.00	-42.471	41.514	
142.00	-41.251	45.511	
143.00	-40.199	51.850	
144.00	-39.327	58.488	
145.00	-38.794	65.086	
146.00	-38.330	73.360	
147.00	-38.073	81.531	
148.00	-37.933	90.336	
149.00	-37.952	99.251	
150.00	-38.242	108.230	
151.00	-38.650	117.032	
152.00	-39.500	125.938	
153.00	-40.669	134.186	
154.00	-42.476	144.292	
155.00	-45.160	153.147	
156.00	-49.438	164.826	
157.00	-58.472	-161.734	
158.00	-55.521	-39.165	
159.00	-47.888	-16.355	
160.00	-44.070	-5.298	
161.00	-41.532	4.195	
162.00	-39.686	9.344	
163.00	-38.530	13.831	
164.00	-37.889	18.946	
165.00	-37.568	22.356	
166.00	-37.636	24.474	
167.00	-38.014	26.989	
168.00	-38.712	27.115	
169.00	-39.552	26.783	
170.00	-40.536	27.355	
171.00	-41.429	26.751	
172.00	-42.035	30.475	
173.00	-42.179	36.093	
174.00	-41.148	46.451	
175.00	-39.540	58.623	
176.00	-37.221	67.344	
177.00	-34.933	71.610	
178.00	-32.899	74.857	
179.00	-31.033	76.037	
180.00	-29.511	76.276	
181.00	-28.353	75.953	
182.00	-27.468	75.266	
183.00	-26.829	74.473	
184.00	-26.533	73.051	
185.00	-26.534	71.946	
186.00	-26.792	70.445	
187.00	-27.402	69.356	
188.00	-28.330	68.697	
189.00	-29.644	67.878	
190.00	-31.384	68.122	
191.00	-33.610	70.240	
192.00	-36.452	76.029	
193.00	-39.479	87.987	
194.00	-41.903	109.922	
195.00	-42.713	133.558	
196.00	-41.860	148.387	
197.00	-41.404	153.734	
198.00	-41.343	154.841	
199.00	-41.926	153.491	
200.00	-42.596	146.064	
201.00	-43.924	138.338	
202.00	-44.515	135.556	
203.00	-45.699	127.188	
204.00	-46.247	127.057	
205.00	-45.923	127.843	
206.00	-45.083	128.341	
207.00	-43.640	126.809	
208.00	-42.383	123.391	
209.00	-41.298	119.794	
210.00	-40.660	114.023	
211.00	-40.334	107.148	
212.00	-40.464	100.436	
213.00	-41.422	93.600	
214.00	-43.204	84.079	
215.00	-46.231	76.780	
216.00	-53.501	68.448	
217.00	-64.610	-102.355	
218.00	-48.429	-121.327	
219.00	-43.658	-136.444	
220.00	-40.799	-145.244	
221.00	-38.785	-156.271	
222.00	-37.526	-166.270	
223.00	-36.806	-177.431	
224.00	-36.404	171.488	
225.00	-36.427	160.124	
226.00	-36.658	148.010	
227.00	-37.075	135.974	
228.00	-37.834	123.576	
229.00	-38.892	111.558	
230.00	-40.039	99.078	
231.00	-41.676	87.895	
232.00	-43.617	77.903	
233.00	-45.943	68.646	
234.00	-49.329	68.790	
235.00	-53.275	83.192	
236.00	-53.747	119.475	
237.00	-50.561	137.043	
238.00	-47.624	137.250	
239.00	-45.371	132.524	
240.00	-43.848	125.393	
241.00	-43.211	114.166	
242.00	-42.732	104.131	
243.00	-42.303	92.155	
244.00	-42.555	81.151	
245.00	-42.971	68.129	
246.00	-43.348	56.327	
247.00	-44.063	44.234	
248.00	-45.357	30.241	
249.00	-45.995	15.461	
250.00	-47.530	2.478	
251.00	-48.996	-15.693	
252.00	-50.710	-36.255	
253.00	-52.478	-58.050	
254.00	-53.649	-88.859	
255.00	-53.858	-113.005	
256.00	-54.603	-144.314	
257.00	-53.379	-165.131	
258.00	-52.865	174.141	
259.00	-53.195	160.014	
260.00	-53.808	129.763	
261.00	-51.597	122.600	
262.00	-52.727	101.115	
263.00	-52.814	85.393	
264.00	-53.090	66.280	
265.00	-53.524	52.171	
266.00	-53.147	46.595	
267.00	-54.276	16.160	
268.00	-55.748	-6.279	
269.00	-56.482	-31.183	
270.00	-56.101	-54.705	
271.00	-57.033	-85.783	
272.00	-55.201	-111.917	
273.00	-53.953	-133.040	
274.00	-53.100	-148.655	
275.00	-52.411	-164.219	
276.00	-52.253	-177.578	
277.00	-51.592	163.653	
278.00	-52.204	152.700	
279.00	-52.484	131.344	
280.00	-52.563	117.606	
281.00	-52.675	100.222	
282.00	-52.683	89.535	
283.00	-54.053	70.093	
284.00	-54.715	49.778	
285.00	-55.713	37.309	
286.00	-58.439	17.702	
287.00	-59.941	-21.883	
288.00	-62.839	-30.503	
289.00	-61.433	-89.053	
290.00	-64.119	-126.563	
291.00	-64.210	-147.770	
292.00	-63.614	170.377	
293.00	-62.032	160.625	
294.00	-60.615	144.743	
295.00	-60.506	125.379	
296.00	-60.910	102.958	
297.00	-61.512	70.118	
298.00	-66.245	102.835	
299.00	-91.564	40.636	
300.00	-87.781	177.992	
301.00	-76.113	-140.015	
302.00	-63.541	-170.229	
303.00	-61.468	-161.226	
304.00	-60.575	-164.118	
305.00	-59.215	174.971	
306.00	-58.204	163.020	
307.00	-59.139	146.537	
308.00	-59.020	141.826	
309.00	-61.124	133.406	
310.00	-62.705	129.293	
311.00	-65.676	149.882	
312.00	-67.703	160.720	
313.00	-65.420	170.630	
314.00	-62.012	167.276	
315.00	-59.611	162.784	
316.00	-59.014	159.530	
317.00	-59.088	139.797	
318.00	-58.317	134.554	
319.00	-59.160	124.274	
320.00	-59.756	110.596	
321.00	-59.468	105.932	
322.00	-60.782	95.825	
323.00	-62.135	101.278	
324.00	-63.070	98.605	
325.00	-62.909	126.342	
326.00	-61.134	151.888	
327.00	-62.164	154.438	
328.00	-61.721	155.005	
329.00	-58.342	153.835	
330.00	-57.047	158.811	
331.00	-57.647	152.221	
332.00	-57.743	149.287	
333.00	-57.925	141.675	
334.00	-60.710	132.192	
335.00	-63.093	126.354	
336.00	-67.348	110.718	
337.00	-67.567	101.961	
338.00	-73.471	123.672	
339.00	-79.301	-143.532	
340.00	-75.062	-155.174	
341.00	-68.971	-114.698	
342.00	-66.669	-145.781	
343.00	-69.428	-99.502	
344.00	-70.134	-93.037	
345.00	-69.114	-91.819	
346.00	-66.785	-96.645	
347.00	-64.701	-107.784	
348.00	-75.578	-157.189	
349.00	-78.346	-64.467	
350.00	-66.913	-161.675	
351.00	-67.626	-125.600	
352.00	-65.516	-153.784	
353.00	-75.320	136.635	
354.00	-68.371	-107.586	
355.00	-78.234	-113.864	
356.00	-76.261	-84.382	
357.00	-63.922	-50.230	
358.00	-63.478	-30.379	
359.00	-63.338	-35.720	
Frequency	2050.00	MHz	
Channel	test		
Scan Axis name	Azimuth  [deg]		
Scan Axis	Amplitude	Phase	
			
0.00	-58.854	-75.058	
1.00	-59.489	-89.343	
2.00	-60.740	-106.540	
3.00	-61.898	-117.557	
4.00	-59.748	-125.503	
5.00	-64.654	-135.241	
6.00	-67.420	-125.519	
7.00	-68.272	-72.672	
8.00	-67.823	-20.753	
9.00	-65.243	-2.677	
10.00	-60.036	19.485	
11.00	-58.572	30.304	
12.00	-57.403	40.411	
13.00	-57.471	41.205	
14.00	-56.814	57.790	
15.00	-57.745	62.775	
16.00	-58.426	51.546	
17.00	-57.321	53.066	
18.00	-61.269	52.091	
19.00	-63.454	37.008	
20.00	-64.383	16.428	
21.00	-60.766	-3.710	
22.00	-59.312	-7.476	
23.00	-57.434	-4.524	
24.00	-56.669	-3.297	
25.00	-58.220	10.670	
26.00	-57.908	19.927	
27.00	-59.134	36.559	
28.00	-60.231	56.580	
29.00	-62.830	74.739	
30.00	-64.467	105.768	
31.00	-67.963	131.753	
32.00	-64.679	175.222	
33.00	-63.934	-162.936	
34.00	-63.279	-139.939	
35.00	-62.493	-133.113	
36.00	-62.057	-109.268	
37.00	-62.565	-101.193	
38.00	-65.273	-79.469	
39.00	-66.188	-76.561	
40.00	-67.227	-81.036	
41.00	-78.791	-48.327	
42.00	-80.978	52.832	
43.00	-81.983	173.944	
44.00	-78.575	-139.706	
45.00	-71.737	81.551	
46.00	-73.170	-24.777	
47.00	-69.876	-10.551	
48.00	-64.424	-12.270	
49.00	-62.618	4.547	
50.00	-60.694	16.466	
51.00	-60.365	22.114	
52.00	-60.200	26.898	
53.00	-60.735	29.096	
54.00	-61.679	17.689	
55.00	-62.421	17.714	
56.00	-61.568	11.762	
57.00	-62.240	-2.131	
58.00	-62.785	-7.618	
59.00	-60.902	8.691	
60.00	-60.075	22.925	
61.00	-59.370	51.378	
62.00	-58.153	56.022	
63.00	-59.290	76.597	
64.00	-57.861	96.367	
65.00	-57.746	102.799	
66.00	-58.106	117.380	
67.00	-58.120	123.314	
68.00	-59.619	127.565	
69.00	-61.435	131.403	
70.00	-64.533	134.664	
71.00	-66.843	133.359	
72.00	-69.099	119.848	
73.00	-72.208	124.113	
74.00	-74.624	120.166	
75.00	-73.379	151.017	
76.00	-74.631	-174.950	
77.00	-67.943	-166.478	
78.00	-66.599	-141.176	
79.00	-65.472	-119.893	
80.00	-62.916	-112.545	
81.00	-62.978	-99.650	
82.00	-60.770	-83.208	
83.00	-59.801	-67.114	
84.00	-59.895	-53.004	
85.00	-59.448	-57.221	
86.00	-61.208	-25.101	
87.00	-60.959	-9.756	
88.00	-63.432	2.460	
89.00	-65.261	30.175	
90.00	-62.342	68.379	
91.00	-62.312	98.629	
92.00	-59.045	124.241	
93.00	-58.317	134.312	
94.00	-57.279	147.096	
95.00	-56.757	166.353	
96.00	-55.428	-176.791	
97.00	-55.183	-163.035	
98.00	-54.440	-146.043	
99.00	-54.318	-130.478	
100.00	-53.893	-113.886	
101.00	-53.500	-88.604	
102.00	-53.584	-73.670	
103.00	-53.527	-54.002	
104.00	-53.640	-35.003	
105.00	-53.582	-13.105	
106.00	-53.379	5.541	
107.00	-53.185	30.025	
108.00	-53.149	47.707	
109.00	-53.141	68.212	
110.00	-53.202	86.688	
111.00	-53.750	110.362	
112.00	-54.742	129.285	
113.00	-55.737	157.260	
114.00	-56.391	-164.573	
115.00	-55.582	-129.868	
116.00	-53.875	-99.095	
117.00	-52.176	-75.167	
118.00	-50.651	-53.178	
119.00	-49.658	-33.852	
120.00	-49.150	-12.753	
121.00	-48.769	9.115	
122.00	-48.477	31.975	
123.00	-48.132	57.507	
124.00	-47.199	83.112	
125.00	-46.153	105.694	
126.00	-44.993	126.311	
127.00	-44.016	143.330	
128.00	-43.139	159.904	
129.00	-42.848	175.007	
130.00	-42.716	-171.808	
131.00	-42.870	-158.597	
132.00	-43.749	-146.066	
133.00	-44.926	-133.757	
134.00	-46.673	-120.497	
135.00	-49.318	-107.115	
136.00	-53.441	-97.251	
137.00	-61.783	-82.257	
138.00	-67.042	96.119	
139.00	-55.196	113.434	
140.00	-51.133	123.124	
141.00	-48.690	131.188	
142.00	-47.031	138.075	
143.00	-46.020	142.862	
144.00	-45.319	146.268	
145.00	-44.867	147.147	
146.00	-44.721	146.810	
147.00	-44.221	148.120	
148.00	-43.893	149.545	
149.00	-43.629	152.188	
150.00	-43.405	157.465	
151.00	-43.046	165.419	
152.00	-43.254	176.493	
153.00	-43.127	-173.351	
154.00	-43.362	-160.648	
155.00	-43.476	-148.657	
156.00	-43.722	-136.914	
157.00	-44.255	-127.830	
158.00	-45.181	-119.174	
159.00	-46.548	-114.274	
160.00	-48.627	-117.350	
161.00	-51.482	-130.508	
162.00	-53.116	-161.598	
163.00	-50.544	169.151	
164.00	-48.101	154.488	
165.00	-46.243	149.348	
166.00	-45.223	146.271	
167.00	-45.296	141.762	
168.00	-45.819	136.975	
169.00	-47.121	125.888	
170.00	-49.252	104.583	
171.00	-49.374	77.872	
172.00	-48.260	52.002	
173.00	-47.227	35.158	
174.00	-47.574	21.566	
175.00	-50.423	5.948	
176.00	-55.243	-67.154	
177.00	-45.997	-127.215	
178.00	-39.607	-140.333	
179.00	-35.243	-145.784	
180.00	-32.176	-148.592	
181.00	-29.879	-151.127	
182.00	-28.212	-153.037	
183.00	-27.044	-155.232	
184.00	-26.306	-157.254	
185.00	-25.978	-159.299	
186.00	-26.039	-161.773	
187.00	-26.518	-164.277	
188.00	-27.393	-167.223	
189.00	-28.719	-170.561	
190.00	-30.495	-173.699	
191.00	-32.830	-176.973	
192.00	-35.694	-179.740	
193.00	-39.427	179.545	
194.00	-43.927	-178.566	
195.00	-47.842	-161.981	
196.00	-49.053	-143.919	
197.00	-47.477	-138.967	
198.00	-45.613	-146.970	
199.00	-43.561	-158.817	
200.00	-41.631	-171.124	
201.00	-40.664	-179.578	
202.00	-40.002	171.561	
203.00	-39.906	164.770	
204.00	-40.438	159.378	
205.00	-41.586	156.287	
206.00	-43.072	155.879	
207.00	-44.925	159.772	
208.00	-46.660	168.657	
209.00	-47.695	179.354	
210.00	-47.820	-176.220	
211.00	-48.314	-178.876	
212.00	-49.348	167.034	
213.00	-50.433	140.081	
214.00	-50.395	96.528	
215.00	-47.651	60.296	
216.00	-44.400	34.713	
217.00	-41.737	15.397	
218.00	-39.844	-0.054	
219.00	-38.535	-14.964	
220.00	-37.588	-29.660	
221.00	-37.089	-44.608	
222.00	-36.844	-59.626	
223.00	-36.959	-75.086	
224.00	-37.358	-91.177	
225.00	-37.962	-108.158	
226.00	-38.880	-126.185	
227.00	-40.005	-145.749	
228.00	-41.385	-166.734	
229.00	-42.918	170.607	
230.00	-44.465	143.053	
231.00	-45.934	112.783	
232.00	-46.835	78.711	
233.00	-47.326	45.182	
234.00	-46.652	11.278	
235.00	-45.800	-15.253	
236.00	-45.266	-41.454	
237.00	-44.697	-65.093	
238.00	-44.296	-85.726	
239.00	-44.081	-105.344	
240.00	-44.142	-124.744	
241.00	-44.376	-143.797	
242.00	-44.809	-163.653	
243.00	-45.389	176.736	
244.00	-46.013	154.993	
245.00	-46.851	133.669	
246.00	-47.019	112.353	
247.00	-47.629	91.078	
248.00	-47.835	67.940	
249.00	-48.236	48.358	
250.00	-48.448	29.353	
251.00	-48.835	10.561	
252.00	-49.213	-7.757	
253.00	-49.711	-24.406	
254.00	-50.425	-42.890	
255.00	-51.111	-59.152	
256.00	-51.241	-77.303	
257.00	-52.377	-93.341	
258.00	-53.369	-109.466	
259.00	-55.578	-127.747	
260.00	-56.291	-158.055	
261.00	-56.108	-167.541	
262.00	-58.479	171.382	
263.00	-59.296	146.466	
264.00	-59.268	118.211	
265.00	-60.516	93.859	
266.00	-60.054	61.601	
267.00	-57.634	51.591	
268.00	-57.696	27.582	
269.00	-58.007	9.384	
270.00	-56.855	-12.097	
271.00	-57.221	-31.146	
272.00	-56.542	-46.536	
273.00	-56.881	-64.935	
274.00	-56.194	-79.309	
275.00	-55.958	-96.572	
276.00	-56.311	-110.776	
277.00	-56.731	-125.973	
278.00	-57.389	-139.428	
279.00	-58.444	-154.803	
280.00	-59.781	-170.665	
281.00	-60.740	166.476	
282.00	-62.686	150.931	
283.00	-65.315	134.497	
284.00	-66.543	98.995	
285.00	-67.151	58.934	
286.00	-69.595	25.813	
287.00	-69.507	-32.347	
288.00	-66.938	-71.163	
289.00	-63.425	-92.093	
290.00	-67.323	-124.271	
291.00	-67.668	-149.387	
292.00	-66.097	-160.271	
293.00	-64.933	166.265	
294.00	-63.908	138.175	
295.00	-63.405	107.083	
296.00	-61.699	66.570	
297.00	-63.008	55.044	
298.00	-59.806	47.272	
299.00	-58.767	12.054	
300.00	-56.785	-12.022	
301.00	-56.213	-25.129	
302.00	-55.772	-40.122	
303.00	-54.729	-56.317	
304.00	-56.697	-72.709	
305.00	-56.133	-83.426	
306.00	-57.415	-98.789	
307.00	-58.077	-118.218	
308.00	-59.658	-138.631	
309.00	-59.874	-174.356	
310.00	-60.272	164.300	
311.00	-58.380	138.903	
312.00	-58.576	122.966	
313.00	-56.616	100.476	
314.00	-56.503	93.180	
315.00	-56.347	80.138	
316.00	-56.210	69.945	
317.00	-57.173	54.140	
318.00	-57.314	51.869	
319.00	-60.274	40.429	
320.00	-62.267	27.749	
321.00	-69.170	12.526	
322.00	-82.466	-48.605	
323.00	-72.179	-164.050	
324.00	-64.594	-179.136	
325.00	-63.057	167.858	
326.00	-61.624	163.533	
327.00	-62.654	133.349	
328.00	-62.615	123.752	
329.00	-66.105	105.699	
330.00	-65.336	49.108	
331.00	-62.686	22.538	
332.00	-63.822	6.179	
333.00	-62.358	-34.923	
334.00	-61.091	-49.064	
335.00	-60.596	-63.432	
336.00	-59.650	-70.659	
337.00	-60.348	-108.237	
338.00	-61.396	-129.576	
339.00	-61.467	-166.112	
340.00	-59.259	161.990	
341.00	-58.224	146.818	
342.00	-56.656	131.114	
343.00	-55.820	123.381	
344.00	-55.630	113.522	
345.00	-56.276	111.193	
346.00	-57.451	110.515	
347.00	-60.917	121.671	
348.00	-62.896	119.347	
349.00	-65.246	150.059	
350.00	-67.465	-162.187	
351.00	-66.839	-112.103	
352.00	-61.869	-112.064	
353.00	-61.699	-91.254	
354.00	-57.892	-85.312	
355.00	-57.871	-87.904	
356.00	-58.686	-67.197	
357.00	-58.479	-77.462	
358.00	-57.496	-79.826	
359.00	-56.525	-74.830	
Frequency	2170.00	MHz	
Channel	test		
Scan Axis name	Azimuth  [deg]		
Scan Axis	Amplitude	Phase	
			
0.00	-69.118	-104.592	
1.00	-77.621	-28.975	
2.00	-74.480	-27.675	
3.00	-75.884	7.409	
4.00	-73.455	29.338	
5.00	-66.210	33.256	
6.00	-67.638	4.258	
7.00	-63.515	-12.738	
8.00	-64.082	-16.502	
9.00	-61.471	-26.371	
10.00	-61.132	-51.939	
11.00	-63.020	-19.773	
12.00	-63.884	-32.317	
13.00	-67.279	-55.913	
14.00	-67.452	-83.527	
15.00	-68.328	-116.193	
16.00	-67.382	-130.685	
17.00	-63.823	-151.472	
18.00	-64.410	159.622	
19.00	-62.059	176.413	
20.00	-61.150	-175.751	
21.00	-59.916	166.270	
22.00	-60.469	-179.218	
23.00	-60.813	173.646	
24.00	-63.196	165.880	
25.00	-61.049	169.651	
26.00	-60.432	164.262	
27.00	-59.479	171.351	
28.00	-59.594	177.049	
29.00	-58.068	-178.518	
30.00	-60.293	-177.799	
31.00	-61.223	175.798	
32.00	-62.373	170.287	
33.00	-61.580	151.232	
34.00	-60.657	139.795	
35.00	-59.696	129.692	
36.00	-58.866	135.127	
37.00	-58.692	129.364	
38.00	-58.555	123.949	
39.00	-57.532	120.736	
40.00	-58.266	124.599	
41.00	-58.093	125.707	
42.00	-58.991	132.100	
43.00	-59.360	136.431	
44.00	-60.918	144.578	
45.00	-65.904	153.501	
46.00	-67.660	132.949	
47.00	-68.234	104.820	
48.00	-67.890	83.502	
49.00	-63.881	81.577	
50.00	-63.714	98.119	
51.00	-63.438	111.081	
52.00	-63.126	133.191	
53.00	-64.858	154.048	
54.00	-64.620	165.998	
55.00	-66.299	-158.402	
56.00	-68.823	-166.910	
57.00	-68.396	173.101	
58.00	-66.905	144.665	
59.00	-63.231	120.275	
60.00	-60.383	125.098	
61.00	-58.693	135.407	
62.00	-58.006	160.192	
63.00	-57.051	165.150	
64.00	-56.622	-178.384	
65.00	-57.440	-163.803	
66.00	-57.894	-150.018	
67.00	-58.187	-129.968	
68.00	-59.893	-114.754	
69.00	-61.832	-101.966	
70.00	-64.360	-89.602	
71.00	-69.614	-79.503	
72.00	-77.722	-84.870	
73.00	-79.633	158.296	
74.00	-69.551	129.668	
75.00	-67.349	133.109	
76.00	-66.875	155.291	
77.00	-65.458	139.582	
78.00	-68.619	134.792	
79.00	-67.094	120.787	
80.00	-66.650	107.918	
81.00	-67.720	90.087	
82.00	-63.575	82.874	
83.00	-63.093	76.355	
84.00	-62.067	90.637	
85.00	-61.181	94.528	
86.00	-59.203	106.097	
87.00	-59.871	112.025	
88.00	-61.652	120.979	
89.00	-60.916	132.890	
90.00	-60.998	149.847	
91.00	-64.606	160.521	
92.00	-65.365	178.141	
93.00	-65.699	-141.865	
94.00	-69.964	-141.667	
95.00	-74.533	-73.646	
96.00	-69.957	-62.114	
97.00	-64.899	-18.083	
98.00	-63.117	11.090	
99.00	-61.030	19.386	
100.00	-60.246	37.937	
101.00	-59.488	56.794	
102.00	-58.390	74.790	
103.00	-57.347	92.497	
104.00	-55.770	104.373	
105.00	-54.891	118.010	
106.00	-54.484	129.687	
107.00	-53.596	145.542	
108.00	-53.001	156.885	
109.00	-52.469	174.213	
110.00	-51.738	-174.737	
111.00	-51.042	-159.035	
112.00	-50.482	-145.422	
113.00	-50.120	-131.582	
114.00	-49.825	-117.896	
115.00	-49.992	-104.674	
116.00	-50.370	-90.820	
117.00	-51.608	-75.133	
118.00	-53.075	-58.161	
119.00	-55.213	-37.620	
120.00	-58.949	-2.337	
121.00	-60.938	49.573	
122.00	-57.823	105.796	
123.00	-54.665	140.205	
124.00	-52.123	162.989	
125.00	-50.610	-173.022	
126.00	-49.115	-152.922	
127.00	-48.225	-131.275	
128.00	-47.459	-111.803	
129.00	-47.006	-90.138	
130.00	-46.701	-69.929	
131.00	-46.837	-48.149	
132.00	-47.211	-27.235	
133.00	-47.597	-4.831	
134.00	-48.403	17.864	
135.00	-49.240	42.340	
136.00	-50.933	69.971	
137.00	-52.444	105.563	
138.00	-53.368	147.512	
139.00	-52.227	-165.289	
140.00	-49.528	-136.460	
141.00	-47.499	-114.689	
142.00	-46.299	-98.708	
143.00	-45.906	-84.968	
144.00	-46.561	-72.999	
145.00	-48.079	-62.483	
146.00	-51.784	-53.601	
147.00	-58.241	-41.839	
148.00	-75.555	-179.637	
149.00	-58.400	162.453	
150.00	-54.409	164.165	
151.00	-52.410	-179.416	
152.00	-53.026	-171.065	
153.00	-56.874	-162.745	
154.00	-66.674	-130.948	
155.00	-61.455	18.099	
156.00	-53.501	26.932	
157.00	-50.478	36.667	
158.00	-49.522	43.021	
159.00	-49.874	45.984	
160.00	-52.207	47.517	
161.00	-57.172	34.371	
162.00	-58.839	-63.963	
163.00	-50.449	-82.936	
164.00	-46.057	-86.200	
165.00	-43.702	-85.926	
166.00	-42.285	-86.116	
167.00	-41.931	-85.642	
168.00	-42.276	-86.984	
169.00	-43.572	-88.846	
170.00	-46.104	-93.378	
171.00	-49.709	-97.499	
172.00	-57.207	-84.336	
173.00	-56.691	-14.152	
174.00	-47.596	3.441	
175.00	-41.810	-3.117	
176.00	-37.100	-8.033	
177.00	-33.369	-12.507	
178.00	-30.450	-15.639	
179.00	-28.093	-18.307	
180.00	-26.241	-20.653	
181.00	-24.874	-22.634	
182.00	-23.936	-24.612	
183.00	-23.424	-26.384	
184.00	-23.318	-28.572	
185.00	-23.624	-30.092	
186.00	-24.369	-32.318	
187.00	-25.646	-34.335	
188.00	-27.500	-36.627	
189.00	-30.163	-39.096	
190.00	-33.899	-42.082	
191.00	-39.824	-45.511	
192.00	-54.983	-59.186	
193.00	-47.187	137.077	
194.00	-41.590	132.707	
195.00	-40.157	130.737	
196.00	-40.331	131.257	
197.00	-41.902	134.704	
198.00	-44.481	143.580	
199.00	-47.455	165.625	
200.00	-48.452	-161.507	
201.00	-47.685	-142.353	
202.00	-47.754	-132.438	
203.00	-49.456	-129.745	
204.00	-54.610	-118.654	
205.00	-62.858	-14.363	
206.00	-50.896	22.591	
207.00	-45.355	23.766	
208.00	-43.044	20.296	
209.00	-41.584	17.183	
210.00	-41.113	12.758	
211.00	-41.792	9.752	
212.00	-43.328	6.986	
213.00	-45.985	8.080	
214.00	-49.595	21.837	
215.00	-52.222	59.546	
216.00	-49.806	88.640	
217.00	-47.110	94.362	
218.00	-45.640	92.312	
219.00	-45.187	86.632	
220.00	-45.708	79.805	
221.00	-47.164	70.559	
222.00	-49.671	62.298	
223.00	-54.432	57.235	
224.00	-64.796	74.314	
225.00	-59.121	-178.895	
226.00	-52.499	-178.505	
227.00	-49.335	170.009	
228.00	-47.597	158.794	
229.00	-46.375	145.723	
230.00	-45.818	133.539	
231.00	-45.458	119.810	
232.00	-45.621	107.706	
233.00	-46.129	95.680	
234.00	-46.967	83.638	
235.00	-48.151	74.668	
236.00	-49.787	65.907	
237.00	-51.538	59.669	
238.00	-53.584	56.600	
239.00	-55.208	56.014	
240.00	-56.777	59.843	
241.00	-57.422	60.035	
242.00	-57.963	57.482	
243.00	-58.047	48.215	
244.00	-58.602	38.841	
245.00	-58.179	29.756	
246.00	-59.720	-4.568	
247.00	-59.746	-21.691	
248.00	-60.361	-44.459	
249.00	-60.219	-67.672	
250.00	-61.537	-95.999	
251.00	-61.827	-118.809	
252.00	-61.173	-137.732	
253.00	-62.289	-148.346	
254.00	-64.920	-170.518	
255.00	-66.403	162.436	
256.00	-70.721	138.514	
257.00	-74.335	65.601	
258.00	-67.810	13.921	
259.00	-65.982	-2.500	
260.00	-61.134	-34.681	
261.00	-61.145	-53.094	
262.00	-60.691	-71.208	
263.00	-60.101	-87.079	
264.00	-59.845	-109.592	
265.00	-59.958	-129.691	
266.00	-59.980	-151.719	
267.00	-59.912	-164.354	
268.00	-59.834	171.715	
269.00	-59.671	153.172	
270.00	-59.785	135.108	
271.00	-59.475	122.573	
272.00	-58.713	100.596	
273.00	-58.480	87.884	
274.00	-59.698	78.837	
275.00	-60.041	70.694	
276.00	-62.467	67.525	
277.00	-64.810	58.767	
278.00	-68.986	62.279	
279.00	-73.616	77.450	
280.00	-71.206	142.098	
281.00	-66.776	148.031	
282.00	-64.533	142.038	
283.00	-62.458	130.009	
284.00	-61.238	119.977	
285.00	-61.777	108.660	
286.00	-61.957	101.399	
287.00	-63.999	81.108	
288.00	-71.724	100.228	
289.00	-70.741	113.704	
290.00	-70.432	-155.421	
291.00	-65.718	-142.461	
292.00	-64.190	-148.267	
293.00	-62.296	-163.649	
294.00	-60.245	163.523	
295.00	-60.189	152.914	
296.00	-61.861	117.810	
297.00	-61.406	94.071	
298.00	-62.491	80.562	
299.00	-61.601	46.552	
300.00	-62.747	19.034	
301.00	-63.900	-14.129	
302.00	-63.385	-49.569	
303.00	-64.525	-93.933	
304.00	-61.494	-114.892	
305.00	-61.207	-158.508	
306.00	-60.486	-172.452	
307.00	-59.673	166.696	
308.00	-60.207	137.110	
309.00	-59.321	126.706	
310.00	-60.699	110.056	
311.00	-61.761	90.138	
312.00	-64.372	75.411	
313.00	-65.573	66.137	
314.00	-68.480	45.710	
315.00	-75.682	36.946	
316.00	-72.656	16.509	
317.00	-92.260	-61.479	
318.00	-75.853	-131.618	
319.00	-76.429	-130.720	
320.00	-75.331	-156.260	
321.00	-67.964	169.671	
322.00	-71.229	152.424	
323.00	-69.572	127.884	
324.00	-68.908	125.048	
325.00	-72.485	108.434	
326.00	-76.617	69.190	
327.00	-72.252	-5.164	
328.00	-68.829	-45.419	
329.00	-63.069	-61.671	
330.00	-59.734	-75.538	
331.00	-56.920	-95.138	
332.00	-55.696	-102.040	
333.00	-54.671	-110.569	
334.00	-53.682	-118.630	
335.00	-53.097	-128.184	
336.00	-52.530	-141.595	
337.00	-52.475	-158.660	
338.00	-52.804	-175.021	
339.00	-54.256	163.502	
340.00	-55.482	140.215	
341.00	-56.935	106.566	
342.00	-57.496	85.213	
343.00	-56.649	62.953	
344.00	-56.903	39.060	
345.00	-58.615	8.210	
346.00	-58.414	-10.164	
347.00	-64.058	-39.524	
348.00	-62.632	-56.675	
349.00	-67.757	-104.365	
350.00	-63.180	-121.692	
351.00	-64.680	-138.365	
352.00	-60.297	169.059	
353.00	-60.252	166.889	
354.00	-62.386	172.427	
355.00	-63.322	172.752	
356.00	-67.556	-157.474	
357.00	-69.355	-158.912	
358.00	-66.632	-175.826	
359.00	-69.180	-154.683	
Frequency	2300.00	MHz	
Channel	test		
Scan Axis name	Azimuth  [deg]		
Scan Axis	Amplitude	Phase	
			
0.00	-61.743	-149.749	
1.00	-62.366	-139.358	
2.00	-76.756	168.777	
3.00	-68.099	-157.622	
4.00	-71.458	-85.406	
5.00	-69.029	-70.375	
6.00	-65.149	-63.936	
7.00	-70.750	-35.472	
8.00	-63.673	-62.774	
9.00	-65.684	-24.983	
10.00	-63.540	-61.816	
11.00	-69.322	-52.570	
12.00	-73.606	51.910	
13.00	-80.101	171.561	
14.00	-79.478	85.541	
15.00	-73.368	62.846	
16.00	-74.561	-138.087	
17.00	-77.284	-124.755	
18.00	-71.248	-77.147	
19.00	-70.916	-42.054	
20.00	-73.714	-157.004	
21.00	-69.839	-104.630	
22.00	-68.421	-158.912	
23.00	-66.763	-162.447	
24.00	-67.447	-157.017	
25.00	-65.280	167.652	
26.00	-67.324	168.155	
27.00	-68.257	153.445	
28.00	-73.222	125.764	
29.00	-71.121	60.667	
30.00	-68.883	27.727	
31.00	-65.169	16.950	
32.00	-60.306	22.427	
33.00	-58.267	33.939	
34.00	-58.766	31.165	
35.00	-58.971	40.260	
36.00	-60.603	44.387	
37.00	-62.140	46.899	
38.00	-62.983	18.094	
39.00	-66.854	35.572	
40.00	-65.302	16.917	
41.00	-63.942	34.047	
42.00	-63.819	41.238	
43.00	-63.874	62.730	
44.00	-62.841	80.128	
45.00	-62.808	89.627	
46.00	-64.092	97.515	
47.00	-64.424	131.083	
48.00	-67.399	132.458	
49.00	-66.409	144.680	
50.00	-68.087	168.552	
51.00	-66.544	-172.788	
52.00	-63.233	-165.690	
53.00	-64.091	-152.661	
54.00	-66.773	-129.400	
55.00	-66.628	-136.904	
56.00	-72.981	-102.835	
57.00	-74.102	25.318	
58.00	-73.510	79.734	
59.00	-62.940	103.580	
60.00	-60.810	103.890	
61.00	-60.106	115.484	
62.00	-61.378	125.691	
63.00	-61.459	140.091	
64.00	-64.673	175.190	
65.00	-70.849	-135.278	
66.00	-70.139	-68.041	
67.00	-66.621	-17.289	
68.00	-63.379	13.685	
69.00	-63.153	37.380	
70.00	-61.639	65.451	
71.00	-59.877	92.294	
72.00	-58.721	115.897	
73.00	-57.654	134.803	
74.00	-57.221	155.905	
75.00	-56.945	168.894	
76.00	-58.368	-175.921	
77.00	-59.383	-155.087	
78.00	-61.359	-139.832	
79.00	-64.903	-112.187	
80.00	-69.509	-77.830	
81.00	-65.480	-6.080	
82.00	-67.100	36.771	
83.00	-62.076	58.070	
84.00	-63.606	65.502	
85.00	-62.744	86.898	
86.00	-61.089	105.359	
87.00	-59.771	117.350	
88.00	-62.728	141.322	
89.00	-64.511	122.531	
90.00	-65.969	171.814	
91.00	-66.955	-142.790	
92.00	-63.363	-133.024	
93.00	-64.821	-134.682	
94.00	-62.700	-97.398	
95.00	-61.764	-82.282	
96.00	-62.059	-73.638	
97.00	-62.060	-67.005	
98.00	-61.473	-61.402	
99.00	-62.270	-57.723	
100.00	-61.651	-43.084	
101.00	-62.561	-28.120	
102.00	-64.200	-23.752	
103.00	-65.662	-14.752	
104.00	-68.423	-18.049	
105.00	-68.473	-9.454	
106.00	-69.161	19.437	
107.00	-69.583	21.582	
108.00	-69.418	36.300	
109.00	-67.758	53.738	
110.00	-66.368	67.016	
111.00	-63.071	77.783	
112.00	-61.589	91.542	
113.00	-59.314	103.820	
114.00	-57.180	112.502	
115.00	-55.511	122.312	
116.00	-54.056	132.631	
117.00	-52.962	144.636	
118.00	-52.422	156.406	
119.00	-52.148	166.571	
120.00	-52.265	-179.375	
121.00	-52.928	-166.037	
122.00	-53.526	-149.077	
123.00	-54.969	-133.869	
124.00	-56.409	-109.698	
125.00	-57.929	-93.080	
126.00	-60.625	-72.818	
127.00	-64.171	-77.078	
128.00	-68.428	-124.225	
129.00	-61.682	-170.292	
130.00	-56.840	-159.697	
131.00	-53.630	-150.439	
132.00	-51.389	-136.129	
133.00	-50.639	-118.616	
134.00	-49.720	-94.715	
135.00	-48.707	-75.065	
136.00	-47.572	-53.732	
137.00	-46.852	-34.996	
138.00	-46.394	-19.268	
139.00	-46.501	-3.675	
140.00	-47.523	10.488	
141.00	-49.623	27.851	
142.00	-52.789	50.599	
143.00	-58.747	87.276	
144.00	-59.749	169.105	
145.00	-54.330	-143.166	
146.00	-51.270	-118.032	
147.00	-49.248	-97.944	
148.00	-48.322	-82.073	
149.00	-47.889	-66.963	
150.00	-48.377	-51.473	
151.00	-49.368	-38.333	
152.00	-51.460	-22.658	
153.00	-54.493	-11.642	
154.00	-60.113	-16.863	
155.00	-62.468	-73.037	
156.00	-54.587	-102.808	
157.00	-50.006	-101.767	
158.00	-47.081	-98.068	
159.00	-45.574	-90.067	
160.00	-44.807	-83.658	
161.00	-44.809	-78.672	
162.00	-45.820	-76.421	
163.00	-47.299	-80.377	
164.00	-49.646	-95.591	
165.00	-50.126	-126.433	
166.00	-49.246	-150.767	
167.00	-46.779	-165.792	
168.00	-46.115	-172.452	
169.00	-46.248	-178.926	
170.00	-48.164	173.915	
171.00	-50.835	159.557	
172.00	-58.513	119.802	
173.00	-56.746	37.030	
174.00	-52.241	-3.074	
175.00	-48.031	-38.563	
176.00	-43.309	-65.748	
177.00	-38.663	-83.389	
178.00	-34.744	-93.520	
179.00	-31.541	-100.587	
180.00	-29.052	-105.676	
181.00	-27.093	-108.939	
182.00	-25.697	-111.445	
183.00	-24.798	-113.619	
184.00	-24.367	-115.783	
185.00	-24.395	-117.379	
186.00	-24.908	-119.387	
187.00	-25.962	-120.810	
188.00	-27.581	-122.248	
189.00	-29.981	-123.275	
190.00	-33.312	-123.106	
191.00	-38.193	-119.488	
192.00	-46.437	-99.494	
193.00	-49.787	-12.137	
194.00	-44.519	17.364	
195.00	-43.024	22.659	
196.00	-43.841	24.450	
197.00	-46.593	29.022	
198.00	-52.465	50.681	
199.00	-53.754	125.177	
200.00	-48.838	151.631	
201.00	-46.391	156.887	
202.00	-45.653	156.837	
203.00	-46.475	155.434	
204.00	-49.345	158.821	
205.00	-53.693	169.005	
206.00	-56.955	-137.712	
207.00	-52.572	-104.189	
208.00	-49.806	-99.819	
209.00	-49.304	-107.784	
210.00	-49.907	-117.167	
211.00	-52.417	-137.559	
212.00	-55.546	179.521	
213.00	-54.092	116.488	
214.00	-49.547	80.763	
215.00	-46.303	62.760	
216.00	-44.347	51.784	
217.00	-43.128	36.824	
218.00	-43.024	26.318	
219.00	-43.305	17.230	
220.00	-44.411	8.971	
221.00	-46.277	1.528	
222.00	-48.953	-0.877	
223.00	-53.227	3.742	
224.00	-56.118	30.021	
225.00	-54.565	62.955	
226.00	-51.445	72.517	
227.00	-49.123	68.930	
228.00	-47.707	61.565	
229.00	-46.616	52.657	
230.00	-46.062	44.194	
231.00	-45.863	34.425	
232.00	-45.806	24.131	
233.00	-45.870	17.642	
234.00	-46.196	8.853	
235.00	-46.266	-0.160	
236.00	-46.928	-7.709	
237.00	-47.513	-16.791	
238.00	-48.356	-26.130	
239.00	-49.259	-36.056	
240.00	-50.750	-48.701	
241.00	-52.389	-61.859	
242.00	-54.620	-81.487	
243.00	-57.237	-106.371	
244.00	-59.330	-141.747	
245.00	-59.754	-178.898	
246.00	-57.933	147.644	
247.00	-57.088	124.066	
248.00	-56.869	106.483	
249.00	-57.083	83.975	
250.00	-57.826	71.584	
251.00	-58.890	47.279	
252.00	-58.995	26.885	
253.00	-59.670	-2.338	
254.00	-60.801	-28.091	
255.00	-61.242	-48.379	
256.00	-62.438	-77.493	
257.00	-63.810	-107.118	
258.00	-63.166	-146.181	
259.00	-61.597	-160.224	
260.00	-60.690	162.841	
261.00	-61.359	151.291	
262.00	-60.627	138.662	
263.00	-60.506	125.223	
264.00	-60.947	112.754	
265.00	-61.743	99.879	
266.00	-65.618	115.126	
267.00	-62.610	76.491	
268.00	-64.509	69.262	
269.00	-65.595	55.771	
270.00	-70.652	50.346	
271.00	-70.021	62.528	
272.00	-76.236	73.602	
273.00	-82.051	102.210	
274.00	-75.156	143.858	
275.00	-70.547	138.198	
276.00	-67.776	140.794	
277.00	-67.754	131.904	
278.00	-67.428	125.140	
279.00	-67.303	121.544	
280.00	-67.237	98.668	
281.00	-68.341	94.081	
282.00	-67.474	66.204	
283.00	-68.191	55.586	
284.00	-67.934	26.786	
285.00	-69.585	-1.483	
286.00	-70.417	-24.566	
287.00	-67.541	-44.871	
288.00	-69.781	-39.719	
289.00	-77.126	-77.900	
290.00	-77.179	-167.941	
291.00	-77.200	149.605	
292.00	-79.041	96.282	
293.00	-67.810	117.021	
294.00	-73.757	95.384	
295.00	-69.721	80.884	
296.00	-72.633	55.032	
297.00	-69.478	80.747	
298.00	-70.768	66.844	
299.00	-66.781	78.810	
300.00	-66.827	69.487	
301.00	-64.415	58.131	
302.00	-62.822	49.771	
303.00	-61.282	38.005	
304.00	-60.169	28.258	
305.00	-59.806	8.947	
306.00	-60.414	-6.814	
307.00	-59.315	-21.675	
308.00	-59.306	-45.408	
309.00	-59.841	-58.032	
310.00	-60.582	-78.474	
311.00	-60.512	-107.614	
312.00	-62.600	-131.398	
313.00	-64.916	-148.008	
314.00	-68.151	174.843	
315.00	-72.252	112.852	
316.00	-66.219	54.877	
317.00	-60.881	21.228	
318.00	-57.936	8.495	
319.00	-56.759	-4.472	
320.00	-55.897	-16.079	
321.00	-55.071	-28.323	
322.00	-55.471	-33.994	
323.00	-56.367	-41.254	
324.00	-58.283	-52.419	
325.00	-60.743	-57.955	
326.00	-62.619	-55.020	
327.00	-65.928	-47.373	
328.00	-68.617	-36.278	
329.00	-68.833	-15.135	
330.00	-74.105	-35.912	
331.00	-72.023	-41.619	
332.00	-73.889	-92.764	
333.00	-65.991	-136.358	
334.00	-65.134	-155.512	
335.00	-62.077	-167.975	
336.00	-63.256	-172.266	
337.00	-63.582	-177.694	
338.00	-63.400	177.322	
339.00	-64.144	169.952	
340.00	-67.831	158.574	
341.00	-71.800	152.915	
342.00	-69.884	132.599	
343.00	-69.496	95.573	
344.00	-69.037	86.997	
345.00	-65.926	71.653	
346.00	-64.995	71.041	
347.00	-63.284	69.886	
348.00	-65.332	55.519	
349.00	-65.335	57.589	
350.00	-63.240	72.605	
351.00	-66.943	36.744	
352.00	-74.908	67.833	
353.00	-77.812	-168.779	
354.00	-68.194	-115.977	
355.00	-63.690	-124.706	
356.00	-62.510	-129.200	
357.00	-61.152	-139.867	
358.00	-59.122	-132.535	
359.00	-60.080	-141.919	
Frequency	2350.00	MHz	
Channel	test		
Scan Axis name	Azimuth  [deg]		
Scan Axis	Amplitude	Phase	
			
0.00	-60.615	-69.652	
1.00	-61.890	-80.606	
2.00	-63.072	-96.498	
3.00	-62.976	-109.716	
4.00	-63.136	-116.038	
5.00	-63.513	-116.440	
6.00	-64.148	-113.975	
7.00	-65.520	-110.658	
8.00	-67.250	-108.276	
9.00	-70.577	-109.669	
10.00	-76.644	-140.431	
11.00	-73.934	136.628	
12.00	-66.487	121.493	
13.00	-62.622	119.067	
14.00	-60.537	122.357	
15.00	-59.815	126.432	
16.00	-60.053	130.881	
17.00	-61.575	137.092	
18.00	-63.732	141.275	
19.00	-67.793	157.120	
20.00	-70.492	-173.106	
21.00	-70.659	-135.327	
22.00	-68.478	-107.839	
23.00	-66.700	-96.394	
24.00	-66.396	-82.278	
25.00	-66.733	-73.266	
26.00	-67.947	-61.797	
27.00	-69.509	-48.983	
28.00	-70.148	-33.311	
29.00	-69.216	-15.053	
30.00	-68.925	-0.358	
31.00	-68.030	19.019	
32.00	-66.907	41.789	
33.00	-65.819	62.613	
34.00	-65.540	87.550	
35.00	-65.749	110.084	
36.00	-66.771	132.298	
37.00	-70.054	155.295	
38.00	-73.321	-152.731	
39.00	-73.330	-92.151	
40.00	-70.319	-65.056	
41.00	-68.577	-51.069	
42.00	-68.051	-51.849	
43.00	-67.545	-62.414	
44.00	-65.470	-70.493	
45.00	-64.532	-94.690	
46.00	-64.343	-77.528	
47.00	-64.233	-71.918	
48.00	-65.625	-76.286	
49.00	-65.801	-85.420	
50.00	-66.107	-88.355	
51.00	-64.269	-88.752	
52.00	-64.287	-75.644	
53.00	-62.943	-58.936	
54.00	-62.771	-27.788	
55.00	-61.790	4.377	
56.00	-59.643	32.347	
57.00	-58.260	60.362	
58.00	-55.537	84.451	
59.00	-56.092	104.925	
60.00	-55.890	117.888	
61.00	-56.787	134.107	
62.00	-58.063	148.011	
63.00	-61.605	155.094	
64.00	-64.708	152.776	
65.00	-68.743	105.033	
66.00	-64.288	84.798	
67.00	-60.553	85.431	
68.00	-58.887	98.364	
69.00	-58.107	118.549	
70.00	-58.188	139.106	
71.00	-58.080	164.661	
72.00	-57.727	-164.577	
73.00	-56.930	-136.762	
74.00	-56.019	-111.938	
75.00	-55.254	-90.534	
76.00	-54.885	-69.186	
77.00	-54.829	-49.398	
78.00	-55.179	-29.683	
79.00	-55.886	-10.942	
80.00	-56.812	8.052	
81.00	-58.106	31.103	
82.00	-60.119	51.798	
83.00	-62.998	83.645	
84.00	-64.749	119.578	
85.00	-65.305	156.360	
86.00	-65.092	-164.348	
87.00	-63.042	-123.319	
88.00	-61.571	-103.254	
89.00	-60.523	-89.924	
90.00	-61.045	-55.196	
91.00	-59.731	-31.918	
92.00	-59.541	-13.772	
93.00	-58.868	12.338	
94.00	-58.036	33.927	
95.00	-57.516	52.176	
96.00	-57.804	68.012	
97.00	-58.220	82.508	
98.00	-58.957	98.527	
99.00	-60.110	116.147	
100.00	-61.590	138.369	
101.00	-63.753	172.206	
102.00	-65.786	-164.035	
103.00	-67.514	-138.082	
104.00	-69.282	-98.768	
105.00	-71.495	-74.977	
106.00	-73.376	-34.460	
107.00	-74.765	27.098	
108.00	-70.301	63.630	
109.00	-67.931	88.408	
110.00	-65.510	102.315	
111.00	-64.441	111.561	
112.00	-63.430	116.448	
113.00	-62.373	118.283	
114.00	-61.600	117.817	
115.00	-61.231	118.654	
116.00	-61.001	119.995	
117.00	-60.709	122.630	
118.00	-61.817	131.760	
119.00	-64.011	140.448	
120.00	-70.495	166.793	
121.00	-71.893	-88.103	
122.00	-63.248	-45.534	
123.00	-58.371	-31.866	
124.00	-55.146	-20.789	
125.00	-53.495	-10.659	
126.00	-52.527	-1.121	
127.00	-52.472	8.739	
128.00	-53.001	17.787	
129.00	-54.543	25.669	
130.00	-56.845	31.521	
131.00	-59.869	30.180	
132.00	-61.480	14.250	
133.00	-59.552	-3.317	
134.00	-56.098	-2.110	
135.00	-52.963	7.764	
136.00	-50.092	21.321	
137.00	-47.930	33.740	
138.00	-46.371	45.072	
139.00	-45.572	57.062	
140.00	-45.332	67.886	
141.00	-45.797	78.734	
142.00	-47.061	89.738	
143.00	-49.142	100.527	
144.00	-52.481	109.206	
145.00	-58.594	110.110	
146.00	-67.490	40.422	
147.00	-57.580	-3.476	
148.00	-53.318	0.332	
149.00	-51.165	10.608	
150.00	-50.729	21.315	
151.00	-51.169	34.432	
152.00	-52.298	48.961	
153.00	-54.515	62.241	
154.00	-58.218	69.906	
155.00	-64.023	44.541	
156.00	-59.963	-17.911	
157.00	-53.572	-23.084	
158.00	-49.895	-17.826	
159.00	-47.495	-9.523	
160.00	-46.153	-2.123	
161.00	-45.536	5.175	
162.00	-45.694	10.848	
163.00	-46.761	12.552	
164.00	-48.943	7.279	
165.00	-51.828	-13.456	
166.00	-52.562	-54.375	
167.00	-49.798	-82.862	
168.00	-47.562	-95.932	
169.00	-46.733	-104.449	
170.00	-47.226	-113.898	
171.00	-48.807	-129.333	
172.00	-50.674	-158.892	
173.00	-50.250	161.671	
174.00	-48.473	130.941	
175.00	-47.078	103.880	
176.00	-45.647	72.125	
177.00	-42.661	38.145	
178.00	-38.673	15.219	
179.00	-34.954	1.403	
180.00	-31.959	-7.172	
181.00	-29.652	-12.918	
182.00	-27.950	-17.075	
183.00	-26.822	-20.486	
184.00	-26.196	-23.573	
185.00	-26.062	-25.984	
186.00	-26.435	-28.636	
187.00	-27.344	-31.054	
188.00	-28.838	-33.228	
189.00	-31.058	-35.066	
190.00	-34.164	-36.076	
191.00	-38.724	-35.195	
192.00	-46.278	-25.090	
193.00	-54.680	59.940	
194.00	-47.267	105.692	
195.00	-45.005	110.051	
196.00	-45.277	110.317	
197.00	-47.485	107.643	
198.00	-52.534	104.993	
199.00	-67.116	99.634	
200.00	-58.213	-74.779	
201.00	-53.322	-72.211	
202.00	-51.821	-65.370	
203.00	-51.226	-50.604	
204.00	-49.902	-30.723	
205.00	-47.781	-17.401	
206.00	-45.929	-11.932	
207.00	-44.894	-12.290	
208.00	-44.790	-16.473	
209.00	-45.777	-23.581	
210.00	-48.032	-36.122	
211.00	-52.142	-60.940	
212.00	-55.203	-124.174	
213.00	-50.764	-175.353	
214.00	-46.839	162.147	
215.00	-44.628	148.597	
216.00	-43.462	138.202	
217.00	-43.299	128.672	
218.00	-43.823	120.537	
219.00	-45.224	113.288	
220.00	-47.430	108.841	
221.00	-50.683	108.232	
222.00	-54.793	122.235	
223.00	-56.348	153.770	
224.00	-54.088	173.697	
225.00	-51.723	175.650	
226.00	-50.260	170.254	
227.00	-49.510	161.934	
228.00	-49.192	153.189	
229.00	-49.170	142.851	
230.00	-49.666	132.760	
231.00	-50.338	123.293	
232.00	-51.008	113.350	
233.00	-51.105	102.611	
234.00	-51.905	92.217	
235.00	-52.640	81.077	
236.00	-52.830	70.041	
237.00	-53.511	60.638	
238.00	-54.516	49.507	
239.00	-56.182	35.891	
240.00	-58.578	19.124	
241.00	-61.304	-7.609	
242.00	-64.255	-51.829	
243.00	-63.107	-102.114	
244.00	-59.990	-133.825	
245.00	-57.529	-147.611	
246.00	-57.183	-171.415	
247.00	-57.042	173.656	
248.00	-57.218	157.743	
249.00	-58.228	137.381	
250.00	-59.371	115.966	
251.00	-60.706	92.123	
252.00	-61.476	62.691	
253.00	-61.730	36.228	
254.00	-61.426	10.855	
255.00	-61.217	-7.803	
256.00	-61.074	-24.050	
257.00	-61.580	-42.502	
258.00	-62.985	-53.661	
259.00	-66.574	-62.774	
260.00	-65.278	-55.888	
261.00	-69.272	-76.472	
262.00	-72.719	-76.896	
263.00	-77.479	-73.262	
264.00	-79.388	-38.017	
265.00	-70.678	-71.016	
266.00	-67.813	-115.392	
267.00	-72.491	-60.688	
268.00	-70.969	-78.643	
269.00	-70.157	-80.641	
270.00	-68.943	-91.631	
271.00	-69.423	-101.387	
272.00	-69.120	-110.000	
273.00	-68.559	-120.354	
274.00	-68.732	-126.954	
275.00	-68.408	-133.102	
276.00	-68.369	-141.402	
277.00	-69.588	-148.441	
278.00	-68.642	-153.117	
279.00	-69.948	-159.126	
280.00	-73.163	-148.933	
281.00	-75.413	-144.327	
282.00	-76.862	-88.605	
283.00	-72.320	-54.466	
284.00	-68.203	-46.133	
285.00	-67.062	-53.014	
286.00	-65.120	-47.992	
287.00	-66.056	-51.510	
288.00	-66.456	-58.776	
289.00	-72.570	-38.612	
290.00	-79.891	26.735	
291.00	-71.420	54.682	
292.00	-69.793	47.254	
293.00	-64.088	51.321	
294.00	-61.524	51.099	
295.00	-62.246	30.784	
296.00	-63.563	8.378	
297.00	-63.721	-5.596	
298.00	-63.610	-39.052	
299.00	-62.565	-63.821	
300.00	-62.147	-92.178	
301.00	-61.475	-110.694	
302.00	-60.435	-130.866	
303.00	-60.894	-145.759	
304.00	-61.704	-170.491	
305.00	-63.019	168.597	
306.00	-65.592	137.783	
307.00	-66.083	100.030	
308.00	-64.579	60.655	
309.00	-62.497	38.610	
310.00	-62.603	14.101	
311.00	-62.347	-5.179	
312.00	-63.254	-27.044	
313.00	-63.928	-61.443	
314.00	-63.448	-82.804	
315.00	-62.746	-108.419	
316.00	-63.219	-123.927	
317.00	-64.528	-146.950	
318.00	-66.245	-164.594	
319.00	-70.012	163.387	
320.00	-71.152	124.468	
321.00	-68.965	93.415	
322.00	-66.708	82.512	
323.00	-64.890	77.832	
324.00	-63.730	76.959	
325.00	-62.576	80.907	
326.00	-61.484	84.657	
327.00	-61.766	86.029	
328.00	-61.556	89.808	
329.00	-62.683	89.758	
330.00	-63.468	94.587	
331.00	-64.340	107.262	
332.00	-66.342	117.048	
333.00	-67.300	136.937	
334.00	-67.206	158.388	
335.00	-66.684	173.751	
336.00	-65.522	-173.885	
337.00	-64.322	-167.148	
338.00	-64.297	-166.077	
339.00	-64.520	-169.541	
340.00	-65.595	-174.208	
341.00	-67.114	-178.516	
342.00	-69.436	173.483	
343.00	-72.909	163.504	
344.00	-75.078	156.700	
345.00	-77.693	163.495	
346.00	-78.076	168.683	
347.00	-76.620	-166.044	
348.00	-74.819	-149.685	
349.00	-73.879	-125.488	
350.00	-71.222	-96.525	
351.00	-68.591	-73.302	
352.00	-64.576	-58.365	
353.00	-61.230	-52.576	
354.00	-59.085	-51.770	
355.00	-57.517	-52.089	
356.00	-56.821	-53.908	
357.00	-56.836	-55.932	
358.00	-57.334	-59.262	
359.00	-58.119	-62.404	
Frequency	2400.00	MHz	
Channel	test		
Scan Axis name	Azimuth  [deg]		
Scan Axis	Amplitude	Phase	
			
0.00	-71.455	-59.125	
1.00	-71.928	-84.477	
2.00	-70.959	-104.721	
3.00	-69.611	-127.421	
4.00	-69.376	-148.317	
5.00	-67.260	-158.577	
6.00	-66.644	-165.207	
7.00	-66.361	-172.731	
8.00	-65.173	179.944	
9.00	-64.934	179.587	
10.00	-64.075	179.943	
11.00	-62.884	-169.822	
12.00	-62.987	-168.640	
13.00	-63.416	-164.014	
14.00	-63.475	-158.727	
15.00	-64.697	-155.481	
16.00	-66.690	-150.180	
17.00	-70.572	-138.624	
18.00	-73.414	-86.774	
19.00	-70.759	-58.671	
20.00	-66.763	-39.825	
21.00	-64.413	-40.840	
22.00	-64.042	-39.142	
23.00	-63.477	-43.331	
24.00	-63.712	-40.188	
25.00	-64.116	-43.099	
26.00	-65.601	-39.550	
27.00	-67.581	-44.197	
28.00	-69.597	-50.730	
29.00	-73.742	-50.932	
30.00	-81.787	-72.387	
31.00	-73.161	-118.783	
32.00	-73.345	-136.329	
33.00	-69.016	-129.270	
34.00	-72.734	-132.711	
35.00	-74.112	-117.552	
36.00	-74.961	-66.266	
37.00	-69.975	-11.524	
38.00	-65.238	8.243	
39.00	-62.394	19.418	
40.00	-62.125	28.623	
41.00	-62.156	32.889	
42.00	-64.163	37.243	
43.00	-65.076	38.279	
44.00	-66.758	28.379	
45.00	-72.944	48.058	
46.00	-68.818	39.828	
47.00	-68.570	41.134	
48.00	-68.776	67.596	
49.00	-67.943	90.954	
50.00	-68.279	119.728	
51.00	-66.331	130.531	
52.00	-66.211	134.257	
53.00	-66.118	140.577	
54.00	-66.427	142.627	
55.00	-65.508	138.578	
56.00	-65.654	150.486	
57.00	-65.178	166.480	
58.00	-65.588	178.924	
59.00	-63.591	-161.434	
60.00	-65.668	-135.519	
61.00	-65.908	-103.384	
62.00	-64.984	-83.656	
63.00	-66.435	-39.666	
64.00	-68.361	-23.296	
65.00	-68.055	20.778	
66.00	-69.560	61.015	
67.00	-67.043	112.636	
68.00	-65.611	142.130	
69.00	-64.506	168.026	
70.00	-64.536	-161.912	
71.00	-64.103	-133.267	
72.00	-65.056	-103.113	
73.00	-65.624	-62.095	
74.00	-64.636	-28.600	
75.00	-63.850	9.600	
76.00	-62.225	37.925	
77.00	-61.150	65.168	
78.00	-60.187	89.717	
79.00	-59.693	113.980	
80.00	-59.170	140.542	
81.00	-58.498	161.843	
82.00	-58.400	-176.561	
83.00	-57.634	-156.514	
84.00	-57.628	-135.432	
85.00	-57.546	-114.728	
86.00	-57.560	-96.471	
87.00	-58.122	-77.961	
88.00	-59.128	-67.512	
89.00	-60.769	-38.992	
90.00	-61.826	-17.927	
91.00	-63.870	15.599	
92.00	-64.468	51.233	
93.00	-62.478	78.888	
94.00	-64.792	106.065	
95.00	-62.462	136.080	
96.00	-61.001	162.495	
97.00	-59.829	-176.183	
98.00	-58.701	-158.567	
99.00	-57.970	-142.534	
100.00	-57.776	-126.103	
101.00	-58.505	-101.808	
102.00	-59.357	-86.382	
103.00	-61.035	-68.384	
104.00	-63.163	-50.709	
105.00	-66.627	-25.559	
106.00	-69.640	8.392	
107.00	-70.423	68.168	
108.00	-68.980	95.979	
109.00	-67.878	132.129	
110.00	-67.970	151.326	
111.00	-67.540	-179.378	
112.00	-67.992	-157.735	
113.00	-65.750	-149.519	
114.00	-65.848	-137.465	
115.00	-64.823	-137.900	
116.00	-64.922	-138.598	
117.00	-64.784	-137.227	
118.00	-63.589	-136.311	
119.00	-64.370	-130.324	
120.00	-67.319	-108.569	
121.00	-69.977	-40.825	
122.00	-64.160	13.354	
123.00	-59.378	31.920	
124.00	-55.925	47.348	
125.00	-54.157	61.800	
126.00	-53.266	74.625	
127.00	-53.157	90.463	
128.00	-53.586	105.533	
129.00	-54.771	128.345	
130.00	-56.162	154.776	
131.00	-57.956	-173.269	
132.00	-59.592	-138.414	
133.00	-60.788	-94.181	
134.00	-61.158	-40.916	
135.00	-58.492	10.006	
136.00	-55.114	45.993	
137.00	-51.796	70.876	
138.00	-49.922	91.053	
139.00	-48.717	108.833	
140.00	-48.052	127.261	
141.00	-48.093	144.251	
142.00	-48.666	161.290	
143.00	-50.115	-178.639	
144.00	-52.509	-157.643	
145.00	-55.890	-127.377	
146.00	-59.101	-70.056	
147.00	-56.637	-14.847	
148.00	-53.281	14.194	
149.00	-51.314	30.608	
150.00	-50.674	44.873	
151.00	-51.122	55.495	
152.00	-52.203	65.289	
153.00	-54.058	73.357	
154.00	-56.725	77.649	
155.00	-59.513	79.253	
156.00	-60.513	70.789	
157.00	-59.829	67.858	
158.00	-58.425	72.085	
159.00	-56.467	82.653	
160.00	-54.950	93.772	
161.00	-53.918	101.997	
162.00	-53.693	107.659	
163.00	-54.949	106.648	
164.00	-58.049	94.876	
165.00	-60.871	46.295	
166.00	-56.399	1.864	
167.00	-52.016	-12.811	
168.00	-49.682	-17.136	
169.00	-48.589	-20.200	
170.00	-48.671	-23.678	
171.00	-49.843	-29.541	
172.00	-52.330	-42.763	
173.00	-55.393	-71.915	
174.00	-56.327	-117.940	
175.00	-55.402	-159.138	
176.00	-54.180	160.531	
177.00	-50.952	113.606	
178.00	-45.890	85.144	
179.00	-41.337	69.481	
180.00	-37.866	59.818	
181.00	-35.249	53.608	
182.00	-33.296	48.912	
183.00	-32.023	44.724	
184.00	-31.278	40.676	
185.00	-31.099	36.970	
186.00	-31.409	32.735	
187.00	-32.344	28.620	
188.00	-33.872	24.005	
189.00	-36.167	18.452	
190.00	-39.423	11.306	
191.00	-44.015	-0.160	
192.00	-51.260	-26.916	
193.00	-55.494	-104.208	
194.00	-51.406	-144.268	
195.00	-49.395	-155.610	
196.00	-50.701	-162.403	
197.00	-53.917	-163.286	
198.00	-59.473	-150.110	
199.00	-63.913	-85.817	
200.00	-59.768	-59.019	
201.00	-59.434	-49.641	
202.00	-61.543	-50.416	
203.00	-70.579	24.148	
204.00	-59.471	80.415	
205.00	-54.264	79.457	
206.00	-51.322	71.147	
207.00	-50.151	59.443	
208.00	-50.100	45.667	
209.00	-50.869	26.326	
210.00	-52.294	-1.387	
211.00	-53.131	-37.859	
212.00	-52.263	-80.708	
213.00	-50.188	-109.905	
214.00	-48.440	-132.763	
215.00	-47.471	-151.842	
216.00	-47.119	-167.839	
217.00	-47.597	176.286	
218.00	-49.105	163.035	
219.00	-51.572	147.450	
220.00	-54.842	130.812	
221.00	-65.656	103.198	
222.00	-65.966	-52.838	
223.00	-57.390	-74.508	
224.00	-53.513	-96.780	
225.00	-51.295	-111.544	
226.00	-50.482	-125.256	
227.00	-50.149	-138.908	
228.00	-50.349	-152.248	
229.00	-51.052	-163.828	
230.00	-52.377	-175.198	
231.00	-53.992	173.092	
232.00	-55.870	164.921	
233.00	-58.643	150.609	
234.00	-61.238	139.407	
235.00	-64.443	116.761	
236.00	-66.969	90.389	
237.00	-66.629	40.754	
238.00	-63.911	17.558	
239.00	-61.735	-7.326	
240.00	-59.995	-22.042	
241.00	-58.821	-37.230	
242.00	-58.155	-56.231	
243.00	-57.547	-73.016	
244.00	-57.535	-91.327	
245.00	-56.911	-120.368	
246.00	-57.344	-135.679	
247.00	-57.414	-159.675	
248.00	-57.196	179.787	
249.00	-57.694	158.307	
250.00	-58.244	139.766	
251.00	-58.641	117.943	
252.00	-60.000	97.025	
253.00	-60.955	75.573	
254.00	-63.061	50.836	
255.00	-64.060	23.666	
256.00	-65.517	0.864	
257.00	-67.133	-29.465	
258.00	-69.862	-88.118	
259.00	-68.034	-108.016	
260.00	-72.008	-148.759	
261.00	-70.578	-178.436	
262.00	-67.511	164.852	
263.00	-68.071	151.392	
264.00	-68.314	140.043	
265.00	-71.742	113.119	
266.00	-73.651	173.785	
267.00	-86.076	32.619	
268.00	-74.988	-25.725	
269.00	-72.235	-42.589	
270.00	-70.501	-45.303	
271.00	-70.468	-51.968	
272.00	-72.553	-59.255	
273.00	-73.947	-56.631	
274.00	-79.023	-55.781	
275.00	-81.081	-58.715	
276.00	-83.192	-32.880	
277.00	-77.554	-28.339	
278.00	-75.384	-25.009	
279.00	-72.459	-29.996	
280.00	-68.380	-20.363	
281.00	-68.446	-27.417	
282.00	-68.247	-27.848	
283.00	-68.495	-31.176	
284.00	-68.323	-32.925	
285.00	-68.506	-40.438	
286.00	-68.529	-34.676	
287.00	-69.138	-46.988	
288.00	-69.198	-49.288	
289.00	-70.131	-50.139	
290.00	-69.166	-69.581	
291.00	-69.981	-78.812	
292.00	-69.968	-113.392	
293.00	-69.580	-116.548	
294.00	-71.328	-141.068	
295.00	-72.031	165.072	
296.00	-70.005	140.103	
297.00	-70.226	93.496	
298.00	-71.056	68.325	
299.00	-68.937	38.101	
300.00	-67.073	9.793	
301.00	-65.920	-15.437	
302.00	-63.886	-35.714	
303.00	-62.731	-59.473	
304.00	-61.677	-79.554	
305.00	-61.506	-92.369	
306.00	-61.122	-115.868	
307.00	-61.221	-132.545	
308.00	-61.679	-156.720	
309.00	-61.379	-172.497	
310.00	-62.018	170.203	
311.00	-62.296	149.794	
312.00	-63.875	138.395	
313.00	-65.177	118.748	
314.00	-65.746	106.592	
315.00	-66.987	100.439	
316.00	-70.076	99.268	
317.00	-69.705	100.105	
318.00	-69.231	106.265	
319.00	-68.488	116.259	
320.00	-66.671	111.350	
321.00	-66.352	107.873	
322.00	-67.169	108.150	
323.00	-69.234	106.399	
324.00	-72.901	115.332	
325.00	-76.425	-166.788	
326.00	-71.886	-122.837	
327.00	-65.496	-125.619	
328.00	-62.963	-127.440	
329.00	-61.509	-134.529	
330.00	-60.405	-139.368	
331.00	-60.642	-148.481	
332.00	-60.975	-154.382	
333.00	-61.906	-164.032	
334.00	-63.326	-174.387	
335.00	-64.652	176.296	
336.00	-66.530	172.427	
337.00	-70.318	163.610	
338.00	-75.773	141.943	
339.00	-77.426	101.938	
340.00	-76.186	93.017	
341.00	-73.551	80.921	
342.00	-71.014	73.188	
343.00	-71.329	79.502	
344.00	-70.612	66.862	
345.00	-70.690	55.429	
346.00	-72.297	46.060	
347.00	-73.716	31.911	
348.00	-76.505	-4.636	
349.00	-72.753	-27.023	
350.00	-70.474	-54.980	
351.00	-68.759	-63.230	
352.00	-67.869	-73.066	
353.00	-68.580	-67.762	
354.00	-69.376	-72.296	
355.00	-70.115	-57.069	
356.00	-69.934	-48.820	
357.00	-69.990	-40.495	
358.00	-70.368	-36.025	
359.00	-69.149	-43.506	
Frequency	2450.00	MHz	
Channel	test		
Scan Axis name	Azimuth  [deg]		
Scan Axis	Amplitude	Phase	
			
0.00	-70.819	178.335	
1.00	-70.834	-156.760	
2.00	-69.256	-153.349	
3.00	-68.533	-161.627	
4.00	-70.713	-173.052	
5.00	-72.728	-151.004	
6.00	-77.148	-150.800	
7.00	-78.827	-165.537	
8.00	-83.347	-89.143	
9.00	-72.302	-58.108	
10.00	-69.388	-47.734	
11.00	-65.186	-45.404	
12.00	-63.901	-42.424	
13.00	-63.762	-37.467	
14.00	-64.532	-39.259	
15.00	-66.899	-37.354	
16.00	-69.794	-43.479	
17.00	-74.274	-48.368	
18.00	-79.553	-99.186	
19.00	-76.537	-174.922	
20.00	-69.845	-172.012	
21.00	-67.830	-176.617	
22.00	-65.601	-172.025	
23.00	-66.171	-163.167	
24.00	-69.459	-166.450	
25.00	-76.428	-174.135	
26.00	-80.942	81.138	
27.00	-69.690	39.467	
28.00	-66.500	44.640	
29.00	-65.391	42.542	
30.00	-65.517	36.628	
31.00	-67.054	44.581	
32.00	-69.021	38.376	
33.00	-74.078	44.229	
34.00	-86.442	74.058	
35.00	-78.492	-151.608	
36.00	-73.472	-151.836	
37.00	-74.143	-156.549	
38.00	-77.938	128.786	
39.00	-71.236	109.985	
40.00	-66.537	110.848	
41.00	-63.809	115.522	
42.00	-63.442	125.057	
43.00	-62.787	139.832	
44.00	-62.952	143.070	
45.00	-60.877	156.232	
46.00	-65.480	153.096	
47.00	-63.636	167.873	
48.00	-62.480	162.661	
49.00	-62.658	172.460	
50.00	-62.850	-173.772	
51.00	-64.664	-156.692	
52.00	-67.012	-139.680	
53.00	-69.723	-112.769	
54.00	-70.866	-64.608	
55.00	-71.204	-55.205	
56.00	-67.758	-36.680	
57.00	-70.447	-42.336	
58.00	-69.279	-57.494	
59.00	-64.631	-49.741	
60.00	-64.124	-43.748	
61.00	-61.779	-35.613	
62.00	-62.865	-21.855	
63.00	-63.144	-13.682	
64.00	-64.937	-4.348	
65.00	-69.055	4.893	
66.00	-74.099	-29.669	
67.00	-71.330	-75.036	
68.00	-68.301	-85.969	
69.00	-65.142	-77.411	
70.00	-63.430	-62.932	
71.00	-61.938	-38.860	
72.00	-61.813	-18.378	
73.00	-61.991	4.488	
74.00	-61.686	28.941	
75.00	-62.434	45.267	
76.00	-64.533	71.212	
77.00	-67.662	98.597	
78.00	-69.804	150.230	
79.00	-68.745	-154.946	
80.00	-66.463	-114.524	
81.00	-64.779	-88.327	
82.00	-62.340	-67.612	
83.00	-62.545	-47.490	
84.00	-62.229	-14.551	
85.00	-61.168	7.546	
86.00	-61.019	22.760	
87.00	-59.660	48.467	
88.00	-59.788	63.897	
89.00	-60.322	86.713	
90.00	-62.142	108.049	
91.00	-59.874	124.938	
92.00	-60.204	156.155	
93.00	-59.777	178.941	
94.00	-58.470	-160.013	
95.00	-57.659	-146.938	
96.00	-57.209	-125.048	
97.00	-56.685	-106.059	
98.00	-55.988	-89.075	
99.00	-55.651	-70.478	
100.00	-55.648	-54.086	
101.00	-55.554	-26.107	
102.00	-56.202	-10.774	
103.00	-56.872	11.862	
104.00	-57.996	29.152	
105.00	-58.730	55.667	
106.00	-58.879	77.720	
107.00	-59.609	108.306	
108.00	-60.707	128.036	
109.00	-61.812	150.476	
110.00	-63.535	176.160	
111.00	-68.099	-154.432	
112.00	-69.061	-114.892	
113.00	-68.936	-46.069	
114.00	-66.227	-12.313	
115.00	-63.271	11.560	
116.00	-61.460	25.123	
117.00	-60.042	36.912	
118.00	-58.899	45.079	
119.00	-58.409	50.883	
120.00	-57.876	59.038	
121.00	-57.545	64.046	
122.00	-56.910	76.008	
123.00	-56.201	89.546	
124.00	-55.714	107.247	
125.00	-55.359	124.640	
126.00	-54.840	145.427	
127.00	-54.381	164.121	
128.00	-54.322	-177.057	
129.00	-55.290	-156.971	
130.00	-57.450	-139.663	
131.00	-61.781	-110.562	
132.00	-70.163	-28.271	
133.00	-60.265	55.174	
134.00	-54.711	83.267	
135.00	-50.811	104.432	
136.00	-48.074	122.880	
137.00	-46.036	139.994	
138.00	-44.734	155.488	
139.00	-43.985	171.353	
140.00	-43.791	-174.093	
141.00	-44.152	-159.653	
142.00	-45.227	-143.370	
143.00	-47.041	-127.354	
144.00	-50.183	-109.280	
145.00	-55.660	-84.525	
146.00	-63.339	-3.916	
147.00	-56.064	73.601	
148.00	-51.292	98.857	
149.00	-48.594	114.435	
150.00	-47.569	128.236	
151.00	-47.289	140.966	
152.00	-47.890	153.065	
153.00	-49.373	163.034	
154.00	-51.690	173.991	
155.00	-55.279	-178.449	
156.00	-60.972	-175.921	
157.00	-70.566	154.814	
158.00	-70.234	91.348	
159.00	-66.838	95.049	
160.00	-65.416	117.413	
161.00	-64.477	139.254	
162.00	-64.338	142.826	
163.00	-64.408	118.675	
164.00	-60.515	79.884	
165.00	-54.940	64.938	
166.00	-50.754	60.781	
167.00	-48.120	61.753	
168.00	-46.450	63.635	
169.00	-45.641	67.584	
170.00	-45.667	70.371	
171.00	-46.516	74.434	
172.00	-48.553	81.824	
173.00	-51.091	95.770	
174.00	-52.299	119.692	
175.00	-49.723	137.726	
176.00	-45.731	139.772	
177.00	-41.357	133.541	
178.00	-37.632	128.642	
179.00	-34.392	124.418	
180.00	-31.710	120.726	
181.00	-29.645	117.915	
182.00	-28.086	115.257	
183.00	-27.070	112.982	
184.00	-26.523	110.270	
185.00	-26.492	108.251	
186.00	-26.972	105.545	
187.00	-27.997	103.096	
188.00	-29.686	100.556	
189.00	-32.133	97.737	
190.00	-35.638	95.661	
191.00	-40.896	93.962	
192.00	-50.773	100.004	
193.00	-56.008	-124.445	
194.00	-48.184	-110.239	
195.00	-47.038	-110.317	
196.00	-49.395	-114.328	
197.00	-55.873	-107.416	
198.00	-63.716	-11.293	
199.00	-52.958	29.737	
200.00	-50.013	26.089	
201.00	-49.356	25.939	
202.00	-50.761	20.132	
203.00	-53.830	21.418	
204.00	-60.431	53.409	
205.00	-57.791	120.388	
206.00	-53.031	124.880	
207.00	-51.299	115.928	
208.00	-50.927	94.233	
209.00	-50.849	61.769	
210.00	-49.345	23.062	
211.00	-46.917	-5.926	
212.00	-44.746	-29.882	
213.00	-43.340	-48.999	
214.00	-42.456	-67.397	
215.00	-42.086	-83.822	
216.00	-42.366	-99.758	
217.00	-43.556	-117.251	
218.00	-45.090	-134.507	
219.00	-47.687	-156.656	
220.00	-51.231	176.075	
221.00	-55.402	130.903	
222.00	-55.666	63.229	
223.00	-52.178	17.230	
224.00	-49.359	-10.369	
225.00	-47.590	-28.857	
226.00	-46.773	-45.758	
227.00	-46.472	-60.062	
228.00	-46.759	-73.549	
229.00	-47.679	-86.605	
230.00	-49.027	-99.556	
231.00	-50.787	-109.305	
232.00	-52.957	-121.203	
233.00	-55.571	-135.567	
234.00	-58.999	-142.467	
235.00	-62.904	-154.954	
236.00	-66.264	-177.168	
237.00	-69.625	126.258	
238.00	-67.488	73.384	
239.00	-63.927	55.283	
240.00	-61.304	35.444	
241.00	-59.507	23.412	
242.00	-59.339	12.950	
243.00	-59.353	-1.966	
244.00	-59.282	-18.643	
245.00	-60.880	-36.787	
246.00	-61.851	-57.051	
247.00	-63.459	-84.647	
248.00	-66.026	-112.899	
249.00	-67.447	-163.892	
250.00	-67.110	154.434	
251.00	-65.602	119.537	
252.00	-64.508	91.412	
253.00	-64.122	66.273	
254.00	-64.615	34.381	
255.00	-63.659	8.682	
256.00	-63.081	-18.831	
257.00	-62.178	-44.330	
258.00	-61.818	-59.987	
259.00	-62.981	-99.195	
260.00	-61.832	-101.363	
261.00	-63.492	-131.683	
262.00	-64.515	-163.080	
263.00	-64.062	163.186	
264.00	-63.458	136.913	
265.00	-63.126	93.252	
266.00	-62.299	92.595	
267.00	-61.804	67.124	
268.00	-62.312	51.765	
269.00	-62.719	35.344	
270.00	-63.931	14.075	
271.00	-65.802	-2.239	
272.00	-67.816	-24.662	
273.00	-69.725	-57.559	
274.00	-71.445	-98.958	
275.00	-71.982	-141.903	
276.00	-69.562	166.675	
277.00	-68.654	135.235	
278.00	-67.312	112.493	
279.00	-65.331	108.146	
280.00	-64.692	86.645	
281.00	-63.794	71.751	
282.00	-63.519	64.951	
283.00	-64.491	54.546	
284.00	-64.105	45.972	
285.00	-63.931	45.158	
286.00	-63.294	37.922	
287.00	-63.687	32.283	
288.00	-62.900	27.866	
289.00	-62.480	-0.682	
290.00	-64.113	-10.006	
291.00	-64.810	-33.887	
292.00	-63.737	-56.019	
293.00	-61.558	-78.977	
294.00	-60.319	-100.323	
295.00	-59.306	-115.500	
296.00	-59.035	-132.605	
297.00	-59.498	-151.444	
298.00	-58.954	-164.693	
299.00	-60.619	168.540	
300.00	-61.773	146.812	
301.00	-63.017	119.136	
302.00	-64.216	82.473	
303.00	-63.789	50.728	
304.00	-62.802	21.199	
305.00	-62.007	-5.628	
306.00	-59.920	-26.828	
307.00	-58.992	-44.787	
308.00	-58.319	-61.261	
309.00	-57.691	-74.045	
310.00	-57.438	-90.107	
311.00	-57.382	-102.824	
312.00	-58.230	-117.007	
313.00	-59.077	-129.951	
314.00	-59.838	-141.594	
315.00	-61.879	-155.174	
316.00	-65.052	-159.865	
317.00	-66.008	-153.241	
318.00	-66.332	-139.425	
319.00	-64.991	-132.129	
320.00	-64.296	-121.440	
321.00	-63.072	-124.122	
322.00	-63.777	-126.880	
323.00	-65.350	-130.309	
324.00	-67.604	-136.084	
325.00	-74.178	-115.647	
326.00	-79.767	-62.245	
327.00	-72.148	-18.528	
328.00	-67.104	-14.344	
329.00	-64.921	-10.377	
330.00	-64.562	-20.461	
331.00	-63.991	-21.760	
332.00	-64.722	-29.158	
333.00	-65.796	-34.033	
334.00	-69.800	-49.028	
335.00	-72.260	-74.915	
336.00	-73.771	-98.859	
337.00	-70.879	-122.843	
338.00	-69.299	-131.931	
339.00	-66.257	-139.578	
340.00	-64.949	-142.329	
341.00	-62.920	-149.540	
342.00	-62.461	-161.683	
343.00	-61.583	-170.947	
344.00	-62.579	-178.194	
345.00	-63.656	169.569	
346.00	-66.248	156.481	
347.00	-69.473	151.776	
348.00	-72.179	143.550	
349.00	-79.556	143.657	
350.00	-77.280	162.994	
351.00	-80.024	124.969	
352.00	-76.121	148.535	
353.00	-73.312	147.770	
354.00	-69.607	123.520	
355.00	-68.715	140.271	
356.00	-69.510	146.490	
357.00	-68.360	127.734	
358.00	-68.977	158.665	
359.00	-70.965	165.776	
Frequency	2496.00	MHz	
Channel	test		
Scan Axis name	Azimuth  [deg]		
Scan Axis	Amplitude	Phase	
			
0.00	-68.548	15.375	
1.00	-64.903	14.629	
2.00	-63.654	14.962	
3.00	-62.381	4.402	
4.00	-62.074	-6.950	
5.00	-62.667	-18.770	
6.00	-63.452	-18.110	
7.00	-66.404	-27.109	
8.00	-69.825	-35.337	
9.00	-72.002	-53.571	
10.00	-82.182	-83.486	
11.00	-79.652	128.552	
12.00	-80.432	178.744	
13.00	-73.845	-158.187	
14.00	-71.213	-161.422	
15.00	-69.260	-144.749	
16.00	-65.779	-141.789	
17.00	-67.640	-126.899	
18.00	-66.887	-111.296	
19.00	-67.899	-97.021	
20.00	-71.478	-96.634	
21.00	-77.520	-93.683	
22.00	-76.265	34.441	
23.00	-72.217	67.276	
24.00	-67.319	73.188	
25.00	-65.378	83.478	
26.00	-64.969	83.977	
27.00	-66.975	88.753	
28.00	-68.796	96.241	
29.00	-82.654	75.630	
30.00	-73.592	-40.651	
31.00	-70.607	-46.826	
32.00	-71.670	-50.102	
33.00	-70.607	-92.271	
34.00	-67.423	-117.513	
35.00	-63.360	-130.881	
36.00	-61.039	-136.032	
37.00	-59.581	-132.065	
38.00	-58.591	-133.517	
39.00	-58.105	-131.915	
40.00	-57.195	-129.076	
41.00	-56.938	-129.850	
42.00	-56.710	-121.778	
43.00	-56.734	-109.923	
44.00	-58.173	-108.200	
45.00	-59.921	-93.288	
46.00	-63.323	-100.829	
47.00	-67.001	-106.107	
48.00	-67.955	-118.311	
49.00	-71.588	-142.110	
50.00	-72.354	-156.544	
51.00	-87.511	-148.249	
52.00	-74.531	48.856	
53.00	-70.120	43.552	
54.00	-65.427	72.332	
55.00	-64.354	84.399	
56.00	-65.678	118.509	
57.00	-65.028	157.771	
58.00	-64.952	175.802	
59.00	-63.382	-147.038	
60.00	-62.310	-133.043	
61.00	-61.065	-117.137	
62.00	-61.633	-112.470	
63.00	-62.789	-121.496	
64.00	-63.433	-116.084	
65.00	-63.231	-121.434	
66.00	-64.425	-118.012	
67.00	-66.506	-121.812	
68.00	-70.276	-114.387	
69.00	-71.236	-94.200	
70.00	-76.934	-73.041	
71.00	-80.519	1.323	
72.00	-79.081	40.599	
73.00	-75.529	45.321	
74.00	-78.552	25.468	
75.00	-77.874	14.930	
76.00	-72.008	13.733	
77.00	-67.923	-0.544	
78.00	-66.362	14.196	
79.00	-63.867	22.586	
80.00	-63.041	42.129	
81.00	-63.554	49.630	
82.00	-62.571	76.826	
83.00	-62.878	92.889	
84.00	-62.378	121.096	
85.00	-61.864	148.530	
86.00	-64.473	166.859	
87.00	-63.612	-172.823	
88.00	-63.439	-153.037	
89.00	-62.105	-130.535	
90.00	-64.063	-143.973	
91.00	-68.260	-91.423	
92.00	-66.458	-71.583	
93.00	-64.463	-68.192	
94.00	-65.839	-50.433	
95.00	-65.151	-44.141	
96.00	-62.777	-27.417	
97.00	-61.080	-10.280	
98.00	-59.954	2.831	
99.00	-57.893	16.189	
100.00	-56.239	30.497	
101.00	-55.376	58.080	
102.00	-54.863	72.254	
103.00	-54.589	88.817	
104.00	-54.600	102.650	
105.00	-55.195	122.075	
106.00	-55.998	143.122	
107.00	-56.192	171.113	
108.00	-56.278	-167.764	
109.00	-57.204	-145.082	
110.00	-57.435	-116.954	
111.00	-57.838	-97.756	
112.00	-59.101	-77.343	
113.00	-60.200	-53.894	
114.00	-61.998	-28.484	
115.00	-64.481	-5.397	
116.00	-68.101	7.813	
117.00	-72.729	10.776	
118.00	-75.276	-48.410	
119.00	-67.725	-84.114	
120.00	-62.584	-77.641	
121.00	-61.109	-69.832	
122.00	-60.971	-64.858	
123.00	-61.815	-63.548	
124.00	-63.646	-70.593	
125.00	-66.282	-78.628	
126.00	-65.357	-119.099	
127.00	-62.585	-140.006	
128.00	-60.608	-139.581	
129.00	-59.410	-126.209	
130.00	-59.149	-111.725	
131.00	-58.859	-105.201	
132.00	-58.806	-88.384	
133.00	-58.378	-81.875	
134.00	-57.936	-93.136	
135.00	-56.029	-100.330	
136.00	-53.557	-106.367	
137.00	-51.036	-106.173	
138.00	-49.105	-99.893	
139.00	-47.625	-93.466	
140.00	-46.962	-83.320	
141.00	-46.858	-71.138	
142.00	-47.501	-58.824	
143.00	-48.790	-43.339	
144.00	-51.326	-25.750	
145.00	-55.428	2.668	
146.00	-59.788	68.850	
147.00	-55.362	132.731	
148.00	-51.841	157.242	
149.00	-49.456	176.821	
150.00	-48.603	-169.470	
151.00	-48.506	-155.397	
152.00	-49.373	-141.866	
153.00	-51.032	-130.646	
154.00	-53.595	-121.399	
155.00	-57.535	-115.897	
156.00	-62.832	-129.052	
157.00	-62.613	-165.240	
158.00	-60.120	-167.235	
159.00	-56.523	-148.401	
160.00	-53.533	-129.871	
161.00	-51.100	-117.379	
162.00	-49.955	-106.875	
163.00	-49.249	-101.616	
164.00	-50.138	-101.945	
165.00	-52.077	-106.673	
166.00	-55.186	-132.055	
167.00	-53.752	-172.510	
168.00	-50.861	163.795	
169.00	-48.298	154.850	
170.00	-47.987	152.184	
171.00	-48.890	153.987	
172.00	-51.913	156.608	
173.00	-57.515	-171.928	
174.00	-54.033	-102.357	
175.00	-47.759	-93.085	
176.00	-43.177	-101.118	
177.00	-39.361	-111.939	
178.00	-35.904	-121.370	
179.00	-32.830	-129.396	
180.00	-30.292	-135.740	
181.00	-28.277	-140.306	
182.00	-26.753	-144.229	
183.00	-25.774	-147.385	
184.00	-25.289	-150.168	
185.00	-25.311	-152.192	
186.00	-25.841	-154.322	
187.00	-26.997	-155.842	
188.00	-28.773	-156.543	
189.00	-31.474	-156.146	
190.00	-35.180	-151.981	
191.00	-40.490	-137.940	
192.00	-45.549	-91.615	
193.00	-43.738	-48.241	
194.00	-41.968	-32.383	
195.00	-42.075	-28.416	
196.00	-44.082	-24.405	
197.00	-48.137	-17.108	
198.00	-54.777	13.777	
199.00	-54.038	80.940	
200.00	-50.330	99.953	
201.00	-49.518	104.489	
202.00	-51.649	106.266	
203.00	-56.796	126.305	
204.00	-58.960	-147.244	
205.00	-52.065	-125.336	
206.00	-48.674	-126.255	
207.00	-47.699	-132.496	
208.00	-49.049	-144.231	
209.00	-52.678	-167.907	
210.00	-56.848	121.140	
211.00	-50.715	61.792	
212.00	-46.280	41.453	
213.00	-43.689	27.783	
214.00	-42.537	17.040	
215.00	-42.257	6.754	
216.00	-42.922	-2.483	
217.00	-44.486	-10.797	
218.00	-47.075	-16.367	
219.00	-51.023	-15.815	
220.00	-55.354	8.921	
221.00	-54.570	44.636	
222.00	-50.942	54.211	
223.00	-48.538	49.766	
224.00	-47.097	39.876	
225.00	-46.440	28.192	
226.00	-46.402	16.670	
227.00	-46.719	5.822	
228.00	-47.765	-5.939	
229.00	-49.187	-15.940	
230.00	-50.843	-24.481	
231.00	-52.639	-30.192	
232.00	-55.334	-33.530	
233.00	-57.644	-40.669	
234.00	-59.776	-44.393	
235.00	-62.155	-51.814	
236.00	-66.490	-66.755	
237.00	-70.064	-123.336	
238.00	-65.830	178.958	
239.00	-61.393	143.739	
240.00	-59.833	134.943	
241.00	-57.539	117.900	
242.00	-57.419	103.313	
243.00	-57.638	88.673	
244.00	-58.135	69.402	
245.00	-60.373	45.688	
246.00	-61.731	21.331	
247.00	-64.444	-1.088	
248.00	-65.193	-18.957	
249.00	-68.511	-54.390	
250.00	-73.308	-95.584	
251.00	-78.671	-158.719	
252.00	-71.014	104.256	
253.00	-67.461	81.475	
254.00	-64.468	66.199	
255.00	-63.851	42.529	
256.00	-63.269	29.866	
257.00	-61.782	12.042	
258.00	-64.112	6.020	
259.00	-65.887	-22.979	
260.00	-68.871	-51.795	
261.00	-66.673	-67.455	
262.00	-70.797	-125.092	
263.00	-74.705	-160.999	
264.00	-72.135	139.878	
265.00	-70.874	105.692	
266.00	-66.483	67.439	
267.00	-63.185	64.546	
268.00	-64.752	60.126	
269.00	-64.492	43.684	
270.00	-65.798	21.146	
271.00	-64.917	-2.289	
272.00	-67.833	-21.423	
273.00	-66.272	-55.589	
274.00	-65.777	-96.292	
275.00	-66.502	-101.624	
276.00	-67.991	-121.835	
277.00	-70.478	-134.954	
278.00	-72.854	-160.027	
279.00	-77.263	113.102	
280.00	-71.704	82.754	
281.00	-67.466	51.841	
282.00	-67.218	29.618	
283.00	-66.764	-1.927	
284.00	-67.355	-30.234	
285.00	-68.608	-53.768	
286.00	-68.490	-107.093	
287.00	-64.556	-173.070	
288.00	-62.006	160.100	
289.00	-59.603	144.704	
290.00	-58.756	135.080	
291.00	-57.710	120.260	
292.00	-56.630	109.292	
293.00	-57.982	84.811	
294.00	-58.263	65.108	
295.00	-61.140	43.846	
296.00	-62.255	25.304	
297.00	-61.729	-2.026	
298.00	-63.459	-38.332	
299.00	-60.298	-35.310	
300.00	-62.181	-63.718	
301.00	-64.110	-90.499	
302.00	-63.833	-98.253	
303.00	-63.700	-123.632	
304.00	-66.498	-145.956	
305.00	-65.815	-158.185	
306.00	-64.745	-178.661	
307.00	-65.877	171.888	
308.00	-66.956	150.009	
309.00	-70.258	128.304	
310.00	-71.637	110.949	
311.00	-70.165	69.755	
312.00	-75.666	45.189	
313.00	-75.066	6.463	
314.00	-70.761	-6.622	
315.00	-72.613	-25.689	
316.00	-70.362	-26.276	
317.00	-69.146	-12.571	
318.00	-66.708	-15.544	
319.00	-63.993	-21.536	
320.00	-62.266	-30.796	
321.00	-61.709	-45.417	
322.00	-61.747	-60.689	
323.00	-62.455	-75.782	
324.00	-63.950	-94.860	
325.00	-66.282	-115.389	
326.00	-69.073	-156.488	
327.00	-69.227	169.930	
328.00	-71.319	135.242	
329.00	-69.251	94.080	
330.00	-68.394	81.200	
331.00	-68.664	68.671	
332.00	-71.428	63.160	
333.00	-75.076	66.560	
334.00	-76.909	115.571	
335.00	-75.236	174.526	
336.00	-69.755	153.639	
337.00	-70.852	131.574	
338.00	-72.502	135.812	
339.00	-79.827	117.024	
340.00	-77.993	-32.081	
341.00	-69.501	-61.739	
342.00	-64.635	-66.434	
343.00	-62.792	-76.670	
344.00	-60.789	-85.639	
345.00	-60.347	-92.332	
346.00	-59.983	-93.079	
347.00	-60.326	-98.470	
348.00	-61.131	-100.606	
349.00	-61.695	-95.525	
350.00	-61.752	-94.400	
351.00	-61.818	-90.766	
352.00	-60.478	-91.191	
353.00	-60.478	-91.758	
354.00	-60.847	-92.282	
355.00	-61.798	-99.230	
356.00	-63.401	-97.417	
357.00	-65.688	-101.037	
358.00	-71.837	-92.903	
359.00	-74.816	-53.478	
Frequency	2550.00	MHz	
Channel	test		
Scan Axis name	Azimuth  [deg]		
Scan Axis	Amplitude	Phase	
			
0.00	-65.993	102.156	
1.00	-64.461	117.495	
2.00	-66.486	112.800	
3.00	-67.369	113.831	
4.00	-68.006	112.529	
5.00	-75.587	45.868	
6.00	-88.138	-45.397	
7.00	-70.800	-88.733	
8.00	-68.618	-79.707	
9.00	-67.036	-84.641	
10.00	-65.361	-87.169	
11.00	-66.472	-78.755	
12.00	-66.227	-85.281	
13.00	-67.989	-89.704	
14.00	-67.266	-86.206	
15.00	-67.937	-79.595	
16.00	-65.104	-70.831	
17.00	-65.662	-46.921	
18.00	-64.737	-52.197	
19.00	-65.232	-55.871	
20.00	-64.780	-60.908	
21.00	-66.879	-68.735	
22.00	-70.414	-62.120	
23.00	-74.161	-93.704	
24.00	-76.102	-172.841	
25.00	-68.094	153.516	
26.00	-66.295	140.717	
27.00	-69.370	145.573	
28.00	-71.432	136.220	
29.00	-74.786	72.642	
30.00	-71.741	47.000	
31.00	-65.331	37.211	
32.00	-62.983	21.995	
33.00	-64.230	16.732	
34.00	-62.633	-1.545	
35.00	-62.213	-8.634	
36.00	-62.059	-27.243	
37.00	-62.162	-39.853	
38.00	-60.501	-47.974	
39.00	-59.951	-51.176	
40.00	-59.488	-56.169	
41.00	-59.023	-54.589	
42.00	-59.311	-46.120	
43.00	-61.626	-20.269	
44.00	-63.087	3.457	
45.00	-62.600	54.619	
46.00	-63.754	72.432	
47.00	-61.289	101.567	
48.00	-60.777	106.877	
49.00	-61.578	126.559	
50.00	-64.603	128.628	
51.00	-64.482	127.125	
52.00	-68.380	119.936	
53.00	-70.690	116.553	
54.00	-77.275	119.303	
55.00	-91.387	130.904	
56.00	-75.987	-59.640	
57.00	-75.073	-37.866	
58.00	-75.099	-96.893	
59.00	-75.593	-86.585	
60.00	-70.713	-137.797	
61.00	-67.351	-163.949	
62.00	-64.918	-150.843	
63.00	-64.324	-140.275	
64.00	-66.859	-131.008	
65.00	-67.280	-112.265	
66.00	-74.315	-74.002	
67.00	-74.235	51.294	
68.00	-67.368	76.216	
69.00	-63.461	96.715	
70.00	-61.783	115.939	
71.00	-61.788	133.192	
72.00	-62.564	163.404	
73.00	-64.150	-172.956	
74.00	-66.113	-134.143	
75.00	-68.099	-91.471	
76.00	-66.643	-38.284	
77.00	-64.855	4.433	
78.00	-62.432	36.379	
79.00	-61.825	74.298	
80.00	-59.738	97.123	
81.00	-60.039	120.898	
82.00	-59.228	158.435	
83.00	-59.753	178.712	
84.00	-59.038	-156.532	
85.00	-59.889	-122.816	
86.00	-57.318	-101.400	
87.00	-57.542	-74.553	
88.00	-58.459	-35.537	
89.00	-57.142	-18.486	
90.00	-57.003	7.734	
91.00	-55.426	27.889	
92.00	-56.992	59.452	
93.00	-58.515	97.390	
94.00	-58.946	117.344	
95.00	-59.005	135.050	
96.00	-59.793	158.358	
97.00	-60.964	177.370	
98.00	-64.481	-144.382	
99.00	-67.100	-114.427	
100.00	-70.955	-37.971	
101.00	-65.215	32.479	
102.00	-61.636	52.076	
103.00	-60.060	73.239	
104.00	-61.028	95.672	
105.00	-60.115	112.350	
106.00	-61.238	137.404	
107.00	-63.077	169.720	
108.00	-62.865	-159.152	
109.00	-62.556	-118.066	
110.00	-61.239	-91.855	
111.00	-60.942	-63.656	
112.00	-60.258	-39.341	
113.00	-60.912	-17.252	
114.00	-59.495	12.379	
115.00	-59.598	29.956	
116.00	-58.951	39.760	
117.00	-59.017	51.346	
118.00	-59.165	52.627	
119.00	-59.165	45.625	
120.00	-59.261	38.914	
121.00	-58.305	29.533	
122.00	-57.125	24.588	
123.00	-57.682	26.504	
124.00	-57.839	18.945	
125.00	-59.190	16.898	
126.00	-59.689	6.455	
127.00	-60.404	-3.874	
128.00	-59.885	-16.133	
129.00	-58.877	-16.098	
130.00	-57.590	-10.540	
131.00	-57.348	-6.451	
132.00	-56.395	4.080	
133.00	-55.515	15.894	
134.00	-55.955	23.333	
135.00	-56.209	27.371	
136.00	-57.170	28.106	
137.00	-57.057	19.808	
138.00	-56.377	5.834	
139.00	-55.262	3.692	
140.00	-53.202	2.946	
141.00	-52.048	6.012	
142.00	-50.886	12.738	
143.00	-51.184	20.289	
144.00	-51.651	27.933	
145.00	-53.442	32.964	
146.00	-57.165	43.038	
147.00	-65.549	38.230	
148.00	-65.923	-95.174	
149.00	-58.305	-98.966	
150.00	-55.329	-93.437	
151.00	-54.527	-84.985	
152.00	-55.040	-72.018	
153.00	-55.670	-64.257	
154.00	-58.191	-54.552	
155.00	-62.586	-47.251	
156.00	-66.530	-34.418	
157.00	-71.744	-5.659	
158.00	-68.560	19.642	
159.00	-62.093	10.069	
160.00	-57.187	8.220	
161.00	-53.496	6.855	
162.00	-51.197	7.188	
163.00	-49.878	6.163	
164.00	-49.735	1.668	
165.00	-50.486	-2.449	
166.00	-52.207	-15.531	
167.00	-54.476	-39.635	
168.00	-54.655	-74.515	
169.00	-53.379	-103.504	
170.00	-52.224	-122.909	
171.00	-52.391	-131.347	
172.00	-54.696	-141.074	
173.00	-64.520	-142.596	
174.00	-60.635	27.374	
175.00	-50.863	10.144	
176.00	-45.522	-1.171	
177.00	-41.472	-15.050	
178.00	-38.118	-26.252	
179.00	-35.322	-35.365	
180.00	-32.875	-43.824	
181.00	-31.023	-50.253	
182.00	-29.595	-55.831	
183.00	-28.733	-60.479	
184.00	-28.327	-64.581	
185.00	-28.431	-67.480	
186.00	-29.114	-70.637	
187.00	-30.381	-72.177	
188.00	-32.469	-73.197	
189.00	-35.584	-72.129	
190.00	-40.012	-65.225	
191.00	-45.912	-38.426	
192.00	-47.574	17.102	
193.00	-44.656	40.690	
194.00	-44.149	48.873	
195.00	-44.863	48.296	
196.00	-47.446	50.104	
197.00	-53.291	50.422	
198.00	-65.084	89.614	
199.00	-58.248	-162.558	
200.00	-54.157	-158.876	
201.00	-54.106	-155.320	
202.00	-56.391	-140.506	
203.00	-56.803	-92.672	
204.00	-54.038	-76.851	
205.00	-50.896	-71.223	
206.00	-49.521	-74.612	
207.00	-49.214	-87.359	
208.00	-50.564	-104.961	
209.00	-52.306	-133.793	
210.00	-52.611	-176.438	
211.00	-50.508	148.124	
212.00	-48.684	122.830	
213.00	-46.776	106.198	
214.00	-46.405	93.898	
215.00	-46.565	82.984	
216.00	-48.216	76.989	
217.00	-50.707	74.435	
218.00	-54.036	82.544	
219.00	-56.876	114.749	
220.00	-55.059	144.635	
221.00	-52.478	145.639	
222.00	-51.029	139.682	
223.00	-50.373	131.014	
224.00	-50.338	122.024	
225.00	-50.750	110.666	
226.00	-51.463	102.340	
227.00	-52.457	94.105	
228.00	-53.390	89.084	
229.00	-54.365	80.601	
230.00	-54.716	74.931	
231.00	-55.140	65.478	
232.00	-55.777	55.285	
233.00	-56.028	42.215	
234.00	-56.667	21.616	
235.00	-57.802	6.329	
236.00	-59.640	-28.180	
237.00	-60.312	-59.252	
238.00	-59.965	-92.310	
239.00	-58.739	-118.099	
240.00	-58.478	-145.618	
241.00	-58.279	-159.048	
242.00	-59.511	-178.444	
243.00	-62.451	165.785	
244.00	-67.135	131.553	
245.00	-74.953	87.918	
246.00	-76.185	-9.995	
247.00	-69.596	-26.749	
248.00	-67.899	-67.384	
249.00	-66.200	-90.450	
250.00	-68.353	-129.432	
251.00	-67.012	-166.292	
252.00	-65.980	155.407	
253.00	-65.222	125.292	
254.00	-63.787	95.671	
255.00	-62.933	65.478	
256.00	-61.834	46.853	
257.00	-60.614	22.189	
258.00	-60.208	7.842	
259.00	-59.978	-15.141	
260.00	-58.933	-37.480	
261.00	-60.769	-59.229	
262.00	-60.836	-76.702	
263.00	-62.068	-100.537	
264.00	-62.833	-125.329	
265.00	-63.383	-152.699	
266.00	-62.915	-159.292	
267.00	-63.738	171.211	
268.00	-65.815	157.186	
269.00	-69.075	142.314	
270.00	-72.506	106.524	
271.00	-71.980	35.808	
272.00	-70.036	2.533	
273.00	-67.804	-27.208	
274.00	-66.144	-43.175	
275.00	-64.266	-57.036	
276.00	-65.964	-76.173	
277.00	-65.517	-99.679	
278.00	-66.498	-106.781	
279.00	-67.250	-126.886	
280.00	-71.255	-135.274	
281.00	-74.337	156.351	
282.00	-70.949	97.736	
283.00	-69.510	64.349	
284.00	-66.705	49.011	
285.00	-66.066	28.196	
286.00	-65.152	-2.643	
287.00	-66.144	-51.904	
288.00	-64.872	-72.901	
289.00	-66.059	-103.785	
290.00	-67.524	-130.822	
291.00	-68.403	-164.751	
292.00	-66.799	164.427	
293.00	-64.224	121.822	
294.00	-63.419	104.632	
295.00	-61.654	73.349	
296.00	-61.452	53.698	
297.00	-61.470	45.299	
298.00	-61.430	29.716	
299.00	-61.567	15.578	
300.00	-62.200	1.470	
301.00	-63.048	-11.897	
302.00	-62.430	-29.985	
303.00	-62.025	-41.440	
304.00	-60.493	-54.878	
305.00	-59.952	-68.615	
306.00	-58.462	-87.903	
307.00	-58.558	-101.743	
308.00	-58.573	-115.734	
309.00	-59.135	-131.634	
310.00	-61.638	-153.393	
311.00	-64.199	-170.924	
312.00	-66.134	159.249	
313.00	-69.155	124.118	
314.00	-69.785	77.377	
315.00	-70.980	67.835	
316.00	-71.340	67.579	
317.00	-69.454	86.331	
318.00	-67.355	99.195	
319.00	-65.292	102.641	
320.00	-62.336	94.572	
321.00	-61.768	92.290	
322.00	-61.694	87.792	
323.00	-62.342	87.960	
324.00	-63.239	83.026	
325.00	-63.306	84.565	
326.00	-67.234	85.975	
327.00	-67.049	101.777	
328.00	-68.218	95.290	
329.00	-69.905	113.302	
330.00	-71.455	138.024	
331.00	-69.510	162.479	
332.00	-68.774	153.741	
333.00	-68.214	171.341	
334.00	-66.358	174.756	
335.00	-66.381	166.531	
336.00	-68.457	149.623	
337.00	-69.958	119.838	
338.00	-68.972	73.202	
339.00	-65.994	35.212	
340.00	-63.393	25.948	
341.00	-61.454	6.953	
342.00	-61.680	-0.145	
343.00	-61.682	-6.475	
344.00	-62.675	-10.835	
345.00	-63.691	-10.756	
346.00	-65.475	-17.560	
347.00	-67.083	-24.485	
348.00	-66.778	-12.638	
349.00	-67.689	-10.584	
350.00	-65.971	-14.167	
351.00	-66.085	-23.315	
352.00	-65.660	-23.419	
353.00	-64.323	-22.344	
354.00	-66.664	-17.204	
355.00	-67.521	-31.849	
356.00	-67.563	-18.774	
357.00	-68.217	4.583	
358.00	-72.147	41.781	
359.00	-69.870	77.520	
Frequency	2600.00	MHz	
Channel	test		
Scan Axis name	Azimuth  [deg]		
Scan Axis	Amplitude	Phase	
			
0.00	-74.302	119.037	
1.00	-72.738	-171.450	
2.00	-70.225	-123.465	
3.00	-68.540	-118.439	
4.00	-69.789	-101.261	
5.00	-71.453	-68.529	
6.00	-72.696	-30.167	
7.00	-70.725	1.371	
8.00	-69.081	21.512	
9.00	-68.693	36.246	
10.00	-66.910	41.997	
11.00	-69.670	64.493	
12.00	-74.214	82.996	
13.00	-71.978	131.423	
14.00	-73.836	159.383	
15.00	-75.410	169.406	
16.00	-88.705	136.935	
17.00	-72.712	38.758	
18.00	-70.676	48.856	
19.00	-68.075	47.330	
20.00	-67.468	55.735	
21.00	-67.548	68.802	
22.00	-68.797	84.566	
23.00	-68.051	115.809	
24.00	-69.252	139.570	
25.00	-65.244	156.537	
26.00	-63.711	168.664	
27.00	-64.297	171.673	
28.00	-66.366	164.152	
29.00	-67.153	148.325	
30.00	-66.846	124.350	
31.00	-64.571	114.994	
32.00	-63.690	114.586	
33.00	-63.061	103.024	
34.00	-63.688	96.510	
35.00	-63.691	94.424	
36.00	-63.338	88.761	
37.00	-63.254	92.659	
38.00	-64.153	90.540	
39.00	-65.697	84.411	
40.00	-65.106	61.495	
41.00	-63.842	57.538	
42.00	-62.698	57.462	
43.00	-62.048	67.663	
44.00	-62.848	86.395	
45.00	-65.672	111.999	
46.00	-63.949	158.164	
47.00	-65.918	-160.216	
48.00	-63.309	-137.369	
49.00	-63.645	-111.730	
50.00	-64.019	-94.257	
51.00	-67.203	-84.061	
52.00	-70.813	-77.517	
53.00	-72.330	-90.872	
54.00	-79.196	-47.813	
55.00	-76.364	-37.860	
56.00	-71.996	58.567	
57.00	-69.672	88.471	
58.00	-67.018	123.332	
59.00	-63.061	152.101	
60.00	-61.561	168.415	
61.00	-60.570	-170.349	
62.00	-61.829	-140.436	
63.00	-65.557	-105.056	
64.00	-65.489	-32.715	
65.00	-61.220	15.166	
66.00	-58.543	41.885	
67.00	-57.421	68.290	
68.00	-56.898	90.268	
69.00	-58.378	115.432	
70.00	-60.247	150.503	
71.00	-61.564	-160.346	
72.00	-60.207	-107.998	
73.00	-57.968	-69.855	
74.00	-56.282	-36.842	
75.00	-55.363	-12.002	
76.00	-54.422	15.602	
77.00	-54.474	41.196	
78.00	-54.590	65.256	
79.00	-55.717	92.395	
80.00	-56.650	123.846	
81.00	-57.481	161.943	
82.00	-57.508	-162.325	
83.00	-57.212	-126.043	
84.00	-56.370	-93.654	
85.00	-56.391	-63.425	
86.00	-55.777	-31.187	
87.00	-55.631	0.314	
88.00	-55.172	30.207	
89.00	-54.346	61.934	
90.00	-53.792	89.315	
91.00	-53.444	115.184	
92.00	-52.613	142.730	
93.00	-52.764	167.319	
94.00	-52.334	-166.917	
95.00	-52.247	-141.793	
96.00	-52.307	-118.163	
97.00	-52.477	-93.973	
98.00	-53.293	-69.766	
99.00	-54.240	-45.440	
100.00	-55.471	-17.492	
101.00	-56.446	26.906	
102.00	-57.376	60.699	
103.00	-57.104	99.384	
104.00	-56.988	129.205	
105.00	-56.946	157.259	
106.00	-57.262	-177.003	
107.00	-58.022	-151.577	
108.00	-59.611	-126.723	
109.00	-61.191	-87.837	
110.00	-63.238	-49.851	
111.00	-63.199	-2.829	
112.00	-61.994	41.112	
113.00	-61.069	79.537	
114.00	-59.571	114.062	
115.00	-58.522	143.203	
116.00	-56.642	169.996	
117.00	-56.058	-166.334	
118.00	-56.076	-148.449	
119.00	-57.026	-131.041	
120.00	-58.735	-110.050	
121.00	-62.671	-79.784	
122.00	-65.776	-26.477	
123.00	-63.469	28.726	
124.00	-60.866	49.672	
125.00	-59.804	59.414	
126.00	-60.995	61.804	
127.00	-62.026	55.351	
128.00	-62.073	38.134	
129.00	-60.774	31.113	
130.00	-59.708	34.424	
131.00	-58.874	49.253	
132.00	-57.484	70.781	
133.00	-56.630	96.031	
134.00	-54.994	116.594	
135.00	-54.834	134.987	
136.00	-54.766	152.478	
137.00	-56.104	164.118	
138.00	-58.524	179.228	
139.00	-64.874	-169.247	
140.00	-77.866	101.663	
141.00	-61.972	64.175	
142.00	-56.046	72.604	
143.00	-53.003	84.062	
144.00	-51.450	96.820	
145.00	-50.839	106.132	
146.00	-51.157	117.829	
147.00	-52.310	130.740	
148.00	-53.753	144.092	
149.00	-56.124	157.438	
150.00	-59.188	166.338	
151.00	-64.401	172.677	
152.00	-73.149	136.704	
153.00	-70.925	50.155	
154.00	-64.715	42.554	
155.00	-61.900	38.679	
156.00	-59.803	41.256	
157.00	-57.917	49.222	
158.00	-55.957	55.646	
159.00	-54.153	66.358	
160.00	-52.444	75.563	
161.00	-51.178	85.985	
162.00	-50.193	94.993	
163.00	-49.805	103.037	
164.00	-50.387	110.396	
165.00	-52.096	116.009	
166.00	-55.914	122.944	
167.00	-64.522	140.777	
168.00	-65.242	-81.558	
169.00	-57.204	-67.576	
170.00	-55.053	-67.396	
171.00	-55.178	-68.459	
172.00	-57.298	-76.169	
173.00	-62.266	-108.691	
174.00	-61.809	169.592	
175.00	-55.512	131.108	
176.00	-51.810	107.733	
177.00	-48.288	83.784	
178.00	-44.962	61.228	
179.00	-41.564	41.561	
180.00	-38.403	28.768	
181.00	-35.992	19.315	
182.00	-34.091	12.545	
183.00	-32.795	7.454	
184.00	-32.159	3.467	
185.00	-32.077	0.206	
186.00	-32.697	-2.504	
187.00	-34.024	-4.800	
188.00	-36.371	-5.344	
189.00	-39.969	-3.959	
190.00	-45.467	7.951	
191.00	-50.787	61.901	
192.00	-47.288	107.849	
193.00	-44.694	115.369	
194.00	-44.155	117.833	
195.00	-45.046	115.873	
196.00	-47.463	114.750	
197.00	-52.326	111.900	
198.00	-63.055	122.346	
199.00	-61.077	-105.759	
200.00	-55.598	-100.059	
201.00	-54.345	-97.538	
202.00	-55.555	-91.179	
203.00	-57.277	-70.591	
204.00	-57.396	-45.048	
205.00	-54.904	-26.249	
206.00	-52.917	-29.881	
207.00	-52.132	-44.284	
208.00	-52.021	-67.395	
209.00	-51.127	-94.303	
210.00	-50.442	-119.461	
211.00	-48.726	-141.553	
212.00	-48.448	-161.397	
213.00	-48.068	-175.600	
214.00	-49.148	172.301	
215.00	-51.213	161.521	
216.00	-55.449	158.884	
217.00	-63.348	173.549	
218.00	-61.844	-90.633	
219.00	-55.316	-88.140	
220.00	-52.422	-89.255	
221.00	-51.111	-97.335	
222.00	-50.931	-103.699	
223.00	-51.264	-109.517	
224.00	-52.169	-117.392	
225.00	-52.949	-127.827	
226.00	-54.355	-137.444	
227.00	-55.707	-145.905	
228.00	-57.220	-160.287	
229.00	-58.613	178.649	
230.00	-58.773	153.708	
231.00	-57.487	117.634	
232.00	-56.866	91.962	
233.00	-55.202	70.217	
234.00	-53.988	48.246	
235.00	-53.401	32.019	
236.00	-53.339	13.158	
237.00	-53.707	-4.274	
238.00	-54.556	-22.789	
239.00	-55.318	-36.840	
240.00	-57.254	-53.133	
241.00	-59.813	-66.312	
242.00	-64.357	-65.445	
243.00	-68.183	-36.582	
244.00	-64.780	0.891	
245.00	-62.083	-2.949	
246.00	-60.043	-18.992	
247.00	-59.554	-36.488	
248.00	-59.022	-64.195	
249.00	-58.634	-87.992	
250.00	-57.849	-115.288	
251.00	-56.852	-140.150	
252.00	-56.075	-161.253	
253.00	-55.861	178.426	
254.00	-55.985	155.621	
255.00	-56.053	132.557	
256.00	-55.723	111.077	
257.00	-55.473	88.037	
258.00	-55.525	70.220	
259.00	-55.418	48.507	
260.00	-55.210	38.559	
261.00	-56.116	24.590	
262.00	-57.936	4.766	
263.00	-59.448	-14.278	
264.00	-60.163	-37.628	
265.00	-61.225	-62.677	
266.00	-61.651	-72.619	
267.00	-63.301	-84.483	
268.00	-65.703	-103.062	
269.00	-69.020	-114.008	
270.00	-72.865	-150.851	
271.00	-76.208	151.573	
272.00	-72.046	98.184	
273.00	-70.241	69.718	
274.00	-67.913	38.089	
275.00	-65.773	19.004	
276.00	-63.840	6.764	
277.00	-63.118	-10.400	
278.00	-62.705	-25.837	
279.00	-62.490	-33.320	
280.00	-63.536	-42.821	
281.00	-65.534	-44.966	
282.00	-69.904	-55.950	
283.00	-75.389	-52.982	
284.00	-82.533	62.222	
285.00	-73.231	78.110	
286.00	-71.412	48.421	
287.00	-68.011	9.109	
288.00	-67.187	-3.866	
289.00	-64.562	-24.486	
290.00	-63.754	-43.662	
291.00	-62.665	-59.093	
292.00	-63.808	-75.102	
293.00	-63.397	-83.390	
294.00	-65.487	-86.336	
295.00	-64.897	-95.289	
296.00	-68.248	-105.257	
297.00	-68.343	-96.134	
298.00	-71.130	-99.471	
299.00	-78.031	-112.956	
300.00	-76.003	154.447	
301.00	-76.300	114.896	
302.00	-70.429	109.233	
303.00	-66.818	90.187	
304.00	-65.093	67.794	
305.00	-63.518	58.671	
306.00	-63.895	38.775	
307.00	-63.843	19.002	
308.00	-66.242	-5.382	
309.00	-68.350	-39.197	
310.00	-67.804	-74.231	
311.00	-67.841	-103.180	
312.00	-67.911	-120.139	
313.00	-67.138	-127.893	
314.00	-66.963	-143.684	
315.00	-66.392	-151.826	
316.00	-66.078	-156.394	
317.00	-65.612	-159.616	
318.00	-65.392	-171.577	
319.00	-65.531	-174.977	
320.00	-65.685	175.813	
321.00	-67.801	168.397	
322.00	-71.227	154.125	
323.00	-75.967	149.313	
324.00	-78.609	113.141	
325.00	-81.596	133.799	
326.00	-86.183	151.042	
327.00	-80.300	160.914	
328.00	-74.914	140.349	
329.00	-74.406	127.634	
330.00	-72.032	107.619	
331.00	-68.251	80.097	
332.00	-66.282	53.902	
333.00	-64.859	41.370	
334.00	-63.814	24.963	
335.00	-65.827	22.489	
336.00	-68.589	17.853	
337.00	-70.835	37.855	
338.00	-70.548	68.040	
339.00	-65.912	87.308	
340.00	-63.885	87.232	
341.00	-62.662	87.155	
342.00	-62.504	90.219	
343.00	-63.657	97.950	
344.00	-64.296	102.552	
345.00	-64.382	123.394	
346.00	-64.400	143.971	
347.00	-62.585	151.178	
348.00	-61.925	149.715	
349.00	-61.755	143.732	
350.00	-60.845	127.416	
351.00	-61.082	106.649	
352.00	-60.880	89.153	
353.00	-59.547	75.314	
354.00	-58.745	65.946	
355.00	-58.558	62.756	
356.00	-59.179	60.662	
357.00	-59.949	62.275	
358.00	-62.569	66.939	
359.00	-64.783	68.816	
Frequency	2650.00	MHz	
Channel	test		
Scan Axis name	Azimuth  [deg]		
Scan Axis	Amplitude	Phase	
			
0.00	-71.036	19.940	
1.00	-73.905	-61.258	
2.00	-67.087	-110.526	
3.00	-64.398	-107.176	
4.00	-65.155	-127.801	
5.00	-64.187	-143.699	
6.00	-64.255	-160.028	
7.00	-63.568	-169.262	
8.00	-62.710	161.115	
9.00	-64.505	138.078	
10.00	-64.443	132.063	
11.00	-63.766	119.474	
12.00	-66.237	108.380	
13.00	-64.431	102.776	
14.00	-65.880	98.170	
15.00	-68.029	68.173	
16.00	-77.445	84.760	
17.00	-74.426	-21.851	
18.00	-77.338	-50.253	
19.00	-70.167	-93.586	
20.00	-69.659	-79.337	
21.00	-67.655	-90.911	
22.00	-66.005	-89.270	
23.00	-67.997	-80.841	
24.00	-68.845	-88.667	
25.00	-71.099	-117.974	
26.00	-67.094	-120.238	
27.00	-64.873	-119.405	
28.00	-65.092	-129.831	
29.00	-64.144	-124.614	
30.00	-64.994	-130.752	
31.00	-65.769	-138.648	
32.00	-67.659	-133.259	
33.00	-73.271	-130.962	
34.00	-77.018	-168.128	
35.00	-72.983	116.781	
36.00	-67.006	112.010	
37.00	-65.795	111.898	
38.00	-66.768	120.915	
39.00	-72.953	129.480	
40.00	-73.432	9.702	
41.00	-65.773	17.623	
42.00	-62.597	28.712	
43.00	-60.797	43.809	
44.00	-60.394	59.656	
45.00	-61.905	68.185	
46.00	-64.056	85.332	
47.00	-68.101	87.000	
48.00	-72.839	61.759	
49.00	-71.947	48.655	
50.00	-71.311	38.963	
51.00	-70.239	49.936	
52.00	-71.911	52.496	
53.00	-73.564	35.971	
54.00	-68.909	19.965	
55.00	-65.802	35.062	
56.00	-62.423	53.424	
57.00	-62.600	82.720	
58.00	-62.202	120.940	
59.00	-63.117	162.736	
60.00	-61.276	-149.671	
61.00	-58.012	-113.354	
62.00	-56.058	-83.081	
63.00	-55.209	-57.277	
64.00	-55.042	-34.836	
65.00	-56.247	-9.078	
66.00	-58.512	19.797	
67.00	-61.725	61.389	
68.00	-64.397	123.020	
69.00	-63.029	-166.463	
70.00	-59.569	-130.346	
71.00	-57.223	-91.305	
72.00	-55.812	-54.760	
73.00	-54.870	-24.969	
74.00	-54.054	0.313	
75.00	-53.716	31.585	
76.00	-53.574	58.321	
77.00	-54.288	92.439	
78.00	-54.536	129.464	
79.00	-55.145	165.827	
80.00	-53.176	-160.783	
81.00	-53.159	-127.918	
82.00	-52.762	-95.983	
83.00	-51.914	-73.078	
84.00	-50.948	-45.613	
85.00	-51.413	-18.861	
86.00	-51.516	9.696	
87.00	-51.625	37.883	
88.00	-51.888	63.294	
89.00	-51.338	99.870	
90.00	-51.194	124.299	
91.00	-51.794	149.324	
92.00	-52.113	-175.842	
93.00	-51.433	-148.612	
94.00	-51.776	-124.332	
95.00	-51.721	-101.876	
96.00	-51.637	-71.595	
97.00	-51.899	-46.762	
98.00	-52.072	-16.951	
99.00	-52.597	6.371	
100.00	-52.334	31.814	
101.00	-53.344	70.995	
102.00	-54.133	101.212	
103.00	-54.679	125.930	
104.00	-54.417	153.742	
105.00	-54.699	-177.031	
106.00	-55.544	-155.767	
107.00	-55.063	-121.014	
108.00	-56.322	-108.439	
109.00	-56.899	-92.185	
110.00	-58.451	-73.018	
111.00	-61.349	-56.926	
112.00	-66.574	-63.655	
113.00	-69.653	-135.875	
114.00	-64.072	-151.942	
115.00	-59.969	-160.717	
116.00	-57.898	-153.013	
117.00	-57.287	-147.449	
118.00	-58.185	-145.784	
119.00	-60.914	-147.557	
120.00	-64.005	-174.307	
121.00	-66.305	148.616	
122.00	-60.965	110.737	
123.00	-57.925	108.146	
124.00	-55.863	109.736	
125.00	-55.193	110.759	
126.00	-55.637	108.807	
127.00	-55.614	110.789	
128.00	-56.574	116.705	
129.00	-57.490	129.458	
130.00	-59.103	147.248	
131.00	-59.343	176.559	
132.00	-58.535	-162.987	
133.00	-57.388	-138.289	
134.00	-57.111	-122.823	
135.00	-57.739	-105.879	
136.00	-59.516	-88.301	
137.00	-63.011	-62.107	
138.00	-72.060	-15.348	
139.00	-64.910	98.406	
140.00	-57.947	130.089	
141.00	-53.828	145.833	
142.00	-51.130	158.697	
143.00	-49.724	170.032	
144.00	-49.218	-178.081	
145.00	-49.416	-166.669	
146.00	-50.017	-157.664	
147.00	-51.090	-147.415	
148.00	-53.091	-138.516	
149.00	-54.724	-137.205	
150.00	-57.909	-139.669	
151.00	-62.029	-152.084	
152.00	-65.017	166.570	
153.00	-62.403	109.730	
154.00	-59.219	84.595	
155.00	-55.122	76.094	
156.00	-52.785	72.998	
157.00	-51.118	78.098	
158.00	-50.026	85.933	
159.00	-49.494	95.297	
160.00	-49.824	106.186	
161.00	-50.075	117.629	
162.00	-50.984	127.160	
163.00	-52.608	138.105	
164.00	-55.482	141.075	
165.00	-60.062	131.259	
166.00	-63.764	77.092	
167.00	-58.159	35.715	
168.00	-54.245	27.055	
169.00	-53.524	29.516	
170.00	-54.334	29.962	
171.00	-56.158	33.109	
172.00	-62.183	31.937	
173.00	-73.924	-167.585	
174.00	-61.742	-143.379	
175.00	-58.120	-160.158	
176.00	-58.663	151.590	
177.00	-51.063	103.557	
178.00	-44.854	85.577	
179.00	-39.965	75.972	
180.00	-36.431	70.334	
181.00	-33.787	66.326	
182.00	-31.998	63.316	
183.00	-30.904	60.638	
184.00	-30.359	57.733	
185.00	-30.415	55.556	
186.00	-31.041	52.862	
187.00	-32.365	50.727	
188.00	-34.540	49.228	
189.00	-37.825	49.163	
190.00	-42.713	55.780	
191.00	-49.119	87.072	
192.00	-48.794	147.730	
193.00	-45.919	164.759	
194.00	-45.071	166.971	
195.00	-46.185	165.340	
196.00	-48.875	161.102	
197.00	-54.135	158.084	
198.00	-67.525	-152.805	
199.00	-59.475	-62.912	
200.00	-55.039	-62.391	
201.00	-55.384	-74.842	
202.00	-58.520	-91.927	
203.00	-66.770	-122.233	
204.00	-65.537	109.092	
205.00	-57.948	62.256	
206.00	-54.197	40.541	
207.00	-51.446	12.268	
208.00	-49.511	-11.719	
209.00	-47.695	-35.291	
210.00	-46.609	-56.385	
211.00	-46.165	-76.520	
212.00	-45.676	-95.697	
213.00	-46.246	-112.714	
214.00	-47.273	-130.047	
215.00	-49.348	-149.101	
216.00	-51.763	-167.508	
217.00	-55.660	166.512	
218.00	-61.884	116.457	
219.00	-62.803	42.542	
220.00	-58.403	-6.756	
221.00	-56.386	-30.562	
222.00	-54.000	-54.560	
223.00	-53.984	-74.425	
224.00	-54.074	-93.915	
225.00	-54.180	-113.827	
226.00	-54.466	-138.409	
227.00	-54.032	-159.932	
228.00	-53.444	-178.340	
229.00	-52.952	165.523	
230.00	-52.288	149.412	
231.00	-51.755	133.239	
232.00	-51.371	117.823	
233.00	-50.984	101.974	
234.00	-51.036	86.932	
235.00	-51.884	72.136	
236.00	-52.739	56.119	
237.00	-54.867	38.336	
238.00	-57.373	18.607	
239.00	-60.878	-4.945	
240.00	-65.753	-31.724	
241.00	-74.787	-84.124	
242.00	-75.909	152.016	
243.00	-66.353	103.326	
244.00	-62.802	76.430	
245.00	-59.779	49.055	
246.00	-58.837	29.516	
247.00	-57.540	10.755	
248.00	-57.750	-14.838	
249.00	-56.792	-26.694	
250.00	-56.357	-53.058	
251.00	-56.939	-76.023	
252.00	-57.329	-93.830	
253.00	-57.637	-112.715	
254.00	-57.781	-136.004	
255.00	-61.466	-154.627	
256.00	-61.647	-179.414	
257.00	-61.116	147.432	
258.00	-61.724	146.641	
259.00	-61.843	143.525	
260.00	-66.352	120.303	
261.00	-64.534	104.129	
262.00	-62.590	78.994	
263.00	-62.592	70.834	
264.00	-66.094	61.700	
265.00	-69.889	71.401	
266.00	-68.535	15.082	
267.00	-68.048	33.355	
268.00	-68.975	-11.538	
269.00	-71.558	-38.258	
270.00	-71.949	-34.383	
271.00	-70.940	-77.043	
272.00	-79.837	-132.061	
273.00	-76.144	-150.102	
274.00	-74.741	-168.016	
275.00	-78.154	155.749	
276.00	-74.837	88.407	
277.00	-77.027	52.373	
278.00	-76.891	-3.802	
279.00	-73.079	1.409	
280.00	-73.657	-57.838	
281.00	-72.958	-82.027	
282.00	-69.824	-106.648	
283.00	-66.684	-133.605	
284.00	-67.684	178.064	
285.00	-67.334	176.844	
286.00	-67.608	158.769	
287.00	-62.548	124.885	
288.00	-62.750	111.022	
289.00	-65.642	107.435	
290.00	-67.788	90.184	
291.00	-69.470	49.910	
292.00	-68.359	31.609	
293.00	-70.621	21.903	
294.00	-74.927	-25.104	
295.00	-78.985	-11.836	
296.00	-75.802	167.107	
297.00	-72.121	173.285	
298.00	-70.123	142.226	
299.00	-71.404	116.344	
300.00	-75.258	112.771	
301.00	-72.720	68.788	
302.00	-70.377	66.599	
303.00	-70.857	71.983	
304.00	-70.586	83.016	
305.00	-68.304	33.349	
306.00	-68.140	22.075	
307.00	-66.955	29.514	
308.00	-66.828	11.810	
309.00	-68.394	4.664	
310.00	-70.954	-3.374	
311.00	-72.923	6.820	
312.00	-74.307	49.078	
313.00	-73.621	35.996	
314.00	-71.152	39.212	
315.00	-70.145	39.597	
316.00	-68.689	31.287	
317.00	-72.735	29.103	
318.00	-72.512	-2.243	
319.00	-76.777	-25.097	
320.00	-72.684	-68.073	
321.00	-79.674	-109.776	
322.00	-69.829	-77.349	
323.00	-76.054	-50.586	
324.00	-71.980	-63.124	
325.00	-71.998	-52.735	
326.00	-71.131	-71.583	
327.00	-73.606	-85.550	
328.00	-68.858	-93.150	
329.00	-68.097	-90.325	
330.00	-65.851	-106.457	
331.00	-66.417	-91.180	
332.00	-66.105	-109.101	
333.00	-71.100	-178.980	
334.00	-81.659	170.510	
335.00	-71.022	3.641	
336.00	-74.279	62.463	
337.00	-66.898	72.648	
338.00	-80.591	-147.273	
339.00	-71.209	87.010	
340.00	-73.767	172.724	
341.00	-79.581	-131.572	
342.00	-86.731	-101.591	
343.00	-68.687	-130.223	
344.00	-63.691	-141.511	
345.00	-62.239	-140.074	
346.00	-66.249	-147.713	
347.00	-69.190	-148.137	
348.00	-82.538	140.944	
349.00	-80.251	171.737	
350.00	-68.946	84.842	
351.00	-65.048	48.818	
352.00	-62.642	36.413	
353.00	-62.723	18.776	
354.00	-61.384	53.542	
355.00	-62.028	65.953	
356.00	-59.792	56.830	
357.00	-63.564	77.110	
358.00	-66.596	47.274	
359.00	-64.643	22.241	
Frequency	2700.00	MHz	
Channel	test		
Scan Axis name	Azimuth  [deg]		
Scan Axis	Amplitude	Phase	
			
0.00	-60.914	75.234	
1.00	-59.291	61.595	
2.00	-62.095	47.424	
3.00	-62.465	59.112	
4.00	-69.179	84.686	
5.00	-72.637	-3.792	
6.00	-68.197	-62.124	
7.00	-68.700	-120.577	
8.00	-68.358	-81.449	
9.00	-65.485	-98.472	
10.00	-65.525	-80.970	
11.00	-69.334	-163.713	
12.00	-76.369	-59.407	
13.00	-68.744	155.791	
14.00	-64.951	141.861	
15.00	-65.094	144.311	
16.00	-64.315	159.905	
17.00	-68.241	152.023	
18.00	-71.107	102.633	
19.00	-82.987	11.373	
20.00	-70.395	43.715	
21.00	-64.151	25.602	
22.00	-64.200	10.521	
23.00	-61.693	28.096	
24.00	-65.480	33.627	
25.00	-62.916	84.901	
26.00	-75.084	177.876	
27.00	-78.543	-95.133	
28.00	-81.672	-85.301	
29.00	-70.762	-69.384	
30.00	-74.244	-52.623	
31.00	-66.582	-19.850	
32.00	-70.655	-29.545	
33.00	-64.695	1.214	
34.00	-69.600	83.234	
35.00	-67.202	67.703	
36.00	-65.803	116.273	
37.00	-65.069	162.395	
38.00	-63.160	-166.567	
39.00	-61.911	-138.829	
40.00	-65.250	-105.587	
41.00	-67.126	-82.461	
42.00	-73.874	-68.642	
43.00	-77.032	151.400	
44.00	-63.171	128.271	
45.00	-61.027	159.186	
46.00	-65.403	-173.264	
47.00	-64.548	-156.374	
48.00	-65.744	-153.327	
49.00	-76.086	-179.391	
50.00	-76.855	156.845	
51.00	-69.522	-162.084	
52.00	-69.750	-154.153	
53.00	-72.784	-114.593	
54.00	-91.650	-54.084	
55.00	-72.395	84.278	
56.00	-69.849	128.266	
57.00	-65.152	138.109	
58.00	-63.243	-174.978	
59.00	-64.627	-136.458	
60.00	-59.388	-96.481	
61.00	-58.608	-54.977	
62.00	-57.070	-21.505	
63.00	-55.549	6.030	
64.00	-55.526	52.617	
65.00	-55.512	88.814	
66.00	-54.118	123.922	
67.00	-53.599	160.932	
68.00	-53.250	-166.958	
69.00	-53.286	-135.033	
70.00	-54.205	-102.033	
71.00	-55.392	-64.319	
72.00	-56.154	-18.798	
73.00	-55.390	31.972	
74.00	-53.606	73.907	
75.00	-51.843	104.398	
76.00	-51.493	135.192	
77.00	-50.926	162.273	
78.00	-50.907	-165.032	
79.00	-51.246	-129.352	
80.00	-51.075	-95.209	
81.00	-50.966	-61.199	
82.00	-50.666	-27.089	
83.00	-50.294	3.340	
84.00	-49.283	34.999	
85.00	-48.557	62.844	
86.00	-48.415	94.478	
87.00	-47.577	118.487	
88.00	-48.093	149.205	
89.00	-46.378	173.344	
90.00	-46.415	-161.680	
91.00	-46.402	-137.732	
92.00	-46.229	-109.324	
93.00	-45.883	-81.754	
94.00	-45.875	-58.248	
95.00	-45.836	-33.335	
96.00	-45.882	-9.269	
97.00	-45.689	14.788	
98.00	-45.860	39.008	
99.00	-46.078	61.956	
100.00	-46.308	86.765	
101.00	-46.648	125.283	
102.00	-47.220	144.813	
103.00	-47.949	169.469	
104.00	-48.655	-169.511	
105.00	-49.991	-143.563	
106.00	-50.818	-116.410	
107.00	-50.843	-92.385	
108.00	-52.299	-76.872	
109.00	-54.208	-54.932	
110.00	-54.689	-39.212	
111.00	-56.124	-27.924	
112.00	-58.570	-35.923	
113.00	-60.884	-52.583	
114.00	-58.720	-70.662	
115.00	-58.386	-77.633	
116.00	-55.979	-77.414	
117.00	-56.665	-70.623	
118.00	-58.224	-63.903	
119.00	-61.545	-57.489	
120.00	-69.832	-132.308	
121.00	-60.203	158.452	
122.00	-55.286	151.782	
123.00	-53.127	164.977	
124.00	-52.308	167.427	
125.00	-52.136	169.512	
126.00	-53.550	-179.230	
127.00	-54.904	-169.194	
128.00	-57.813	-158.397	
129.00	-59.898	-143.692	
130.00	-62.191	-115.042	
131.00	-61.717	-83.900	
132.00	-60.724	-62.852	
133.00	-60.153	-53.590	
134.00	-59.000	-51.289	
135.00	-59.572	-39.138	
136.00	-61.280	-41.214	
137.00	-62.169	-46.355	
138.00	-61.352	-74.418	
139.00	-58.268	-98.933	
140.00	-53.765	-107.031	
141.00	-50.422	-102.391	
142.00	-48.424	-100.625	
143.00	-47.733	-93.366	
144.00	-47.582	-88.253	
145.00	-48.316	-82.542	
146.00	-50.198	-77.042	
147.00	-53.235	-73.177	
148.00	-56.351	-81.129	
149.00	-58.354	-106.437	
150.00	-55.629	-134.534	
151.00	-53.342	-142.825	
152.00	-52.335	-145.545	
153.00	-52.000	-150.031	
154.00	-53.693	-161.093	
155.00	-53.785	-175.440	
156.00	-53.000	168.846	
157.00	-51.822	161.418	
158.00	-50.102	163.964	
159.00	-49.285	169.583	
160.00	-49.503	177.543	
161.00	-49.703	-170.586	
162.00	-50.225	-158.724	
163.00	-51.783	-148.659	
164.00	-53.482	-144.056	
165.00	-56.411	-156.989	
166.00	-57.586	159.255	
167.00	-53.844	138.621	
168.00	-51.277	123.595	
169.00	-50.326	125.350	
170.00	-50.220	126.295	
171.00	-51.878	124.707	
172.00	-55.372	116.832	
173.00	-68.441	91.340	
174.00	-60.051	-47.994	
175.00	-55.023	-71.580	
176.00	-50.769	-107.365	
177.00	-46.369	-140.145	
178.00	-41.353	-163.463	
179.00	-37.308	-174.460	
180.00	-34.235	177.853	
181.00	-32.029	171.822	
182.00	-30.361	167.420	
183.00	-29.429	163.475	
184.00	-29.164	159.245	
185.00	-29.450	156.372	
186.00	-30.365	153.125	
187.00	-32.018	149.982	
188.00	-34.640	147.846	
189.00	-38.766	148.923	
190.00	-44.719	159.257	
191.00	-50.863	-143.750	
192.00	-47.221	-104.426	
193.00	-45.783	-93.154	
194.00	-46.113	-99.363	
195.00	-48.001	-112.307	
196.00	-51.311	-136.737	
197.00	-54.128	-178.006	
198.00	-54.375	132.947	
199.00	-51.452	113.838	
200.00	-53.081	97.996	
201.00	-54.708	93.839	
202.00	-57.960	98.619	
203.00	-57.352	124.752	
204.00	-54.521	129.215	
205.00	-51.634	121.444	
206.00	-48.981	107.431	
207.00	-47.745	89.047	
208.00	-46.199	65.871	
209.00	-45.092	49.527	
210.00	-44.925	30.695	
211.00	-45.249	14.875	
212.00	-45.645	-0.298	
213.00	-48.123	-16.516	
214.00	-51.225	-34.801	
215.00	-55.823	-56.992	
216.00	-66.499	-136.529	
217.00	-55.807	123.128	
218.00	-52.091	113.126	
219.00	-50.005	93.166	
220.00	-48.273	84.777	
221.00	-49.152	65.463	
222.00	-49.244	50.764	
223.00	-51.181	34.238	
224.00	-51.631	16.894	
225.00	-53.537	-7.204	
226.00	-54.476	-20.616	
227.00	-54.886	-43.083	
228.00	-54.371	-62.054	
229.00	-55.504	-84.312	
230.00	-54.878	-105.751	
231.00	-54.126	-131.203	
232.00	-53.600	-148.847	
233.00	-53.148	-166.955	
234.00	-52.468	179.156	
235.00	-53.710	167.261	
236.00	-54.677	161.339	
237.00	-57.123	152.157	
238.00	-59.210	137.632	
239.00	-60.861	132.818	
240.00	-64.383	141.383	
241.00	-65.968	147.354	
242.00	-64.478	156.258	
243.00	-64.615	128.467	
244.00	-63.277	118.674	
245.00	-64.187	72.687	
246.00	-63.450	62.243	
247.00	-62.953	51.425	
248.00	-64.879	18.553	
249.00	-67.943	-4.744	
250.00	-70.365	-27.338	
251.00	-75.976	-32.789	
252.00	-80.598	-106.818	
253.00	-74.244	-120.838	
254.00	-87.161	92.683	
255.00	-74.312	-23.521	
256.00	-67.067	-28.417	
257.00	-65.069	-35.357	
258.00	-62.005	-38.894	
259.00	-60.977	-64.775	
260.00	-61.167	-70.625	
261.00	-59.935	-95.067	
262.00	-59.388	-119.548	
263.00	-60.548	-137.776	
264.00	-61.439	-154.336	
265.00	-62.018	178.259	
266.00	-64.769	165.383	
267.00	-65.704	126.375	
268.00	-71.016	88.051	
269.00	-68.364	44.171	
270.00	-66.159	2.881	
271.00	-67.935	-18.893	
272.00	-66.062	-54.093	
273.00	-64.564	-65.011	
274.00	-64.835	-99.512	
275.00	-64.046	-129.528	
276.00	-63.566	-167.772	
277.00	-64.028	157.984	
278.00	-64.902	144.732	
279.00	-67.379	123.567	
280.00	-63.932	95.891	
281.00	-67.163	80.151	
282.00	-67.405	67.054	
283.00	-69.040	51.210	
284.00	-70.939	2.013	
285.00	-68.437	-43.032	
286.00	-80.603	-98.015	
287.00	-75.789	-170.274	
288.00	-71.483	153.005	
289.00	-66.016	168.732	
290.00	-70.514	173.201	
291.00	-68.208	126.459	
292.00	-78.017	124.341	
293.00	-72.281	173.311	
294.00	-67.363	165.271	
295.00	-70.864	164.720	
296.00	-72.364	141.970	
297.00	-71.387	139.554	
298.00	-69.185	110.877	
299.00	-70.829	88.372	
300.00	-73.922	112.954	
301.00	-77.037	164.081	
302.00	-75.946	-168.554	
303.00	-69.527	-179.591	
304.00	-66.431	165.200	
305.00	-63.498	156.440	
306.00	-63.272	142.790	
307.00	-64.484	134.087	
308.00	-67.282	117.483	
309.00	-71.139	128.522	
310.00	-82.433	163.487	
311.00	-71.600	-167.042	
312.00	-68.396	-168.543	
313.00	-67.193	179.034	
314.00	-66.980	157.554	
315.00	-68.632	132.710	
316.00	-69.333	92.496	
317.00	-68.517	67.127	
318.00	-71.999	36.437	
319.00	-77.147	19.711	
320.00	-81.486	88.693	
321.00	-83.101	-178.633	
322.00	-69.750	151.583	
323.00	-65.925	150.399	
324.00	-63.438	134.491	
325.00	-61.936	118.730	
326.00	-60.962	97.538	
327.00	-61.064	84.638	
328.00	-61.727	77.191	
329.00	-63.420	56.477	
330.00	-65.692	44.647	
331.00	-69.107	25.691	
332.00	-71.237	-7.759	
333.00	-73.471	-15.781	
334.00	-86.063	-86.931	
335.00	-99.810	-127.425	
336.00	-72.932	-148.725	
337.00	-70.527	117.060	
338.00	-73.399	147.496	
339.00	-81.994	54.844	
340.00	-71.475	52.777	
341.00	-67.466	39.367	
342.00	-63.805	9.598	
343.00	-63.157	8.350	
344.00	-60.554	-8.774	
345.00	-60.726	-21.259	
346.00	-61.236	-36.972	
347.00	-61.522	-44.754	
348.00	-62.434	-59.883	
349.00	-63.635	-78.192	
350.00	-73.119	-81.099	
351.00	-69.785	-148.164	
352.00	-67.514	175.766	
353.00	-67.159	154.584	
354.00	-63.537	139.570	
355.00	-63.157	127.089	
356.00	-64.102	115.812	
357.00	-65.358	105.941	
358.00	-62.298	95.700	
359.00	-62.073	61.986	
